#t		Qconv[W]	Ri[Rp]		R*[Rp]		Qc[W]		Qm[W]		Qr[W]		Tcmb[K]		Tl[K]		Tup[K]		RiFlag		Bs[T]
0.000000e+00	9.101855e+11	0.000000e+00	7.697369e-01	3.575142e+13	7.417085e+13	7.790378e+13	4.920487e+03	2.899290e+03	2.239391e+03	0	2.771400e-04
1.000000e+07	9.056027e+11	0.000000e+00	7.697369e-01	3.568047e+13	7.489033e+13	7.747213e+13	4.918253e+03	2.903664e+03	2.242769e+03	0	2.766740e-04
2.000000e+07	9.009393e+11	0.000000e+00	7.697369e-01	3.560850e+13	7.559242e+13	7.704372e+13	4.916024e+03	2.907901e+03	2.246042e+03	0	2.761983e-04
3.000000e+07	8.962000e+11	0.000000e+00	7.697369e-01	3.553554e+13	7.627701e+13	7.661850e+13	4.913799e+03	2.912004e+03	2.249211e+03	0	2.757132e-04
4.000000e+07	8.913895e+11	0.000000e+00	7.697369e-01	3.546168e+13	7.694404e+13	7.619646e+13	4.911579e+03	2.915976e+03	2.252278e+03	0	2.752189e-04
5.000000e+07	8.865119e+11	0.000000e+00	7.697369e-01	3.538696e+13	7.759347e+13	7.577757e+13	4.909364e+03	2.919817e+03	2.255246e+03	0	2.747160e-04
6.000000e+07	8.815715e+11	0.000000e+00	7.697369e-01	3.531143e+13	7.822530e+13	7.536180e+13	4.907153e+03	2.923532e+03	2.258115e+03	0	2.742048e-04
7.000000e+07	8.765724e+11	0.000000e+00	7.697369e-01	3.523516e+13	7.883952e+13	7.494913e+13	4.904947e+03	2.927121e+03	2.260887e+03	0	2.736855e-04
8.000000e+07	8.715183e+11	0.000000e+00	7.697369e-01	3.515819e+13	7.943615e+13	7.453953e+13	4.902745e+03	2.930588e+03	2.263565e+03	0	2.731585e-04
9.000000e+07	8.664130e+11	0.000000e+00	7.697369e-01	3.508057e+13	8.001524e+13	7.413297e+13	4.900548e+03	2.933934e+03	2.266149e+03	0	2.726240e-04
1.000000e+08	8.612601e+11	0.000000e+00	7.697369e-01	3.500236e+13	8.057685e+13	7.372943e+13	4.898357e+03	2.937162e+03	2.268642e+03	0	2.720825e-04
1.100000e+08	8.560630e+11	0.000000e+00	7.697369e-01	3.492358e+13	8.112105e+13	7.332888e+13	4.896170e+03	2.940273e+03	2.271046e+03	0	2.715341e-04
1.200000e+08	8.508250e+11	0.000000e+00	7.697369e-01	3.484429e+13	8.164793e+13	7.293131e+13	4.893988e+03	2.943271e+03	2.273361e+03	0	2.709792e-04
1.300000e+08	8.455492e+11	0.000000e+00	7.697369e-01	3.476453e+13	8.215760e+13	7.253667e+13	4.891811e+03	2.946157e+03	2.275590e+03	0	2.704179e-04
1.400000e+08	8.402386e+11	0.000000e+00	7.697369e-01	3.468434e+13	8.265019e+13	7.214496e+13	4.889639e+03	2.948933e+03	2.277735e+03	0	2.698506e-04
1.500000e+08	8.348962e+11	0.000000e+00	7.697369e-01	3.460375e+13	8.312584e+13	7.175614e+13	4.887472e+03	2.951602e+03	2.279796e+03	0	2.692775e-04
1.600000e+08	8.295246e+11	0.000000e+00	7.697369e-01	3.452280e+13	8.358467e+13	7.137020e+13	4.885310e+03	2.954167e+03	2.281777e+03	0	2.686987e-04
1.700000e+08	8.241266e+11	0.000000e+00	7.697369e-01	3.444154e+13	8.402689e+13	7.098710e+13	4.883153e+03	2.956628e+03	2.283678e+03	0	2.681146e-04
1.800000e+08	8.187045e+11	0.000000e+00	7.697369e-01	3.435998e+13	8.445261e+13	7.060683e+13	4.881001e+03	2.958988e+03	2.285501e+03	0	2.675253e-04
1.900000e+08	8.132609e+11	0.000000e+00	7.697369e-01	3.427816e+13	8.486206e+13	7.022936e+13	4.878854e+03	2.961249e+03	2.287247e+03	0	2.669311e-04
2.000000e+08	8.077980e+11	0.000000e+00	7.697369e-01	3.419612e+13	8.525542e+13	6.985467e+13	4.876712e+03	2.963414e+03	2.288920e+03	0	2.663320e-04
2.100000e+08	8.023180e+11	0.000000e+00	7.697369e-01	3.411387e+13	8.563289e+13	6.948273e+13	4.874576e+03	2.965485e+03	2.290519e+03	0	2.657284e-04
2.200000e+08	7.968229e+11	0.000000e+00	7.697369e-01	3.403146e+13	8.599466e+13	6.911352e+13	4.872445e+03	2.967463e+03	2.292047e+03	0	2.651204e-04
2.300000e+08	7.913148e+11	0.000000e+00	7.697369e-01	3.394889e+13	8.634097e+13	6.874702e+13	4.870318e+03	2.969350e+03	2.293505e+03	0	2.645081e-04
2.400000e+08	7.857955e+11	0.000000e+00	7.697369e-01	3.386621e+13	8.667204e+13	6.838321e+13	4.868197e+03	2.971150e+03	2.294894e+03	0	2.638917e-04
2.500000e+08	7.802669e+11	0.000000e+00	7.697369e-01	3.378342e+13	8.698810e+13	6.802207e+13	4.866081e+03	2.972862e+03	2.296217e+03	0	2.632713e-04
2.600000e+08	7.747305e+11	0.000000e+00	7.697369e-01	3.370056e+13	8.728937e+13	6.766357e+13	4.863970e+03	2.974491e+03	2.297475e+03	0	2.626472e-04
2.700000e+08	7.691880e+11	0.000000e+00	7.697369e-01	3.361765e+13	8.757610e+13	6.730769e+13	4.861865e+03	2.976037e+03	2.298669e+03	0	2.620193e-04
2.800000e+08	7.636410e+11	0.000000e+00	7.697369e-01	3.353470e+13	8.784853e+13	6.695440e+13	4.859764e+03	2.977502e+03	2.299801e+03	0	2.613880e-04
2.900000e+08	7.580908e+11	0.000000e+00	7.697369e-01	3.345174e+13	8.810691e+13	6.660370e+13	4.857669e+03	2.978888e+03	2.300872e+03	0	2.607532e-04
3.000000e+08	7.525390e+11	0.000000e+00	7.697369e-01	3.336877e+13	8.835148e+13	6.625555e+13	4.855579e+03	2.980198e+03	2.301883e+03	0	2.601151e-04
3.100000e+08	7.469867e+11	0.000000e+00	7.697369e-01	3.328583e+13	8.858252e+13	6.590994e+13	4.853494e+03	2.981433e+03	2.302837e+03	0	2.594738e-04
3.200000e+08	7.414352e+11	0.000000e+00	7.697369e-01	3.320292e+13	8.880025e+13	6.556684e+13	4.851414e+03	2.982594e+03	2.303734e+03	0	2.588294e-04
3.300000e+08	7.358857e+11	0.000000e+00	7.697369e-01	3.312007e+13	8.900494e+13	6.522624e+13	4.849340e+03	2.983684e+03	2.304576e+03	0	2.581820e-04
3.400000e+08	7.303393e+11	0.000000e+00	7.697369e-01	3.303727e+13	8.919686e+13	6.488811e+13	4.847271e+03	2.984704e+03	2.305364e+03	0	2.575317e-04
3.500000e+08	7.247969e+11	0.000000e+00	7.697369e-01	3.295456e+13	8.937626e+13	6.455244e+13	4.845206e+03	2.985656e+03	2.306099e+03	0	2.568786e-04
3.600000e+08	7.192597e+11	0.000000e+00	7.697369e-01	3.287194e+13	8.954340e+13	6.421920e+13	4.843147e+03	2.986542e+03	2.306783e+03	0	2.562228e-04
3.700000e+08	7.137285e+11	0.000000e+00	7.697369e-01	3.278943e+13	8.969852e+13	6.388837e+13	4.841093e+03	2.987363e+03	2.307417e+03	0	2.555643e-04
3.800000e+08	7.082042e+11	0.000000e+00	7.697369e-01	3.270702e+13	8.984191e+13	6.355994e+13	4.839045e+03	2.988121e+03	2.308003e+03	0	2.549032e-04
3.900000e+08	7.026876e+11	0.000000e+00	7.697369e-01	3.262475e+13	8.997381e+13	6.323388e+13	4.837001e+03	2.988817e+03	2.308540e+03	0	2.542396e-04
4.000000e+08	6.971795e+11	0.000000e+00	7.697369e-01	3.254261e+13	9.009447e+13	6.291017e+13	4.834963e+03	2.989453e+03	2.309032e+03	0	2.535736e-04
4.100000e+08	6.916807e+11	0.000000e+00	7.697369e-01	3.246062e+13	9.020416e+13	6.258880e+13	4.832929e+03	2.990031e+03	2.309478e+03	0	2.529052e-04
4.200000e+08	6.861918e+11	0.000000e+00	7.697369e-01	3.237878e+13	9.030314e+13	6.226975e+13	4.830901e+03	2.990552e+03	2.309881e+03	0	2.522344e-04
4.300000e+08	6.807135e+11	0.000000e+00	7.697369e-01	3.229711e+13	9.039164e+13	6.195299e+13	4.828878e+03	2.991018e+03	2.310241e+03	0	2.515614e-04
4.400000e+08	6.752463e+11	0.000000e+00	7.697369e-01	3.221561e+13	9.046993e+13	6.163851e+13	4.826860e+03	2.991429e+03	2.310558e+03	0	2.508861e-04
4.500000e+08	6.697909e+11	0.000000e+00	7.697369e-01	3.213428e+13	9.053825e+13	6.132629e+13	4.824847e+03	2.991788e+03	2.310836e+03	0	2.502086e-04
4.600000e+08	6.643477e+11	0.000000e+00	7.697369e-01	3.205315e+13	9.059685e+13	6.101632e+13	4.822839e+03	2.992096e+03	2.311073e+03	0	2.495290e-04
4.700000e+08	6.589174e+11	0.000000e+00	7.697369e-01	3.197220e+13	9.064596e+13	6.070856e+13	4.820837e+03	2.992354e+03	2.311272e+03	0	2.488472e-04
4.800000e+08	6.535003e+11	0.000000e+00	7.697369e-01	3.189145e+13	9.068585e+13	6.040302e+13	4.818839e+03	2.992563e+03	2.311434e+03	0	2.481634e-04
4.900000e+08	6.480968e+11	0.000000e+00	7.697369e-01	3.181091e+13	9.071672e+13	6.009965e+13	4.816846e+03	2.992725e+03	2.311559e+03	0	2.474775e-04
5.000000e+08	6.427075e+11	0.000000e+00	7.697369e-01	3.173057e+13	9.073883e+13	5.979846e+13	4.814859e+03	2.992841e+03	2.311649e+03	0	2.467897e-04
5.100000e+08	6.373326e+11	0.000000e+00	7.697369e-01	3.165045e+13	9.075241e+13	5.949942e+13	4.812876e+03	2.992912e+03	2.311704e+03	0	2.460998e-04
5.200000e+08	6.319726e+11	0.000000e+00	7.697369e-01	3.157055e+13	9.075768e+13	5.920252e+13	4.810898e+03	2.992940e+03	2.311725e+03	0	2.454079e-04
5.300000e+08	6.266277e+11	0.000000e+00	7.697369e-01	3.149087e+13	9.075485e+13	5.890773e+13	4.808926e+03	2.992925e+03	2.311714e+03	0	2.447141e-04
5.400000e+08	6.212982e+11	0.000000e+00	7.697369e-01	3.141142e+13	9.074419e+13	5.861504e+13	4.806958e+03	2.992869e+03	2.311670e+03	0	2.440184e-04
5.500000e+08	6.159846e+11	0.000000e+00	7.697369e-01	3.133220e+13	9.072587e+13	5.832444e+13	4.804995e+03	2.992773e+03	2.311596e+03	0	2.433207e-04
5.600000e+08	6.106869e+11	0.000000e+00	7.697369e-01	3.125322e+13	9.070012e+13	5.803590e+13	4.803038e+03	2.992638e+03	2.311492e+03	0	2.426212e-04
5.700000e+08	6.054055e+11	0.000000e+00	7.697369e-01	3.117447e+13	9.066715e+13	5.774941e+13	4.801085e+03	2.992465e+03	2.311358e+03	0	2.419197e-04
5.800000e+08	6.001405e+11	0.000000e+00	7.697369e-01	3.109596e+13	9.062718e+13	5.746495e+13	4.799137e+03	2.992255e+03	2.311196e+03	0	2.412164e-04
5.900000e+08	5.948923e+11	0.000000e+00	7.697369e-01	3.101769e+13	9.058040e+13	5.718251e+13	4.797194e+03	2.992010e+03	2.311007e+03	0	2.405112e-04
6.000000e+08	5.896609e+11	0.000000e+00	7.697369e-01	3.093967e+13	9.052699e+13	5.690206e+13	4.795256e+03	2.991729e+03	2.310790e+03	0	2.398041e-04
6.100000e+08	5.844466e+11	0.000000e+00	7.697369e-01	3.086189e+13	9.046721e+13	5.662360e+13	4.793323e+03	2.991415e+03	2.310547e+03	0	2.390951e-04
6.200000e+08	5.792494e+11	0.000000e+00	7.697369e-01	3.078437e+13	9.040118e+13	5.634711e+13	4.791394e+03	2.991068e+03	2.310279e+03	0	2.383843e-04
6.300000e+08	5.740697e+11	0.000000e+00	7.697369e-01	3.070709e+13	9.032912e+13	5.607257e+13	4.789471e+03	2.990689e+03	2.309987e+03	0	2.376716e-04
6.400000e+08	5.689074e+11	0.000000e+00	7.697369e-01	3.063007e+13	9.025121e+13	5.579997e+13	4.787552e+03	2.990279e+03	2.309670e+03	0	2.369571e-04
6.500000e+08	5.637627e+11	0.000000e+00	7.697369e-01	3.055330e+13	9.016766e+13	5.552929e+13	4.785638e+03	2.989839e+03	2.309330e+03	0	2.362406e-04
6.600000e+08	5.586358e+11	0.000000e+00	7.697369e-01	3.047679e+13	9.007860e+13	5.526051e+13	4.783729e+03	2.989370e+03	2.308967e+03	0	2.355223e-04
6.700000e+08	5.535266e+11	0.000000e+00	7.697369e-01	3.040054e+13	8.998422e+13	5.499362e+13	4.781825e+03	2.988872e+03	2.308583e+03	0	2.348021e-04
6.800000e+08	5.484354e+11	0.000000e+00	7.697369e-01	3.032454e+13	8.988470e+13	5.472861e+13	4.779925e+03	2.988347e+03	2.308177e+03	0	2.340800e-04
6.900000e+08	5.433621e+11	0.000000e+00	7.697369e-01	3.024880e+13	8.978020e+13	5.446545e+13	4.778030e+03	2.987795e+03	2.307751e+03	0	2.333560e-04
7.000000e+08	5.383069e+11	0.000000e+00	7.697369e-01	3.017332e+13	8.967089e+13	5.420414e+13	4.776140e+03	2.987216e+03	2.307304e+03	0	2.326300e-04
7.100000e+08	5.332697e+11	0.000000e+00	7.697369e-01	3.009811e+13	8.955691e+13	5.394466e+13	4.774255e+03	2.986613e+03	2.306838e+03	0	2.319022e-04
7.200000e+08	5.282507e+11	0.000000e+00	7.697369e-01	3.002315e+13	8.943841e+13	5.368700e+13	4.772374e+03	2.985986e+03	2.306354e+03	0	2.311723e-04
7.300000e+08	5.232499e+11	0.000000e+00	7.697369e-01	2.994845e+13	8.931558e+13	5.343113e+13	4.770498e+03	2.985334e+03	2.305850e+03	0	2.304405e-04
7.400000e+08	5.182673e+11	0.000000e+00	7.697369e-01	2.987402e+13	8.918855e+13	5.317705e+13	4.768626e+03	2.984660e+03	2.305329e+03	0	2.297068e-04
7.500000e+08	5.133030e+11	0.000000e+00	7.697369e-01	2.979985e+13	8.905744e+13	5.292474e+13	4.766760e+03	2.983963e+03	2.304791e+03	0	2.289710e-04
7.600000e+08	5.083569e+11	0.000000e+00	7.697369e-01	2.972594e+13	8.892241e+13	5.267419e+13	4.764898e+03	2.983245e+03	2.304236e+03	0	2.282332e-04
7.700000e+08	5.034291e+11	0.000000e+00	7.697369e-01	2.965229e+13	8.878361e+13	5.242539e+13	4.763040e+03	2.982505e+03	2.303665e+03	0	2.274933e-04
7.800000e+08	4.985197e+11	0.000000e+00	7.697369e-01	2.957890e+13	8.864115e+13	5.217831e+13	4.761187e+03	2.981746e+03	2.303079e+03	0	2.267514e-04
7.900000e+08	4.936285e+11	0.000000e+00	7.697369e-01	2.950578e+13	8.849517e+13	5.193294e+13	4.759339e+03	2.980966e+03	2.302477e+03	0	2.260074e-04
8.000000e+08	4.887556e+11	0.000000e+00	7.697369e-01	2.943292e+13	8.834580e+13	5.168928e+13	4.757495e+03	2.980168e+03	2.301860e+03	0	2.252612e-04
8.100000e+08	4.839010e+11	0.000000e+00	7.697369e-01	2.936032e+13	8.819317e+13	5.144731e+13	4.755656e+03	2.979351e+03	2.301229e+03	0	2.245129e-04
8.200000e+08	4.790646e+11	0.000000e+00	7.697369e-01	2.928798e+13	8.803740e+13	5.120702e+13	4.753822e+03	2.978516e+03	2.300584e+03	0	2.237624e-04
8.300000e+08	4.742466e+11	0.000000e+00	7.697369e-01	2.921590e+13	8.787859e+13	5.096838e+13	4.751991e+03	2.977663e+03	2.299925e+03	0	2.230098e-04
8.400000e+08	4.694468e+11	0.000000e+00	7.697369e-01	2.914409e+13	8.771687e+13	5.073139e+13	4.750166e+03	2.976794e+03	2.299254e+03	0	2.222549e-04
8.500000e+08	4.646652e+11	0.000000e+00	7.697369e-01	2.907253e+13	8.755235e+13	5.049604e+13	4.748345e+03	2.975909e+03	2.298570e+03	0	2.214977e-04
8.600000e+08	4.599018e+11	0.000000e+00	7.697369e-01	2.900124e+13	8.738513e+13	5.026231e+13	4.746528e+03	2.975007e+03	2.297874e+03	0	2.207382e-04
8.700000e+08	4.551566e+11	0.000000e+00	7.697369e-01	2.893021e+13	8.721535e+13	5.003019e+13	4.744716e+03	2.974091e+03	2.297166e+03	0	2.199764e-04
8.800000e+08	4.504295e+11	0.000000e+00	7.697369e-01	2.885943e+13	8.704307e+13	4.979966e+13	4.742908e+03	2.973160e+03	2.296447e+03	0	2.192122e-04
8.900000e+08	4.457205e+11	0.000000e+00	7.697369e-01	2.878892e+13	8.686841e+13	4.957072e+13	4.741105e+03	2.972214e+03	2.295717e+03	0	2.184456e-04
9.000000e+08	4.410295e+11	0.000000e+00	7.697369e-01	2.871866e+13	8.669147e+13	4.934335e+13	4.739306e+03	2.971255e+03	2.294976e+03	0	2.176766e-04
9.100000e+08	4.363566e+11	0.000000e+00	7.697369e-01	2.864866e+13	8.651235e+13	4.911754e+13	4.737511e+03	2.970282e+03	2.294225e+03	0	2.169051e-04
9.200000e+08	4.317017e+11	0.000000e+00	7.697369e-01	2.857892e+13	8.633113e+13	4.889328e+13	4.735721e+03	2.969297e+03	2.293463e+03	0	2.161310e-04
9.300000e+08	4.270647e+11	0.000000e+00	7.697369e-01	2.850943e+13	8.614791e+13	4.867055e+13	4.733935e+03	2.968299e+03	2.292692e+03	0	2.153544e-04
9.400000e+08	4.224456e+11	0.000000e+00	7.697369e-01	2.844020e+13	8.596277e+13	4.844934e+13	4.732153e+03	2.967289e+03	2.291912e+03	0	2.145752e-04
9.500000e+08	4.178443e+11	0.000000e+00	7.697369e-01	2.837123e+13	8.577580e+13	4.822964e+13	4.730376e+03	2.966267e+03	2.291123e+03	0	2.137933e-04
9.600000e+08	4.132609e+11	0.000000e+00	7.697369e-01	2.830251e+13	8.558708e+13	4.801144e+13	4.728603e+03	2.965234e+03	2.290325e+03	0	2.130087e-04
9.700000e+08	4.086951e+11	0.000000e+00	7.697369e-01	2.823404e+13	8.539669e+13	4.779473e+13	4.726835e+03	2.964190e+03	2.289519e+03	0	2.122213e-04
9.800000e+08	4.041471e+11	0.000000e+00	7.697369e-01	2.816582e+13	8.520472e+13	4.757949e+13	4.725070e+03	2.963136e+03	2.288704e+03	0	2.114312e-04
9.900000e+08	3.996167e+11	0.000000e+00	7.697369e-01	2.809786e+13	8.501123e+13	4.736571e+13	4.723310e+03	2.962071e+03	2.287882e+03	0	2.106382e-04
1.000000e+09	3.951039e+11	0.000000e+00	7.697369e-01	2.803015e+13	8.481631e+13	4.715339e+13	4.721554e+03	2.960997e+03	2.287053e+03	0	2.098422e-04
1.010000e+09	3.906085e+11	0.000000e+00	7.697369e-01	2.796269e+13	8.462001e+13	4.694250e+13	4.719803e+03	2.959913e+03	2.286216e+03	0	2.090434e-04
1.020000e+09	3.861307e+11	0.000000e+00	7.697369e-01	2.789548e+13	8.442242e+13	4.673304e+13	4.718055e+03	2.958821e+03	2.285372e+03	0	2.082415e-04
1.030000e+09	3.816702e+11	0.000000e+00	7.697369e-01	2.782851e+13	8.422360e+13	4.652501e+13	4.716312e+03	2.957719e+03	2.284521e+03	0	2.074365e-04
1.040000e+09	3.772271e+11	0.000000e+00	7.697369e-01	2.776180e+13	8.402361e+13	4.631837e+13	4.714573e+03	2.956609e+03	2.283664e+03	0	2.066285e-04
1.050000e+09	3.728013e+11	0.000000e+00	7.697369e-01	2.769533e+13	8.382252e+13	4.611313e+13	4.712838e+03	2.955491e+03	2.282800e+03	0	2.058172e-04
1.060000e+09	3.683927e+11	0.000000e+00	7.697369e-01	2.762911e+13	8.362041e+13	4.590928e+13	4.711108e+03	2.954366e+03	2.281931e+03	0	2.050027e-04
1.070000e+09	3.640012e+11	0.000000e+00	7.697369e-01	2.756313e+13	8.341730e+13	4.570680e+13	4.709381e+03	2.953232e+03	2.281055e+03	0	2.041848e-04
1.080000e+09	3.596269e+11	0.000000e+00	7.697369e-01	2.749740e+13	8.321329e+13	4.550568e+13	4.707659e+03	2.952092e+03	2.280174e+03	0	2.033636e-04
1.090000e+09	3.552696e+11	0.000000e+00	7.697369e-01	2.743191e+13	8.300840e+13	4.530592e+13	4.705940e+03	2.950945e+03	2.279288e+03	0	2.025389e-04
1.100000e+09	3.509292e+11	0.000000e+00	7.697369e-01	2.736666e+13	8.280271e+13	4.510749e+13	4.704226e+03	2.949790e+03	2.278397e+03	0	2.017107e-04
1.110000e+09	3.466057e+11	0.000000e+00	7.697369e-01	2.730166e+13	8.259626e+13	4.491040e+13	4.702516e+03	2.948630e+03	2.277500e+03	0	2.008789e-04
1.120000e+09	3.422991e+11	0.000000e+00	7.697369e-01	2.723689e+13	8.238911e+13	4.471463e+13	4.700810e+03	2.947463e+03	2.276599e+03	0	2.000435e-04
1.130000e+09	3.380093e+11	0.000000e+00	7.697369e-01	2.717237e+13	8.218131e+13	4.452016e+13	4.699108e+03	2.946291e+03	2.275694e+03	0	1.992043e-04
1.140000e+09	3.337362e+11	0.000000e+00	7.697369e-01	2.710808e+13	8.197292e+13	4.432700e+13	4.697410e+03	2.945113e+03	2.274784e+03	0	1.983613e-04
1.150000e+09	3.294797e+11	0.000000e+00	7.697369e-01	2.704403e+13	8.176395e+13	4.413513e+13	4.695716e+03	2.943929e+03	2.273869e+03	0	1.975144e-04
1.160000e+09	3.252397e+11	0.000000e+00	7.697369e-01	2.698022e+13	8.155447e+13	4.394453e+13	4.694026e+03	2.942740e+03	2.272951e+03	0	1.966635e-04
1.170000e+09	3.210163e+11	0.000000e+00	7.697369e-01	2.691664e+13	8.134454e+13	4.375521e+13	4.692340e+03	2.941547e+03	2.272029e+03	0	1.958085e-04
1.180000e+09	3.168094e+11	0.000000e+00	7.697369e-01	2.685330e+13	8.113417e+13	4.356714e+13	4.690658e+03	2.940348e+03	2.271104e+03	0	1.949494e-04
1.190000e+09	3.126188e+11	0.000000e+00	7.697369e-01	2.679019e+13	8.092343e+13	4.338033e+13	4.688979e+03	2.939145e+03	2.270174e+03	0	1.940860e-04
1.200000e+09	3.084445e+11	0.000000e+00	7.697369e-01	2.672732e+13	8.071234e+13	4.319476e+13	4.687305e+03	2.937938e+03	2.269242e+03	0	1.932183e-04
1.210000e+09	3.042865e+11	0.000000e+00	7.697369e-01	2.666468e+13	8.050095e+13	4.301041e+13	4.685635e+03	2.936727e+03	2.268306e+03	0	1.923461e-04
1.220000e+09	3.001446e+11	0.000000e+00	7.697369e-01	2.660227e+13	8.028930e+13	4.282729e+13	4.683969e+03	2.935511e+03	2.267368e+03	0	1.914694e-04
1.230000e+09	2.960188e+11	0.000000e+00	7.697369e-01	2.654009e+13	8.007741e+13	4.264538e+13	4.682306e+03	2.934292e+03	2.266426e+03	0	1.905880e-04
1.240000e+09	2.919091e+11	0.000000e+00	7.697369e-01	2.647813e+13	7.986534e+13	4.246467e+13	4.680648e+03	2.933070e+03	2.265482e+03	0	1.897019e-04
1.250000e+09	2.878153e+11	0.000000e+00	7.697369e-01	2.641641e+13	7.965310e+13	4.228516e+13	4.678993e+03	2.931844e+03	2.264535e+03	0	1.888109e-04
1.260000e+09	2.837375e+11	0.000000e+00	7.697369e-01	2.635492e+13	7.944074e+13	4.210683e+13	4.677342e+03	2.930615e+03	2.263585e+03	0	1.879150e-04
1.270000e+09	2.796755e+11	0.000000e+00	7.697369e-01	2.629365e+13	7.922829e+13	4.192967e+13	4.675695e+03	2.929383e+03	2.262634e+03	0	1.870139e-04
1.280000e+09	2.756293e+11	0.000000e+00	7.697369e-01	2.623260e+13	7.901577e+13	4.175368e+13	4.674052e+03	2.928148e+03	2.261680e+03	0	1.861077e-04
1.290000e+09	2.715987e+11	0.000000e+00	7.697369e-01	2.617178e+13	7.880321e+13	4.157884e+13	4.672413e+03	2.926910e+03	2.260724e+03	0	1.851961e-04
1.300000e+09	2.675838e+11	0.000000e+00	7.697369e-01	2.611119e+13	7.859066e+13	4.140516e+13	4.670777e+03	2.925670e+03	2.259766e+03	0	1.842790e-04
1.310000e+09	2.635845e+11	0.000000e+00	7.697369e-01	2.605081e+13	7.837813e+13	4.123261e+13	4.669145e+03	2.924427e+03	2.258806e+03	0	1.833563e-04
1.320000e+09	2.596007e+11	0.000000e+00	7.697369e-01	2.599066e+13	7.816565e+13	4.106119e+13	4.667517e+03	2.923182e+03	2.257845e+03	0	1.824278e-04
1.330000e+09	2.556323e+11	0.000000e+00	7.697369e-01	2.593073e+13	7.795326e+13	4.089089e+13	4.665893e+03	2.921935e+03	2.256882e+03	0	1.814935e-04
1.340000e+09	2.516792e+11	0.000000e+00	7.697369e-01	2.587102e+13	7.774096e+13	4.072171e+13	4.664272e+03	2.920687e+03	2.255917e+03	0	1.805531e-04
1.350000e+09	2.477415e+11	0.000000e+00	7.697369e-01	2.581153e+13	7.752880e+13	4.055363e+13	4.662656e+03	2.919436e+03	2.254951e+03	0	1.796065e-04
1.360000e+09	2.438190e+11	0.000000e+00	7.697369e-01	2.575225e+13	7.731678e+13	4.038664e+13	4.661043e+03	2.918184e+03	2.253984e+03	0	1.786536e-04
