#t		Qconv[W]	Ri[Rp]		R*[Rp]		Qc[W]		Qm[W]		Qr[W]		Tcmb[K]		Tl[K]		Tup[K]		RiFlag		Bs[T]
0.000000e+00	3.534190e+14	0.000000e+00	7.581702e-01	4.107463e+15	7.716666e+13	1.077589e+14	1.408294e+04	4.758911e+03	2.330889e+03	0	2.007547e-03
1.000000e+07	3.395830e+14	0.000000e+00	7.581702e-01	3.949961e+15	1.302537e+14	1.071619e+14	1.390467e+04	5.166705e+03	2.530625e+03	0	1.981000e-03
2.000000e+07	3.242582e+14	0.000000e+00	7.581702e-01	3.775743e+15	2.020261e+14	1.065693e+14	1.373316e+04	5.552650e+03	2.719658e+03	0	1.950740e-03
3.000000e+07	3.079596e+14	0.000000e+00	7.581702e-01	3.590616e+15	2.922626e+14	1.059811e+14	1.356914e+04	5.913232e+03	2.896270e+03	0	1.917493e-03
4.000000e+07	2.911977e+14	0.000000e+00	7.581702e-01	3.400338e+15	3.988609e+14	1.053973e+14	1.341308e+04	6.245631e+03	3.059077e+03	0	1.882053e-03
5.000000e+07	2.744425e+14	0.000000e+00	7.581702e-01	3.210209e+15	5.181333e+14	1.048179e+14	1.326522e+04	6.547885e+03	3.207119e+03	0	1.845240e-03
6.000000e+07	2.580949e+14	0.000000e+00	7.581702e-01	3.024745e+15	6.453565e+14	1.042428e+14	1.312556e+04	6.818980e+03	3.339900e+03	0	1.807850e-03
7.000000e+07	2.424690e+14	0.000000e+00	7.581702e-01	2.847485e+15	7.754263e+14	1.036720e+14	1.299391e+04	7.058839e+03	3.457382e+03	0	1.770603e-03
8.000000e+07	2.277865e+14	0.000000e+00	7.581702e-01	2.680925e+15	9.034738e+14	1.031054e+14	1.286992e+04	7.268239e+03	3.559945e+03	0	1.734117e-03
9.000000e+07	2.141819e+14	0.000000e+00	7.581702e-01	2.526576e+15	1.025328e+15	1.025430e+14	1.275312e+04	7.448651e+03	3.648309e+03	0	1.698883e-03
1.000000e+08	2.017142e+14	0.000000e+00	7.581702e-01	2.385097e+15	1.137785e+15	1.019849e+14	1.264301e+04	7.602065e+03	3.723451e+03	0	1.665257e-03
1.100000e+08	1.903830e+14	0.000000e+00	7.581702e-01	2.256482e+15	1.238687e+15	1.014308e+14	1.253902e+04	7.730803e+03	3.786506e+03	0	1.633473e-03
1.200000e+08	1.801450e+14	0.000000e+00	7.581702e-01	2.140235e+15	1.326862e+15	1.008809e+14	1.244059e+04	7.837352e+03	3.838693e+03	0	1.603651e-03
1.300000e+08	1.709288e+14	0.000000e+00	7.581702e-01	2.035547e+15	1.401962e+15	1.003350e+14	1.234721e+04	7.924221e+03	3.881241e+03	0	1.575823e-03
1.400000e+08	1.626472e+14	0.000000e+00	7.581702e-01	1.941432e+15	1.464279e+15	9.979317e+13	1.225836e+04	7.993842e+03	3.915341e+03	0	1.549951e-03
1.500000e+08	1.552067e+14	0.000000e+00	7.581702e-01	1.856832e+15	1.514552e+15	9.925535e+13	1.217359e+04	8.048499e+03	3.942112e+03	0	1.525947e-03
1.600000e+08	1.485140e+14	0.000000e+00	7.581702e-01	1.780692e+15	1.553793e+15	9.872150e+13	1.209250e+04	8.090281e+03	3.962576e+03	0	1.503690e-03
1.700000e+08	1.424802e+14	0.000000e+00	7.581702e-01	1.712006e+15	1.583159e+15	9.819159e+13	1.201470e+04	8.121064e+03	3.977654e+03	0	1.483044e-03
1.800000e+08	1.370234e+14	0.000000e+00	7.581702e-01	1.649849e+15	1.603845e+15	9.766558e+13	1.193989e+04	8.142508e+03	3.988157e+03	0	1.463864e-03
1.900000e+08	1.320699e+14	0.000000e+00	7.581702e-01	1.593387e+15	1.617019e+15	9.714345e+13	1.186777e+04	8.156064e+03	3.994796e+03	0	1.446007e-03
2.000000e+08	1.275544e+14	0.000000e+00	7.581702e-01	1.541884e+15	1.623776e+15	9.662516e+13	1.179811e+04	8.162986e+03	3.998187e+03	0	1.429336e-03
2.100000e+08	1.234197e+14	0.000000e+00	7.581702e-01	1.494692e+15	1.625113e+15	9.611069e+13	1.173068e+04	8.164354e+03	3.998857e+03	0	1.413722e-03
2.200000e+08	1.196164e+14	0.000000e+00	7.581702e-01	1.451253e+15	1.621920e+15	9.559999e+13	1.166530e+04	8.161087e+03	3.997257e+03	0	1.399048e-03
2.300000e+08	1.161019e+14	0.000000e+00	7.581702e-01	1.411084e+15	1.614977e+15	9.509304e+13	1.160181e+04	8.153968e+03	3.993770e+03	0	1.385210e-03
2.400000e+08	1.128396e+14	0.000000e+00	7.581702e-01	1.373773e+15	1.604962e+15	9.458980e+13	1.154006e+04	8.143660e+03	3.988721e+03	0	1.372112e-03
2.500000e+08	1.097983e+14	0.000000e+00	7.581702e-01	1.338968e+15	1.592452e+15	9.409026e+13	1.147993e+04	8.130722e+03	3.982384e+03	0	1.359673e-03
2.600000e+08	1.069514e+14	0.000000e+00	7.581702e-01	1.306365e+15	1.577941e+15	9.359436e+13	1.142132e+04	8.115624e+03	3.974990e+03	0	1.347818e-03
2.700000e+08	1.042760e+14	0.000000e+00	7.581702e-01	1.275710e+15	1.561847e+15	9.310210e+13	1.136412e+04	8.098764e+03	3.966731e+03	0	1.336485e-03
2.800000e+08	1.017529e+14	0.000000e+00	7.581702e-01	1.246781e+15	1.544518e+15	9.261343e+13	1.130826e+04	8.080474e+03	3.957773e+03	0	1.325617e-03
2.900000e+08	9.936542e+13	0.000000e+00	7.581702e-01	1.219393e+15	1.526248e+15	9.212832e+13	1.125365e+04	8.061032e+03	3.948251e+03	0	1.315167e-03
3.000000e+08	9.709942e+13	0.000000e+00	7.581702e-01	1.193383e+15	1.507281e+15	9.164675e+13	1.120024e+04	8.040674e+03	3.938279e+03	0	1.305093e-03
3.100000e+08	9.494274e+13	0.000000e+00	7.581702e-01	1.168616e+15	1.487817e+15	9.116869e+13	1.114795e+04	8.019595e+03	3.927955e+03	0	1.295358e-03
3.200000e+08	9.288492e+13	0.000000e+00	7.581702e-01	1.144973e+15	1.468024e+15	9.069411e+13	1.109675e+04	7.997959e+03	3.917358e+03	0	1.285931e-03
3.300000e+08	9.091693e+13	0.000000e+00	7.581702e-01	1.122350e+15	1.448040e+15	9.022298e+13	1.104657e+04	7.975904e+03	3.906555e+03	0	1.276784e-03
3.400000e+08	8.903096e+13	0.000000e+00	7.581702e-01	1.100661e+15	1.427977e+15	8.975527e+13	1.099737e+04	7.953545e+03	3.895604e+03	0	1.267894e-03
3.500000e+08	8.722021e+13	0.000000e+00	7.581702e-01	1.079828e+15	1.407926e+15	8.929096e+13	1.094912e+04	7.930978e+03	3.884550e+03	0	1.259239e-03
3.600000e+08	8.547878e+13	0.000000e+00	7.581702e-01	1.059784e+15	1.387963e+15	8.883001e+13	1.090178e+04	7.908282e+03	3.873434e+03	0	1.250802e-03
3.700000e+08	8.380146e+13	0.000000e+00	7.581702e-01	1.040471e+15	1.368148e+15	8.837240e+13	1.085531e+04	7.885526e+03	3.862288e+03	0	1.242567e-03
3.800000e+08	8.218368e+13	0.000000e+00	7.581702e-01	1.021835e+15	1.348529e+15	8.791809e+13	1.080968e+04	7.862764e+03	3.851140e+03	0	1.234519e-03
3.900000e+08	8.062141e+13	0.000000e+00	7.581702e-01	1.003833e+15	1.329144e+15	8.746708e+13	1.076486e+04	7.840043e+03	3.840011e+03	0	1.226646e-03
4.000000e+08	7.911107e+13	0.000000e+00	7.581702e-01	9.864224e+14	1.310023e+15	8.701932e+13	1.072082e+04	7.817401e+03	3.828921e+03	0	1.218938e-03
4.100000e+08	7.764944e+13	0.000000e+00	7.581702e-01	9.695678e+14	1.291190e+15	8.657479e+13	1.067755e+04	7.794869e+03	3.817885e+03	0	1.211384e-03
4.200000e+08	7.623367e+13	0.000000e+00	7.581702e-01	9.532364e+14	1.272662e+15	8.613346e+13	1.063500e+04	7.772475e+03	3.806917e+03	0	1.203977e-03
4.300000e+08	7.486118e+13	0.000000e+00	7.581702e-01	9.373990e+14	1.254451e+15	8.569532e+13	1.059317e+04	7.750238e+03	3.796025e+03	0	1.196708e-03
4.400000e+08	7.352963e+13	0.000000e+00	7.581702e-01	9.220291e+14	1.236568e+15	8.526032e+13	1.055203e+04	7.728177e+03	3.785220e+03	0	1.189570e-03
4.500000e+08	7.223690e+13	0.000000e+00	7.581702e-01	9.071027e+14	1.219016e+15	8.482845e+13	1.051156e+04	7.706306e+03	3.774507e+03	0	1.182557e-03
4.600000e+08	7.098108e+13	0.000000e+00	7.581702e-01	8.925979e+14	1.201801e+15	8.439968e+13	1.047174e+04	7.684634e+03	3.763893e+03	0	1.175664e-03
4.700000e+08	6.976039e+13	0.000000e+00	7.581702e-01	8.784946e+14	1.184922e+15	8.397399e+13	1.043256e+04	7.663173e+03	3.753381e+03	0	1.168886e-03
4.800000e+08	6.857320e+13	0.000000e+00	7.581702e-01	8.647743e+14	1.168380e+15	8.355134e+13	1.039399e+04	7.641927e+03	3.742975e+03	0	1.162217e-03
4.900000e+08	6.741803e+13	0.000000e+00	7.581702e-01	8.514202e+14	1.152171e+15	8.313172e+13	1.035601e+04	7.620903e+03	3.732678e+03	0	1.155654e-03
5.000000e+08	6.629349e+13	0.000000e+00	7.581702e-01	8.384163e+14	1.136294e+15	8.271511e+13	1.031862e+04	7.600103e+03	3.722490e+03	0	1.149192e-03
5.100000e+08	6.519829e+13	0.000000e+00	7.581702e-01	8.257482e+14	1.120743e+15	8.230147e+13	1.028180e+04	7.579531e+03	3.712414e+03	0	1.142829e-03
5.200000e+08	6.413125e+13	0.000000e+00	7.581702e-01	8.134022e+14	1.105514e+15	8.189078e+13	1.024553e+04	7.559187e+03	3.702450e+03	0	1.136560e-03
5.300000e+08	6.309123e+13	0.000000e+00	7.581702e-01	8.013656e+14	1.090602e+15	8.148302e+13	1.020979e+04	7.539073e+03	3.692598e+03	0	1.130383e-03
5.400000e+08	6.207720e+13	0.000000e+00	7.581702e-01	7.896265e+14	1.076001e+15	8.107816e+13	1.017459e+04	7.519187e+03	3.682858e+03	0	1.124294e-03
5.500000e+08	6.108818e+13	0.000000e+00	7.581702e-01	7.781737e+14	1.061705e+15	8.067619e+13	1.013989e+04	7.499530e+03	3.673230e+03	0	1.118291e-03
5.600000e+08	6.012324e+13	0.000000e+00	7.581702e-01	7.669968e+14	1.047707e+15	8.027707e+13	1.010570e+04	7.480100e+03	3.663713e+03	0	1.112372e-03
5.700000e+08	5.918151e+13	0.000000e+00	7.581702e-01	7.560857e+14	1.034001e+15	7.988079e+13	1.007199e+04	7.460896e+03	3.654307e+03	0	1.106533e-03
5.800000e+08	5.826217e+13	0.000000e+00	7.581702e-01	7.454312e+14	1.020580e+15	7.948731e+13	1.003876e+04	7.441915e+03	3.645010e+03	0	1.100774e-03
5.900000e+08	5.736444e+13	0.000000e+00	7.581702e-01	7.350244e+14	1.007438e+15	7.909663e+13	1.000600e+04	7.423156e+03	3.635822e+03	0	1.095091e-03
6.000000e+08	5.648759e+13	0.000000e+00	7.581702e-01	7.248568e+14	9.945679e+14	7.870872e+13	9.973689e+03	7.404615e+03	3.626741e+03	0	1.089482e-03
6.100000e+08	5.563091e+13	0.000000e+00	7.581702e-01	7.149206e+14	9.819635e+14	7.832354e+13	9.941823e+03	7.386291e+03	3.617766e+03	0	1.083947e-03
6.200000e+08	5.479374e+13	0.000000e+00	7.581702e-01	7.052080e+14	9.696180e+14	7.794109e+13	9.910392e+03	7.368180e+03	3.608895e+03	0	1.078482e-03
6.300000e+08	5.397544e+13	0.000000e+00	7.581702e-01	6.957118e+14	9.575255e+14	7.756134e+13	9.879385e+03	7.350279e+03	3.600128e+03	0	1.073086e-03
6.400000e+08	5.317542e+13	0.000000e+00	7.581702e-01	6.864253e+14	9.456788e+14	7.718427e+13	9.848793e+03	7.332586e+03	3.591462e+03	0	1.067758e-03
6.500000e+08	5.239309e+13	0.000000e+00	7.581702e-01	6.773417e+14	9.340720e+14	7.680985e+13	9.818607e+03	7.315098e+03	3.582896e+03	0	1.062496e-03
6.600000e+08	5.162790e+13	0.000000e+00	7.581702e-01	6.684548e+14	9.226993e+14	7.643807e+13	9.788818e+03	7.297811e+03	3.574429e+03	0	1.057298e-03
6.700000e+08	5.087932e+13	0.000000e+00	7.581702e-01	6.597586e+14	9.115545e+14	7.606890e+13	9.759418e+03	7.280722e+03	3.566059e+03	0	1.052163e-03
6.800000e+08	5.014685e+13	0.000000e+00	7.581702e-01	6.512473e+14	9.006314e+14	7.570232e+13	9.730398e+03	7.263828e+03	3.557784e+03	0	1.047089e-03
6.900000e+08	4.943001e+13	0.000000e+00	7.581702e-01	6.429153e+14	8.899248e+14	7.533832e+13	9.701750e+03	7.247127e+03	3.549604e+03	0	1.042076e-03
7.000000e+08	4.872833e+13	0.000000e+00	7.581702e-01	6.347575e+14	8.794288e+14	7.497687e+13	9.673467e+03	7.230614e+03	3.541516e+03	0	1.037122e-03
7.100000e+08	4.804136e+13	0.000000e+00	7.581702e-01	6.267686e+14	8.691380e+14	7.461795e+13	9.645540e+03	7.214287e+03	3.533519e+03	0	1.032225e-03
7.200000e+08	4.736868e+13	0.000000e+00	7.581702e-01	6.189438e+14	8.590474e+14	7.426153e+13	9.617963e+03	7.198142e+03	3.525612e+03	0	1.027384e-03
7.300000e+08	4.670988e+13	0.000000e+00	7.581702e-01	6.112785e+14	8.491517e+14	7.390761e+13	9.590728e+03	7.182178e+03	3.517792e+03	0	1.022599e-03
7.400000e+08	4.606456e+13	0.000000e+00	7.581702e-01	6.037681e+14	8.394458e+14	7.355616e+13	9.563829e+03	7.166389e+03	3.510059e+03	0	1.017868e-03
7.500000e+08	4.543234e+13	0.000000e+00	7.581702e-01	5.964082e+14	8.299248e+14	7.320716e+13	9.537258e+03	7.150775e+03	3.502411e+03	0	1.013190e-03
7.600000e+08	4.481286e+13	0.000000e+00	7.581702e-01	5.891947e+14	8.205841e+14	7.286059e+13	9.511010e+03	7.135331e+03	3.494847e+03	0	1.008564e-03
7.700000e+08	4.420576e+13	0.000000e+00	7.581702e-01	5.821235e+14	8.114193e+14	7.251643e+13	9.485077e+03	7.120055e+03	3.487365e+03	0	1.003989e-03
7.800000e+08	4.361070e+13	0.000000e+00	7.581702e-01	5.751908e+14	8.024257e+14	7.217467e+13	9.459453e+03	7.104944e+03	3.479964e+03	0	9.994633e-04
7.900000e+08	4.302736e+13	0.000000e+00	7.581702e-01	5.683928e+14	7.935991e+14	7.183528e+13	9.434134e+03	7.089995e+03	3.472642e+03	0	9.949870e-04
8.000000e+08	4.245542e+13	0.000000e+00	7.581702e-01	5.617259e+14	7.849350e+14	7.149824e+13	9.409111e+03	7.075206e+03	3.465398e+03	0	9.905587e-04
8.100000e+08	4.189457e+13	0.000000e+00	7.581702e-01	5.551866e+14	7.764299e+14	7.116353e+13	9.384381e+03	7.060573e+03	3.458231e+03	0	9.861775e-04
8.200000e+08	4.134452e+13	0.000000e+00	7.581702e-01	5.487715e+14	7.680794e+14	7.083115e+13	9.359937e+03	7.046094e+03	3.451139e+03	0	9.818425e-04
8.300000e+08	4.080499e+13	0.000000e+00	7.581702e-01	5.424774e+14	7.598797e+14	7.050106e+13	9.335775e+03	7.031767e+03	3.444122e+03	0	9.775528e-04
8.400000e+08	4.027570e+13	0.000000e+00	7.581702e-01	5.363012e+14	7.518273e+14	7.017325e+13	9.311887e+03	7.017589e+03	3.437178e+03	0	9.733077e-04
8.500000e+08	3.975638e+13	0.000000e+00	7.581702e-01	5.302398e+14	7.439184e+14	6.984770e+13	9.288271e+03	7.003557e+03	3.430305e+03	0	9.691063e-04
8.600000e+08	3.924678e+13	0.000000e+00	7.581702e-01	5.242903e+14	7.361497e+14	6.952440e+13	9.264920e+03	6.989669e+03	3.423503e+03	0	9.649478e-04
8.700000e+08	3.874666e+13	0.000000e+00	7.581702e-01	5.184498e+14	7.285175e+14	6.920332e+13	9.241829e+03	6.975923e+03	3.416770e+03	0	9.608315e-04
8.800000e+08	3.825576e+13	0.000000e+00	7.581702e-01	5.127156e+14	7.210187e+14	6.888445e+13	9.218994e+03	6.962316e+03	3.410105e+03	0	9.567565e-04
8.900000e+08	3.777386e+13	0.000000e+00	7.581702e-01	5.070850e+14	7.136500e+14	6.856778e+13	9.196411e+03	6.948846e+03	3.403507e+03	0	9.527222e-04
9.000000e+08	3.730074e+13	0.000000e+00	7.581702e-01	5.015555e+14	7.064085e+14	6.825327e+13	9.174075e+03	6.935510e+03	3.396976e+03	0	9.487278e-04
9.100000e+08	3.683617e+13	0.000000e+00	7.581702e-01	4.961246e+14	6.992910e+14	6.794092e+13	9.151981e+03	6.922307e+03	3.390509e+03	0	9.447727e-04
9.200000e+08	3.637995e+13	0.000000e+00	7.581702e-01	4.907898e+14	6.922947e+14	6.763071e+13	9.130124e+03	6.909234e+03	3.384106e+03	0	9.408561e-04
9.300000e+08	3.593187e+13	0.000000e+00	7.581702e-01	4.855488e+14	6.854165e+14	6.732263e+13	9.108502e+03	6.896289e+03	3.377766e+03	0	9.369774e-04
9.400000e+08	3.549174e+13	0.000000e+00	7.581702e-01	4.803994e+14	6.786539e+14	6.701664e+13	9.087110e+03	6.883471e+03	3.371487e+03	0	9.331359e-04
9.500000e+08	3.505936e+13	0.000000e+00	7.581702e-01	4.753394e+14	6.720040e+14	6.671275e+13	9.065943e+03	6.870776e+03	3.365269e+03	0	9.293311e-04
9.600000e+08	3.463454e+13	0.000000e+00	7.581702e-01	4.703666e+14	6.654646e+14	6.641093e+13	9.044998e+03	6.858204e+03	3.359112e+03	0	9.255622e-04
9.700000e+08	3.421711e+13	0.000000e+00	7.581702e-01	4.654790e+14	6.590328e+14	6.611116e+13	9.024271e+03	6.845751e+03	3.353012e+03	0	9.218288e-04
9.800000e+08	3.380689e+13	0.000000e+00	7.581702e-01	4.606745e+14	6.527061e+14	6.581344e+13	9.003759e+03	6.833417e+03	3.346971e+03	0	9.181301e-04
9.900000e+08	3.340372e+13	0.000000e+00	7.581702e-01	4.559513e+14	6.464824e+14	6.551774e+13	8.983457e+03	6.821199e+03	3.340987e+03	0	9.144657e-04
1.000000e+09	3.300742e+13	0.000000e+00	7.581702e-01	4.513074e+14	6.403592e+14	6.522404e+13	8.963362e+03	6.809096e+03	3.335059e+03	0	9.108349e-04
1.010000e+09	3.261784e+13	0.000000e+00	7.581702e-01	4.467410e+14	6.343344e+14	6.493234e+13	8.943471e+03	6.797105e+03	3.329186e+03	0	9.072373e-04
1.020000e+09	3.223482e+13	0.000000e+00	7.581702e-01	4.422504e+14	6.284056e+14	6.464261e+13	8.923781e+03	6.785225e+03	3.323367e+03	0	9.036722e-04
1.030000e+09	3.185822e+13	0.000000e+00	7.581702e-01	4.378338e+14	6.225708e+14	6.435484e+13	8.904287e+03	6.773455e+03	3.317602e+03	0	9.001392e-04
1.040000e+09	3.148789e+13	0.000000e+00	7.581702e-01	4.334895e+14	6.168278e+14	6.406902e+13	8.884987e+03	6.761792e+03	3.311890e+03	0	8.966377e-04
1.050000e+09	3.112368e+13	0.000000e+00	7.581702e-01	4.292159e+14	6.111748e+14	6.378513e+13	8.865878e+03	6.750235e+03	3.306229e+03	0	8.931672e-04
1.060000e+09	3.076546e+13	0.000000e+00	7.581702e-01	4.250115e+14	6.056098e+14	6.350315e+13	8.846956e+03	6.738782e+03	3.300620e+03	0	8.897273e-04
1.070000e+09	3.041309e+13	0.000000e+00	7.581702e-01	4.208747e+14	6.001307e+14	6.322308e+13	8.828219e+03	6.727432e+03	3.295060e+03	0	8.863175e-04
1.080000e+09	3.006644e+13	0.000000e+00	7.581702e-01	4.168040e+14	5.947359e+14	6.294489e+13	8.809663e+03	6.716184e+03	3.289551e+03	0	8.829373e-04
1.090000e+09	2.972540e+13	0.000000e+00	7.581702e-01	4.127980e+14	5.894235e+14	6.266856e+13	8.791286e+03	6.705034e+03	3.284090e+03	0	8.795861e-04
1.100000e+09	2.938983e+13	0.000000e+00	7.581702e-01	4.088552e+14	5.841916e+14	6.239410e+13	8.773085e+03	6.693984e+03	3.278677e+03	0	8.762637e-04
1.110000e+09	2.905961e+13	0.000000e+00	7.581702e-01	4.049743e+14	5.790388e+14	6.212147e+13	8.755057e+03	6.683029e+03	3.273312e+03	0	8.729695e-04
1.120000e+09	2.873463e+13	0.000000e+00	7.581702e-01	4.011539e+14	5.739632e+14	6.185067e+13	8.737199e+03	6.672170e+03	3.267993e+03	0	8.697031e-04
1.130000e+09	2.841478e+13	0.000000e+00	7.581702e-01	3.973928e+14	5.689633e+14	6.158168e+13	8.719509e+03	6.661405e+03	3.262721e+03	0	8.664641e-04
1.140000e+09	2.809995e+13	0.000000e+00	7.581702e-01	3.936897e+14	5.640375e+14	6.131449e+13	8.701984e+03	6.650733e+03	3.257494e+03	0	8.632521e-04
1.150000e+09	2.779002e+13	0.000000e+00	7.581702e-01	3.900434e+14	5.591842e+14	6.104909e+13	8.684622e+03	6.640152e+03	3.252311e+03	0	8.600666e-04
1.160000e+09	2.748490e+13	0.000000e+00	7.581702e-01	3.864526e+14	5.544019e+14	6.078545e+13	8.667420e+03	6.629660e+03	3.247172e+03	0	8.569074e-04
1.170000e+09	2.718448e+13	0.000000e+00	7.581702e-01	3.829162e+14	5.496893e+14	6.052357e+13	8.650375e+03	6.619257e+03	3.242077e+03	0	8.537738e-04
1.180000e+09	2.688867e+13	0.000000e+00	7.581702e-01	3.794331e+14	5.450448e+14	6.026344e+13	8.633486e+03	6.608942e+03	3.237025e+03	0	8.506657e-04
1.190000e+09	2.659737e+13	0.000000e+00	7.581702e-01	3.760022e+14	5.404674e+14	6.000503e+13	8.616750e+03	6.598713e+03	3.232014e+03	0	8.475826e-04
1.200000e+09	2.631048e+13	0.000000e+00	7.581702e-01	3.726224e+14	5.359553e+14	5.974834e+13	8.600164e+03	6.588568e+03	3.227046e+03	0	8.445242e-04
1.210000e+09	2.602792e+13	0.000000e+00	7.581702e-01	3.692926e+14	5.315072e+14	5.949335e+13	8.583727e+03	6.578507e+03	3.222118e+03	0	8.414900e-04
1.220000e+09	2.574960e+13	0.000000e+00	7.581702e-01	3.660118e+14	5.271222e+14	5.924005e+13	8.567436e+03	6.568529e+03	3.217230e+03	0	8.384798e-04
1.230000e+09	2.547542e+13	0.000000e+00	7.581702e-01	3.627791e+14	5.227989e+14	5.898843e+13	8.551290e+03	6.558632e+03	3.212383e+03	0	8.354932e-04
1.240000e+09	2.520531e+13	0.000000e+00	7.581702e-01	3.595935e+14	5.185359e+14	5.873847e+13	8.535285e+03	6.548815e+03	3.207575e+03	0	8.325299e-04
1.250000e+09	2.493919e+13	0.000000e+00	7.581702e-01	3.564540e+14	5.143323e+14	5.849015e+13	8.519420e+03	6.539078e+03	3.202805e+03	0	8.295895e-04
1.260000e+09	2.467696e+13	0.000000e+00	7.581702e-01	3.533597e+14	5.101867e+14	5.824348e+13	8.503693e+03	6.529418e+03	3.198074e+03	0	8.266717e-04
1.270000e+09	2.441857e+13	0.000000e+00	7.581702e-01	3.503098e+14	5.060982e+14	5.799843e+13	8.488102e+03	6.519836e+03	3.193381e+03	0	8.237761e-04
1.280000e+09	2.416392e+13	0.000000e+00	7.581702e-01	3.473033e+14	5.020656e+14	5.775500e+13	8.472645e+03	6.510329e+03	3.188724e+03	0	8.209026e-04
1.290000e+09	2.391295e+13	0.000000e+00	7.581702e-01	3.443394e+14	4.980878e+14	5.751316e+13	8.457321e+03	6.500897e+03	3.184105e+03	0	8.180507e-04
1.300000e+09	2.366559e+13	0.000000e+00	7.581702e-01	3.414172e+14	4.941637e+14	5.727291e+13	8.442126e+03	6.491540e+03	3.179522e+03	0	8.152201e-04
1.310000e+09	2.342175e+13	0.000000e+00	7.581702e-01	3.385360e+14	4.902924e+14	5.703423e+13	8.427060e+03	6.482255e+03	3.174974e+03	0	8.124107e-04
1.320000e+09	2.318138e+13	0.000000e+00	7.581702e-01	3.356950e+14	4.864730e+14	5.679712e+13	8.412121e+03	6.473042e+03	3.170462e+03	0	8.096219e-04
1.330000e+09	2.294441e+13	0.000000e+00	7.581702e-01	3.328933e+14	4.827043e+14	5.656156e+13	8.397306e+03	6.463900e+03	3.165984e+03	0	8.068537e-04
1.340000e+09	2.271078e+13	0.000000e+00	7.581702e-01	3.301304e+14	4.789854e+14	5.632754e+13	8.382615e+03	6.454829e+03	3.161541e+03	0	8.041057e-04
1.350000e+09	2.248041e+13	0.000000e+00	7.581702e-01	3.274053e+14	4.753156e+14	5.609505e+13	8.368045e+03	6.445826e+03	3.157131e+03	0	8.013776e-04
1.360000e+09	2.225324e+13	0.000000e+00	7.581702e-01	3.247174e+14	4.716937e+14	5.586407e+13	8.353595e+03	6.436892e+03	3.152756e+03	0	7.986692e-04
