#t		Qconv[W]	Ri[Rp]		R*[Rp]		Qc[W]		Qm[W]		Qr[W]		Tcmb[K]		Tl[K]		Tup[K]		RiFlag		Bs[T]
0.000000e+00	7.512085e+14	0.000000e+00	7.549672e-01	6.973507e+15	7.694696e+13	2.156423e+14	1.904915e+04	5.775066e+03	2.642618e+03	0	2.525049e-03
1.000000e+07	7.455109e+14	0.000000e+00	7.549672e-01	6.921904e+15	1.170253e+14	2.144475e+14	1.893415e+04	6.136096e+03	2.807822e+03	0	2.518649e-03
2.000000e+07	7.372232e+14	0.000000e+00	7.549672e-01	6.849164e+15	1.704909e+14	2.132616e+14	1.881998e+04	6.492067e+03	2.970711e+03	0	2.509282e-03
3.000000e+07	7.264897e+14	0.000000e+00	7.549672e-01	6.756482e+15	2.391476e+14	2.120846e+14	1.870701e+04	6.841176e+03	3.130460e+03	0	2.497044e-03
4.000000e+07	7.135083e+14	0.000000e+00	7.549672e-01	6.645489e+15	3.243274e+14	2.109163e+14	1.859556e+04	7.181598e+03	3.286235e+03	0	2.482082e-03
5.000000e+07	6.985244e+14	0.000000e+00	7.549672e-01	6.518207e+15	4.267358e+14	2.097568e+14	1.848594e+04	7.511541e+03	3.437213e+03	0	2.464584e-03
6.000000e+07	6.818226e+14	0.000000e+00	7.549672e-01	6.376971e+15	5.463436e+14	2.086059e+14	1.837840e+04	7.829297e+03	3.582616e+03	0	2.444782e-03
7.000000e+07	6.637154e+14	0.000000e+00	7.549672e-01	6.224349e+15	6.823384e+14	2.074636e+14	1.827318e+04	8.133298e+03	3.721724e+03	0	2.422946e-03
8.000000e+07	6.445306e+14	0.000000e+00	7.549672e-01	6.063026e+15	8.331453e+14	2.063298e+14	1.817047e+04	8.422168e+03	3.853908e+03	0	2.399372e-03
9.000000e+07	6.245977e+14	0.000000e+00	7.549672e-01	5.895705e+15	9.965137e+14	2.052044e+14	1.807041e+04	8.694766e+03	3.978646e+03	0	2.374378e-03
1.000000e+08	6.042353e+14	0.000000e+00	7.549672e-01	5.724991e+15	1.169659e+15	2.040874e+14	1.797311e+04	8.950216e+03	4.095538e+03	0	2.348290e-03
1.100000e+08	5.837394e+14	0.000000e+00	7.549672e-01	5.553309e+15	1.349444e+15	2.029787e+14	1.787861e+04	9.187926e+03	4.204312e+03	0	2.321433e-03
1.200000e+08	5.633749e+14	0.000000e+00	7.549672e-01	5.382825e+15	1.532572e+15	2.018782e+14	1.778693e+04	9.407593e+03	4.304830e+03	0	2.294117e-03
1.300000e+08	5.433694e+14	0.000000e+00	7.549672e-01	5.215398e+15	1.715781e+15	2.007858e+14	1.769805e+04	9.609192e+03	4.397080e+03	0	2.266634e-03
1.400000e+08	5.239097e+14	0.000000e+00	7.549672e-01	5.052553e+15	1.896009e+15	1.997015e+14	1.761193e+04	9.792952e+03	4.481167e+03	0	2.239246e-03
1.500000e+08	5.051418e+14	0.000000e+00	7.549672e-01	4.895482e+15	2.070528e+15	1.986253e+14	1.752849e+04	9.959330e+03	4.557300e+03	0	2.212182e-03
1.600000e+08	4.871726e+14	0.000000e+00	7.549672e-01	4.745051e+15	2.237029e+15	1.975569e+14	1.744763e+04	1.010897e+04	4.625774e+03	0	2.185633e-03
1.700000e+08	4.700727e+14	0.000000e+00	7.549672e-01	4.601836e+15	2.393677e+15	1.964965e+14	1.736925e+04	1.024267e+04	4.686953e+03	0	2.159756e-03
1.800000e+08	4.538819e+14	0.000000e+00	7.549672e-01	4.466156e+15	2.539109e+15	1.954439e+14	1.729323e+04	1.036133e+04	4.741251e+03	0	2.134670e-03
1.900000e+08	4.386134e+14	0.000000e+00	7.549672e-01	4.338112e+15	2.672425e+15	1.943990e+14	1.721944e+04	1.046593e+04	4.789117e+03	0	2.110460e-03
2.000000e+08	4.242593e+14	0.000000e+00	7.549672e-01	4.217636e+15	2.793138e+15	1.933619e+14	1.714776e+04	1.055750e+04	4.831016e+03	0	2.087181e-03
2.100000e+08	4.107953e+14	0.000000e+00	7.549672e-01	4.104524e+15	2.901117e+15	1.923323e+14	1.707806e+04	1.063706e+04	4.867421e+03	0	2.064864e-03
2.200000e+08	3.981853e+14	0.000000e+00	7.549672e-01	3.998474e+15	2.996530e+15	1.913103e+14	1.701022e+04	1.070563e+04	4.898799e+03	0	2.043516e-03
2.300000e+08	3.863849e+14	0.000000e+00	7.549672e-01	3.899118e+15	3.079775e+15	1.902958e+14	1.694413e+04	1.076421e+04	4.925603e+03	0	2.023127e-03
2.400000e+08	3.753445e+14	0.000000e+00	7.549672e-01	3.806047e+15	3.151424e+15	1.892888e+14	1.687968e+04	1.081373e+04	4.948266e+03	0	2.003671e-03
2.500000e+08	3.650122e+14	0.000000e+00	7.549672e-01	3.718832e+15	3.212170e+15	1.882891e+14	1.681675e+04	1.085510e+04	4.967196e+03	0	1.985114e-03
2.600000e+08	3.553354e+14	0.000000e+00	7.549672e-01	3.637038e+15	3.262780e+15	1.872968e+14	1.675527e+04	1.088915e+04	4.982776e+03	0	1.967415e-03
2.700000e+08	3.462624e+14	0.000000e+00	7.549672e-01	3.560239e+15	3.304061e+15	1.863117e+14	1.669513e+04	1.091664e+04	4.995358e+03	0	1.950525e-03
2.800000e+08	3.377434e+14	0.000000e+00	7.549672e-01	3.488024e+15	3.336831e+15	1.853338e+14	1.663626e+04	1.093830e+04	5.005267e+03	0	1.934396e-03
2.900000e+08	3.297310e+14	0.000000e+00	7.549672e-01	3.420003e+15	3.361891e+15	1.843630e+14	1.657858e+04	1.095476e+04	5.012798e+03	0	1.918977e-03
3.000000e+08	3.221812e+14	0.000000e+00	7.549672e-01	3.355812e+15	3.380018e+15	1.833993e+14	1.652201e+04	1.096661e+04	5.018221e+03	0	1.904217e-03
3.100000e+08	3.150529e+14	0.000000e+00	7.549672e-01	3.295113e+15	3.391941e+15	1.824426e+14	1.646651e+04	1.097438e+04	5.021777e+03	0	1.890069e-03
3.200000e+08	3.083085e+14	0.000000e+00	7.549672e-01	3.237597e+15	3.398349e+15	1.814929e+14	1.641200e+04	1.097855e+04	5.023685e+03	0	1.876484e-03
3.300000e+08	3.019135e+14	0.000000e+00	7.549672e-01	3.182978e+15	3.399875e+15	1.805501e+14	1.635844e+04	1.097954e+04	5.024139e+03	0	1.863419e-03
3.400000e+08	2.958368e+14	0.000000e+00	7.549672e-01	3.131001e+15	3.397102e+15	1.796141e+14	1.630578e+04	1.097774e+04	5.023314e+03	0	1.850833e-03
3.500000e+08	2.900501e+14	0.000000e+00	7.549672e-01	3.081431e+15	3.390558e+15	1.786850e+14	1.625398e+04	1.097348e+04	5.021365e+03	0	1.838685e-03
3.600000e+08	2.845279e+14	0.000000e+00	7.549672e-01	3.034059e+15	3.380724e+15	1.777625e+14	1.620300e+04	1.096707e+04	5.018432e+03	0	1.826942e-03
3.700000e+08	2.792471e+14	0.000000e+00	7.549672e-01	2.988695e+15	3.368030e+15	1.768468e+14	1.615279e+04	1.095878e+04	5.014637e+03	0	1.815568e-03
3.800000e+08	2.741874e+14	0.000000e+00	7.549672e-01	2.945171e+15	3.352862e+15	1.759377e+14	1.610334e+04	1.094884e+04	5.010089e+03	0	1.804536e-03
3.900000e+08	2.693301e+14	0.000000e+00	7.549672e-01	2.903333e+15	3.335563e+15	1.750351e+14	1.605460e+04	1.093746e+04	5.004884e+03	0	1.793816e-03
4.000000e+08	2.646587e+14	0.000000e+00	7.549672e-01	2.863045e+15	3.316440e+15	1.741391e+14	1.600655e+04	1.092484e+04	4.999109e+03	0	1.783385e-03
4.100000e+08	2.601584e+14	0.000000e+00	7.549672e-01	2.824185e+15	3.295765e+15	1.732495e+14	1.595916e+04	1.091114e+04	4.992838e+03	0	1.773219e-03
4.200000e+08	2.558161e+14	0.000000e+00	7.549672e-01	2.786644e+15	3.273776e+15	1.723663e+14	1.591241e+04	1.089650e+04	4.986138e+03	0	1.763298e-03
4.300000e+08	2.516196e+14	0.000000e+00	7.549672e-01	2.750323e+15	3.250687e+15	1.714895e+14	1.586629e+04	1.088105e+04	4.979069e+03	0	1.753603e-03
4.400000e+08	2.475586e+14	0.000000e+00	7.549672e-01	2.715134e+15	3.226684e+15	1.706191e+14	1.582076e+04	1.086490e+04	4.971682e+03	0	1.744117e-03
4.500000e+08	2.436233e+14	0.000000e+00	7.549672e-01	2.680999e+15	3.201928e+15	1.697548e+14	1.577581e+04	1.084816e+04	4.964022e+03	0	1.734826e-03
4.600000e+08	2.398052e+14	0.000000e+00	7.549672e-01	2.647847e+15	3.176566e+15	1.688968e+14	1.573142e+04	1.083092e+04	4.956132e+03	0	1.725716e-03
4.700000e+08	2.360967e+14	0.000000e+00	7.549672e-01	2.615615e+15	3.150723e+15	1.680449e+14	1.568758e+04	1.081325e+04	4.948046e+03	0	1.716774e-03
4.800000e+08	2.324907e+14	0.000000e+00	7.549672e-01	2.584244e+15	3.124508e+15	1.671991e+14	1.564428e+04	1.079522e+04	4.939795e+03	0	1.707988e-03
4.900000e+08	2.289811e+14	0.000000e+00	7.549672e-01	2.553683e+15	3.098019e+15	1.663594e+14	1.560148e+04	1.077689e+04	4.931408e+03	0	1.699350e-03
5.000000e+08	2.255621e+14	0.000000e+00	7.549672e-01	2.523885e+15	3.071337e+15	1.655257e+14	1.555920e+04	1.075832e+04	4.922910e+03	0	1.690850e-03
5.100000e+08	2.222288e+14	0.000000e+00	7.549672e-01	2.494809e+15	3.044537e+15	1.646979e+14	1.551740e+04	1.073955e+04	4.914320e+03	0	1.682480e-03
5.200000e+08	2.189763e+14	0.000000e+00	7.549672e-01	2.466415e+15	3.017681e+15	1.638761e+14	1.547609e+04	1.072062e+04	4.905659e+03	0	1.674231e-03
5.300000e+08	2.158007e+14	0.000000e+00	7.549672e-01	2.438669e+15	2.990824e+15	1.630601e+14	1.543524e+04	1.070157e+04	4.896943e+03	0	1.666098e-03
5.400000e+08	2.126979e+14	0.000000e+00	7.549672e-01	2.411539e+15	2.964014e+15	1.622499e+14	1.539485e+04	1.068244e+04	4.888187e+03	0	1.658075e-03
5.500000e+08	2.096646e+14	0.000000e+00	7.549672e-01	2.384997e+15	2.937294e+15	1.614455e+14	1.535490e+04	1.066324e+04	4.879403e+03	0	1.650155e-03
5.600000e+08	2.066974e+14	0.000000e+00	7.549672e-01	2.359014e+15	2.910694e+15	1.606468e+14	1.531540e+04	1.064401e+04	4.870604e+03	0	1.642334e-03
5.700000e+08	2.037936e+14	0.000000e+00	7.549672e-01	2.333568e+15	2.884249e+15	1.598538e+14	1.527632e+04	1.062477e+04	4.861798e+03	0	1.634607e-03
5.800000e+08	2.009503e+14	0.000000e+00	7.549672e-01	2.308635e+15	2.857981e+15	1.590664e+14	1.523766e+04	1.060553e+04	4.852995e+03	0	1.626969e-03
5.900000e+08	1.981652e+14	0.000000e+00	7.549672e-01	2.284195e+15	2.831916e+15	1.582846e+14	1.519942e+04	1.058632e+04	4.844203e+03	0	1.619417e-03
6.000000e+08	1.954358e+14	0.000000e+00	7.549672e-01	2.260229e+15	2.806068e+15	1.575083e+14	1.516158e+04	1.056714e+04	4.835428e+03	0	1.611948e-03
6.100000e+08	1.927601e+14	0.000000e+00	7.549672e-01	2.236719e+15	2.780455e+15	1.567375e+14	1.512413e+04	1.054801e+04	4.826675e+03	0	1.604558e-03
6.200000e+08	1.901361e+14	0.000000e+00	7.549672e-01	2.213649e+15	2.755091e+15	1.559721e+14	1.508707e+04	1.052895e+04	4.817951e+03	0	1.597244e-03
6.300000e+08	1.875619e+14	0.000000e+00	7.549672e-01	2.191003e+15	2.729986e+15	1.552122e+14	1.505039e+04	1.050995e+04	4.809260e+03	0	1.590003e-03
6.400000e+08	1.850359e+14	0.000000e+00	7.549672e-01	2.168766e+15	2.705146e+15	1.544576e+14	1.501409e+04	1.049104e+04	4.800605e+03	0	1.582833e-03
6.500000e+08	1.825565e+14	0.000000e+00	7.549672e-01	2.146926e+15	2.680581e+15	1.537084e+14	1.497815e+04	1.047221e+04	4.791990e+03	0	1.575731e-03
6.600000e+08	1.801221e+14	0.000000e+00	7.549672e-01	2.125471e+15	2.656297e+15	1.529644e+14	1.494257e+04	1.045348e+04	4.783417e+03	0	1.568696e-03
6.700000e+08	1.777313e+14	0.000000e+00	7.549672e-01	2.104387e+15	2.632294e+15	1.522256e+14	1.490735e+04	1.043484e+04	4.774890e+03	0	1.561724e-03
6.800000e+08	1.753828e+14	0.000000e+00	7.549672e-01	2.083664e+15	2.608579e+15	1.514920e+14	1.487247e+04	1.041631e+04	4.766410e+03	0	1.554815e-03
6.900000e+08	1.730753e+14	0.000000e+00	7.549672e-01	2.063292e+15	2.585152e+15	1.507636e+14	1.483794e+04	1.039789e+04	4.757980e+03	0	1.547966e-03
7.000000e+08	1.708077e+14	0.000000e+00	7.549672e-01	2.043260e+15	2.562015e+15	1.500403e+14	1.480374e+04	1.037958e+04	4.749600e+03	0	1.541176e-03
7.100000e+08	1.685788e+14	0.000000e+00	7.549672e-01	2.023559e+15	2.539169e+15	1.493220e+14	1.476988e+04	1.036138e+04	4.741273e+03	0	1.534443e-03
7.200000e+08	1.663876e+14	0.000000e+00	7.549672e-01	2.004180e+15	2.516611e+15	1.486088e+14	1.473634e+04	1.034329e+04	4.732998e+03	0	1.527766e-03
7.300000e+08	1.642331e+14	0.000000e+00	7.549672e-01	1.985115e+15	2.494342e+15	1.479005e+14	1.470311e+04	1.032533e+04	4.724778e+03	0	1.521143e-03
7.400000e+08	1.621142e+14	0.000000e+00	7.549672e-01	1.966356e+15	2.472361e+15	1.471972e+14	1.467021e+04	1.030749e+04	4.716613e+03	0	1.514573e-03
7.500000e+08	1.600301e+14	0.000000e+00	7.549672e-01	1.947894e+15	2.450666e+15	1.464988e+14	1.463761e+04	1.028976e+04	4.708503e+03	0	1.508054e-03
7.600000e+08	1.579799e+14	0.000000e+00	7.549672e-01	1.929722e+15	2.429253e+15	1.458053e+14	1.460532e+04	1.027216e+04	4.700448e+03	0	1.501586e-03
7.700000e+08	1.559627e+14	0.000000e+00	7.549672e-01	1.911834e+15	2.408123e+15	1.451166e+14	1.457333e+04	1.025468e+04	4.692450e+03	0	1.495168e-03
7.800000e+08	1.539778e+14	0.000000e+00	7.549672e-01	1.894222e+15	2.387270e+15	1.444326e+14	1.454163e+04	1.023733e+04	4.684508e+03	0	1.488798e-03
7.900000e+08	1.520243e+14	0.000000e+00	7.549672e-01	1.876880e+15	2.366693e+15	1.437535e+14	1.451023e+04	1.022009e+04	4.676622e+03	0	1.482475e-03
8.000000e+08	1.501016e+14	0.000000e+00	7.549672e-01	1.859802e+15	2.346388e+15	1.430790e+14	1.447911e+04	1.020298e+04	4.668792e+03	0	1.476199e-03
8.100000e+08	1.482088e+14	0.000000e+00	7.549672e-01	1.842982e+15	2.326352e+15	1.424092e+14	1.444827e+04	1.018599e+04	4.661019e+03	0	1.469968e-03
8.200000e+08	1.463454e+14	0.000000e+00	7.549672e-01	1.826413e+15	2.306582e+15	1.417441e+14	1.441771e+04	1.016913e+04	4.653303e+03	0	1.463781e-03
8.300000e+08	1.445106e+14	0.000000e+00	7.549672e-01	1.810091e+15	2.287074e+15	1.410835e+14	1.438743e+04	1.015239e+04	4.645642e+03	0	1.457638e-03
8.400000e+08	1.427039e+14	0.000000e+00	7.549672e-01	1.794009e+15	2.267824e+15	1.404275e+14	1.435741e+04	1.013577e+04	4.638037e+03	0	1.451538e-03
8.500000e+08	1.409246e+14	0.000000e+00	7.549672e-01	1.778163e+15	2.248831e+15	1.397760e+14	1.432766e+04	1.011927e+04	4.630487e+03	0	1.445480e-03
8.600000e+08	1.391720e+14	0.000000e+00	7.549672e-01	1.762548e+15	2.230088e+15	1.391291e+14	1.429817e+04	1.010289e+04	4.622993e+03	0	1.439463e-03
8.700000e+08	1.374457e+14	0.000000e+00	7.549672e-01	1.747158e+15	2.211592e+15	1.384865e+14	1.426894e+04	1.008664e+04	4.615554e+03	0	1.433486e-03
8.800000e+08	1.357451e+14	0.000000e+00	7.549672e-01	1.731989e+15	2.193341e+15	1.378484e+14	1.423997e+04	1.007050e+04	4.608169e+03	0	1.427549e-03
8.900000e+08	1.340696e+14	0.000000e+00	7.549672e-01	1.717037e+15	2.175331e+15	1.372147e+14	1.421124e+04	1.005448e+04	4.600838e+03	0	1.421652e-03
9.000000e+08	1.324187e+14	0.000000e+00	7.549672e-01	1.702297e+15	2.157557e+15	1.365853e+14	1.418276e+04	1.003857e+04	4.593561e+03	0	1.415792e-03
9.100000e+08	1.307920e+14	0.000000e+00	7.549672e-01	1.687764e+15	2.140015e+15	1.359603e+14	1.415453e+04	1.002279e+04	4.586337e+03	0	1.409971e-03
9.200000e+08	1.291888e+14	0.000000e+00	7.549672e-01	1.673435e+15	2.122703e+15	1.353395e+14	1.412653e+04	1.000712e+04	4.579167e+03	0	1.404186e-03
9.300000e+08	1.276088e+14	0.000000e+00	7.549672e-01	1.659305e+15	2.105616e+15	1.347230e+14	1.409878e+04	9.991561e+03	4.572048e+03	0	1.398438e-03
9.400000e+08	1.260514e+14	0.000000e+00	7.549672e-01	1.645371e+15	2.088752e+15	1.341106e+14	1.407125e+04	9.976119e+03	4.564982e+03	0	1.392726e-03
9.500000e+08	1.245162e+14	0.000000e+00	7.549672e-01	1.631629e+15	2.072106e+15	1.335025e+14	1.404396e+04	9.960788e+03	4.557967e+03	0	1.387049e-03
9.600000e+08	1.230029e+14	0.000000e+00	7.549672e-01	1.618074e+15	2.055676e+15	1.328985e+14	1.401689e+04	9.945570e+03	4.551003e+03	0	1.381406e-03
9.700000e+08	1.215108e+14	0.000000e+00	7.549672e-01	1.604704e+15	2.039455e+15	1.322986e+14	1.399005e+04	9.930461e+03	4.544089e+03	0	1.375798e-03
9.800000e+08	1.200398e+14	0.000000e+00	7.549672e-01	1.591515e+15	2.023444e+15	1.317028e+14	1.396343e+04	9.915462e+03	4.537226e+03	0	1.370224e-03
9.900000e+08	1.185892e+14	0.000000e+00	7.549672e-01	1.578503e+15	2.007637e+15	1.311111e+14	1.393702e+04	9.900571e+03	4.530412e+03	0	1.364682e-03
1.000000e+09	1.171588e+14	0.000000e+00	7.549672e-01	1.565665e+15	1.992031e+15	1.305234e+14	1.391083e+04	9.885787e+03	4.523647e+03	0	1.359173e-03
1.010000e+09	1.157481e+14	0.000000e+00	7.549672e-01	1.552998e+15	1.976623e+15	1.299396e+14	1.388486e+04	9.871109e+03	4.516930e+03	0	1.353696e-03
1.020000e+09	1.143569e+14	0.000000e+00	7.549672e-01	1.540498e+15	1.961409e+15	1.293598e+14	1.385909e+04	9.856535e+03	4.510262e+03	0	1.348250e-03
1.030000e+09	1.129846e+14	0.000000e+00	7.549672e-01	1.528163e+15	1.946386e+15	1.287840e+14	1.383353e+04	9.842066e+03	4.503641e+03	0	1.342836e-03
1.040000e+09	1.116310e+14	0.000000e+00	7.549672e-01	1.515990e+15	1.931552e+15	1.282120e+14	1.380818e+04	9.827700e+03	4.497067e+03	0	1.337452e-03
1.050000e+09	1.102958e+14	0.000000e+00	7.549672e-01	1.503975e+15	1.916904e+15	1.276439e+14	1.378302e+04	9.813435e+03	4.490539e+03	0	1.332098e-03
1.060000e+09	1.089785e+14	0.000000e+00	7.549672e-01	1.492116e+15	1.902437e+15	1.270796e+14	1.375806e+04	9.799270e+03	4.484058e+03	0	1.326773e-03
1.070000e+09	1.076789e+14	0.000000e+00	7.549672e-01	1.480409e+15	1.888149e+15	1.265191e+14	1.373330e+04	9.785205e+03	4.477622e+03	0	1.321478e-03
1.080000e+09	1.063966e+14	0.000000e+00	7.549672e-01	1.468853e+15	1.874038e+15	1.259624e+14	1.370874e+04	9.771239e+03	4.471231e+03	0	1.316211e-03
1.090000e+09	1.051313e+14	0.000000e+00	7.549672e-01	1.457444e+15	1.860099e+15	1.254095e+14	1.368436e+04	9.757369e+03	4.464884e+03	0	1.310973e-03
1.100000e+09	1.038828e+14	0.000000e+00	7.549672e-01	1.446181e+15	1.846332e+15	1.248602e+14	1.366018e+04	9.743597e+03	4.458582e+03	0	1.305763e-03
1.110000e+09	1.026506e+14	0.000000e+00	7.549672e-01	1.435059e+15	1.832731e+15	1.243146e+14	1.363618e+04	9.729919e+03	4.452323e+03	0	1.300580e-03
1.120000e+09	1.014346e+14	0.000000e+00	7.549672e-01	1.424078e+15	1.819296e+15	1.237727e+14	1.361236e+04	9.716336e+03	4.446108e+03	0	1.295424e-03
1.130000e+09	1.002344e+14	0.000000e+00	7.549672e-01	1.413233e+15	1.806023e+15	1.232344e+14	1.358872e+04	9.702846e+03	4.439935e+03	0	1.290294e-03
1.140000e+09	9.904982e+13	0.000000e+00	7.549672e-01	1.402524e+15	1.792909e+15	1.226998e+14	1.356527e+04	9.689448e+03	4.433804e+03	0	1.285191e-03
1.150000e+09	9.788049e+13	0.000000e+00	7.549672e-01	1.391948e+15	1.779953e+15	1.221686e+14	1.354199e+04	9.676141e+03	4.427715e+03	0	1.280113e-03
1.160000e+09	9.672618e+13	0.000000e+00	7.549672e-01	1.381502e+15	1.767151e+15	1.216411e+14	1.351889e+04	9.662925e+03	4.421667e+03	0	1.275061e-03
1.170000e+09	9.558663e+13	0.000000e+00	7.549672e-01	1.371184e+15	1.754500e+15	1.211170e+14	1.349596e+04	9.649798e+03	4.415660e+03	0	1.270034e-03
1.180000e+09	9.446159e+13	0.000000e+00	7.549672e-01	1.360993e+15	1.742000e+15	1.205964e+14	1.347320e+04	9.636759e+03	4.409694e+03	0	1.265032e-03
1.190000e+09	9.335081e+13	0.000000e+00	7.549672e-01	1.350925e+15	1.729646e+15	1.200793e+14	1.345061e+04	9.623807e+03	4.403767e+03	0	1.260054e-03
1.200000e+09	9.225405e+13	0.000000e+00	7.549672e-01	1.340979e+15	1.717437e+15	1.195656e+14	1.342818e+04	9.610942e+03	4.397880e+03	0	1.255100e-03
1.210000e+09	9.117106e+13	0.000000e+00	7.549672e-01	1.331153e+15	1.705371e+15	1.190554e+14	1.340592e+04	9.598162e+03	4.392033e+03	0	1.250169e-03
1.220000e+09	9.010162e+13	0.000000e+00	7.549672e-01	1.321445e+15	1.693444e+15	1.185485e+14	1.338383e+04	9.585467e+03	4.386223e+03	0	1.245262e-03
1.230000e+09	8.904550e+13	0.000000e+00	7.549672e-01	1.311852e+15	1.681656e+15	1.180449e+14	1.336189e+04	9.572856e+03	4.380452e+03	0	1.240377e-03
1.240000e+09	8.800247e+13	0.000000e+00	7.549672e-01	1.302374e+15	1.670004e+15	1.175447e+14	1.334011e+04	9.560327e+03	4.374719e+03	0	1.235515e-03
1.250000e+09	8.697232e+13	0.000000e+00	7.549672e-01	1.293008e+15	1.658485e+15	1.170478e+14	1.331849e+04	9.547880e+03	4.369024e+03	0	1.230675e-03
1.260000e+09	8.595483e+13	0.000000e+00	7.549672e-01	1.283752e+15	1.647098e+15	1.165542e+14	1.329702e+04	9.535514e+03	4.363365e+03	0	1.225857e-03
1.270000e+09	8.494980e+13	0.000000e+00	7.549672e-01	1.274604e+15	1.635839e+15	1.160638e+14	1.327571e+04	9.523228e+03	4.357743e+03	0	1.221060e-03
1.280000e+09	8.395701e+13	0.000000e+00	7.549672e-01	1.265564e+15	1.624709e+15	1.155767e+14	1.325455e+04	9.511022e+03	4.352158e+03	0	1.216285e-03
1.290000e+09	8.297627e+13	0.000000e+00	7.549672e-01	1.256628e+15	1.613704e+15	1.150927e+14	1.323354e+04	9.498893e+03	4.346608e+03	0	1.211531e-03
1.300000e+09	8.200739e+13	0.000000e+00	7.549672e-01	1.247796e+15	1.602823e+15	1.146119e+14	1.321267e+04	9.486843e+03	4.341094e+03	0	1.206797e-03
1.310000e+09	8.105017e+13	0.000000e+00	7.549672e-01	1.239065e+15	1.592063e+15	1.141343e+14	1.319196e+04	9.474869e+03	4.335615e+03	0	1.202083e-03
1.320000e+09	8.010442e+13	0.000000e+00	7.549672e-01	1.230435e+15	1.581423e+15	1.136598e+14	1.317138e+04	9.462971e+03	4.330170e+03	0	1.197389e-03
1.330000e+09	7.916996e+13	0.000000e+00	7.549672e-01	1.221903e+15	1.570901e+15	1.131884e+14	1.315095e+04	9.451149e+03	4.324760e+03	0	1.192715e-03
1.340000e+09	7.824661e+13	0.000000e+00	7.549672e-01	1.213468e+15	1.560496e+15	1.127201e+14	1.313066e+04	9.439400e+03	4.319385e+03	0	1.188060e-03
1.350000e+09	7.733419e+13	0.000000e+00	7.549672e-01	1.205128e+15	1.550205e+15	1.122548e+14	1.311051e+04	9.427726e+03	4.314042e+03	0	1.183424e-03
1.360000e+09	7.643253e+13	0.000000e+00	7.549672e-01	1.196883e+15	1.540026e+15	1.117926e+14	1.309050e+04	9.416124e+03	4.308733e+03	0	1.178806e-03
