#t		Qconv[W]	Ri[Rp]		R*[Rp]		Qc[W]		Qm[W]		Qr[W]		Tcmb[K]		Tl[K]		Tup[K]		RiFlag		Bs[T]
0.000000e+00	9.478061e+14	0.000000e+00	7.549667e-01	8.739433e+15	7.308320e+13	2.517082e+14	2.105914e+04	6.154895e+03	2.715555e+03	0	2.716384e-03
1.000000e+07	9.448972e+14	0.000000e+00	7.549667e-01	8.709580e+15	1.132341e+14	2.503136e+14	2.094777e+04	6.548549e+03	2.889236e+03	0	2.713602e-03
2.000000e+07	9.385850e+14	0.000000e+00	7.549667e-01	8.653275e+15	1.679072e+14	2.489294e+14	2.083678e+04	6.938734e+03	3.061387e+03	0	2.707546e-03
3.000000e+07	9.289766e+14	0.000000e+00	7.549667e-01	8.571372e+15	2.395326e+14	2.475555e+14	2.072650e+04	7.323583e+03	3.231183e+03	0	2.698275e-03
4.000000e+07	9.162493e+14	0.000000e+00	7.549667e-01	8.465274e+15	3.301551e+14	2.461919e+14	2.061726e+04	7.701167e+03	3.397774e+03	0	2.685896e-03
5.000000e+07	9.006481e+14	0.000000e+00	7.549667e-01	8.336906e+15	4.412324e+14	2.448384e+14	2.050936e+04	8.069542e+03	3.560302e+03	0	2.670564e-03
6.000000e+07	8.824778e+14	0.000000e+00	7.549667e-01	8.188656e+15	5.734651e+14	2.434951e+14	2.040310e+04	8.426801e+03	3.717925e+03	0	2.652483e-03
7.000000e+07	8.620924e+14	0.000000e+00	7.549667e-01	8.023296e+15	7.266815e+14	2.421617e+14	2.029872e+04	8.771129e+03	3.869844e+03	0	2.631899e-03
8.000000e+07	8.398816e+14	0.000000e+00	7.549667e-01	7.843872e+15	8.997918e+14	2.408383e+14	2.019644e+04	9.100862e+03	4.015323e+03	0	2.609100e-03
9.000000e+07	8.162546e+14	0.000000e+00	7.549667e-01	7.653578e+15	1.090821e+15	2.395247e+14	2.009643e+04	9.414539e+03	4.153718e+03	0	2.584401e-03
1.000000e+08	7.916235e+14	0.000000e+00	7.549667e-01	7.455630e+15	1.297012e+15	2.382208e+14	1.999885e+04	9.710947e+03	4.284494e+03	0	2.558139e-03
1.100000e+08	7.663880e+14	0.000000e+00	7.549667e-01	7.253142e+15	1.514996e+15	2.369267e+14	1.990378e+04	9.989147e+03	4.407236e+03	0	2.530662e-03
1.200000e+08	7.409206e+14	0.000000e+00	7.549667e-01	7.049018e+15	1.740998e+15	2.356421e+14	1.981129e+04	1.024850e+04	4.521664e+03	0	2.502314e-03
1.300000e+08	7.155564e+14	0.000000e+00	7.549667e-01	6.845865e+15	1.971067e+15	2.343670e+14	1.972139e+04	1.048867e+04	4.627626e+03	0	2.473428e-03
1.400000e+08	6.905848e+14	0.000000e+00	7.549667e-01	6.645933e+15	2.201293e+15	2.331014e+14	1.963407e+04	1.070960e+04	4.725102e+03	0	2.444314e-03
1.500000e+08	6.662457e+14	0.000000e+00	7.549667e-01	6.451086e+15	2.427999e+15	2.318451e+14	1.954929e+04	1.091151e+04	4.814186e+03	0	2.415254e-03
1.600000e+08	6.427282e+14	0.000000e+00	7.549667e-01	6.262793e+15	2.647895e+15	2.305981e+14	1.946699e+04	1.109486e+04	4.895080e+03	0	2.386495e-03
1.700000e+08	6.201733e+14	0.000000e+00	7.549667e-01	6.082143e+15	2.858187e+15	2.293604e+14	1.938709e+04	1.126030e+04	4.968072e+03	0	2.358245e-03
1.800000e+08	5.986769e+14	0.000000e+00	7.549667e-01	5.909877e+15	3.056628e+15	2.281317e+14	1.930949e+04	1.140864e+04	5.033522e+03	0	2.330677e-03
1.900000e+08	5.782955e+14	0.000000e+00	7.549667e-01	5.746427e+15	3.241535e+15	2.269121e+14	1.923407e+04	1.154083e+04	5.091843e+03	0	2.303923e-03
2.000000e+08	5.590524e+14	0.000000e+00	7.549667e-01	5.591968e+15	3.411765e+15	2.257014e+14	1.916074e+04	1.165787e+04	5.143482e+03	0	2.278079e-03
2.100000e+08	5.409438e+14	0.000000e+00	7.549667e-01	5.446461e+15	3.566672e+15	2.244997e+14	1.908937e+04	1.176083e+04	5.188908e+03	0	2.253212e-03
2.200000e+08	5.239443e+14	0.000000e+00	7.549667e-01	5.309704e+15	3.706041e+15	2.233068e+14	1.901985e+04	1.185079e+04	5.228599e+03	0	2.229357e-03
2.300000e+08	5.080129e+14	0.000000e+00	7.549667e-01	5.181368e+15	3.830015e+15	2.221226e+14	1.895207e+04	1.192883e+04	5.263027e+03	0	2.206529e-03
2.400000e+08	4.930975e+14	0.000000e+00	7.549667e-01	5.061043e+15	3.939023e+15	2.209472e+14	1.888592e+04	1.199598e+04	5.292654e+03	0	2.184719e-03
2.500000e+08	4.791389e+14	0.000000e+00	7.549667e-01	4.948260e+15	4.033710e+15	2.197803e+14	1.882131e+04	1.205325e+04	5.317922e+03	0	2.163906e-03
2.600000e+08	4.660737e+14	0.000000e+00	7.549667e-01	4.842521e+15	4.114873e+15	2.186220e+14	1.875813e+04	1.210159e+04	5.339251e+03	0	2.144056e-03
2.700000e+08	4.538374e+14	0.000000e+00	7.549667e-01	4.743317e+15	4.183417e+15	2.174721e+14	1.869629e+04	1.214189e+04	5.357033e+03	0	2.125126e-03
2.800000e+08	4.423658e+14	0.000000e+00	7.549667e-01	4.650144e+15	4.240297e+15	2.163306e+14	1.863572e+04	1.217499e+04	5.371634e+03	0	2.107068e-03
2.900000e+08	4.315969e+14	0.000000e+00	7.549667e-01	4.562515e+15	4.286484e+15	2.151975e+14	1.857634e+04	1.220163e+04	5.383388e+03	0	2.089829e-03
3.000000e+08	4.214713e+14	0.000000e+00	7.549667e-01	4.479963e+15	4.322947e+15	2.140726e+14	1.851807e+04	1.222252e+04	5.392605e+03	0	2.073356e-03
3.100000e+08	4.119333e+14	0.000000e+00	7.549667e-01	4.402051e+15	4.350619e+15	2.129560e+14	1.846085e+04	1.223829e+04	5.399564e+03	0	2.057597e-03
3.200000e+08	4.029311e+14	0.000000e+00	7.549667e-01	4.328370e+15	4.370396e+15	2.118474e+14	1.840462e+04	1.224952e+04	5.404518e+03	0	2.042498e-03
3.300000e+08	3.944167e+14	0.000000e+00	7.549667e-01	4.258546e+15	4.383118e+15	2.107469e+14	1.834933e+04	1.225672e+04	5.407696e+03	0	2.028008e-03
3.400000e+08	3.863463e+14	0.000000e+00	7.549667e-01	4.192233e+15	4.389561e+15	2.096544e+14	1.829493e+04	1.226036e+04	5.409303e+03	0	2.014081e-03
3.500000e+08	3.786800e+14	0.000000e+00	7.549667e-01	4.129118e+15	4.390447e+15	2.085699e+14	1.824137e+04	1.226087e+04	5.409524e+03	0	2.000670e-03
3.600000e+08	3.713813e+14	0.000000e+00	7.549667e-01	4.068917e+15	4.386435e+15	2.074932e+14	1.818862e+04	1.225860e+04	5.408524e+03	0	1.987733e-03
3.700000e+08	3.644177e+14	0.000000e+00	7.549667e-01	4.011371e+15	4.378119e+15	2.064243e+14	1.813663e+04	1.225389e+04	5.406448e+03	0	1.975231e-03
3.800000e+08	3.577596e+14	0.000000e+00	7.549667e-01	3.956249e+15	4.366039e+15	2.053631e+14	1.808537e+04	1.224705e+04	5.403427e+03	0	1.963127e-03
3.900000e+08	3.513805e+14	0.000000e+00	7.549667e-01	3.903343e+15	4.350681e+15	2.043096e+14	1.803482e+04	1.223832e+04	5.399579e+03	0	1.951389e-03
4.000000e+08	3.452565e+14	0.000000e+00	7.549667e-01	3.852466e+15	4.332477e+15	2.032637e+14	1.798494e+04	1.222796e+04	5.395005e+03	0	1.939986e-03
4.100000e+08	3.393663e+14	0.000000e+00	7.549667e-01	3.803449e+15	4.311816e+15	2.022253e+14	1.793571e+04	1.221615e+04	5.389797e+03	0	1.928890e-03
4.200000e+08	3.336907e+14	0.000000e+00	7.549667e-01	3.756144e+15	4.289045e+15	2.011945e+14	1.788710e+04	1.220310e+04	5.384037e+03	0	1.918077e-03
4.300000e+08	3.282127e+14	0.000000e+00	7.549667e-01	3.710414e+15	4.264465e+15	2.001710e+14	1.783909e+04	1.218895e+04	5.377796e+03	0	1.907523e-03
4.400000e+08	3.229170e+14	0.000000e+00	7.549667e-01	3.666139e+15	4.238352e+15	1.991549e+14	1.779167e+04	1.217386e+04	5.371137e+03	0	1.897208e-03
4.500000e+08	3.177898e+14	0.000000e+00	7.549667e-01	3.623212e+15	4.210945e+15	1.981461e+14	1.774481e+04	1.215795e+04	5.364116e+03	0	1.887113e-03
4.600000e+08	3.128187e+14	0.000000e+00	7.549667e-01	3.581536e+15	4.182453e+15	1.971446e+14	1.769850e+04	1.214133e+04	5.356784e+03	0	1.877222e-03
4.700000e+08	3.079929e+14	0.000000e+00	7.549667e-01	3.541024e+15	4.153065e+15	1.961502e+14	1.765272e+04	1.212410e+04	5.349184e+03	0	1.867518e-03
4.800000e+08	3.033024e+14	0.000000e+00	7.549667e-01	3.501598e+15	4.122941e+15	1.951630e+14	1.760745e+04	1.210636e+04	5.341355e+03	0	1.857990e-03
4.900000e+08	2.987384e+14	0.000000e+00	7.549667e-01	3.463188e+15	4.092229e+15	1.941829e+14	1.756268e+04	1.208817e+04	5.333331e+03	0	1.848623e-03
5.000000e+08	2.942928e+14	0.000000e+00	7.549667e-01	3.425731e+15	4.061053e+15	1.932097e+14	1.751841e+04	1.206961e+04	5.325142e+03	0	1.839407e-03
5.100000e+08	2.899584e+14	0.000000e+00	7.549667e-01	3.389171e+15	4.029524e+15	1.922435e+14	1.747461e+04	1.205074e+04	5.316815e+03	0	1.830332e-03
5.200000e+08	2.857288e+14	0.000000e+00	7.549667e-01	3.353455e+15	3.997738e+15	1.912842e+14	1.743128e+04	1.203160e+04	5.308373e+03	0	1.821389e-03
5.300000e+08	2.815980e+14	0.000000e+00	7.549667e-01	3.318539e+15	3.965780e+15	1.903317e+14	1.738840e+04	1.201226e+04	5.299838e+03	0	1.812569e-03
5.400000e+08	2.775609e+14	0.000000e+00	7.549667e-01	3.284379e+15	3.933723e+15	1.893860e+14	1.734596e+04	1.199274e+04	5.291227e+03	0	1.803865e-03
5.500000e+08	2.736125e+14	0.000000e+00	7.549667e-01	3.250938e+15	3.901631e+15	1.884471e+14	1.730397e+04	1.197309e+04	5.282558e+03	0	1.795271e-03
5.600000e+08	2.697484e+14	0.000000e+00	7.549667e-01	3.218181e+15	3.869559e+15	1.875148e+14	1.726239e+04	1.195334e+04	5.273843e+03	0	1.786779e-03
5.700000e+08	2.659647e+14	0.000000e+00	7.549667e-01	3.186077e+15	3.837558e+15	1.865892e+14	1.722124e+04	1.193352e+04	5.265097e+03	0	1.778386e-03
5.800000e+08	2.622578e+14	0.000000e+00	7.549667e-01	3.154595e+15	3.805668e+15	1.856701e+14	1.718049e+04	1.191364e+04	5.256329e+03	0	1.770085e-03
5.900000e+08	2.586242e+14	0.000000e+00	7.549667e-01	3.123710e+15	3.773924e+15	1.847575e+14	1.714015e+04	1.189375e+04	5.247550e+03	0	1.761872e-03
6.000000e+08	2.550608e+14	0.000000e+00	7.549667e-01	3.093398e+15	3.742357e+15	1.838514e+14	1.710020e+04	1.187384e+04	5.238768e+03	0	1.753743e-03
6.100000e+08	2.515650e+14	0.000000e+00	7.549667e-01	3.063636e+15	3.710997e+15	1.829517e+14	1.706063e+04	1.185395e+04	5.229991e+03	0	1.745694e-03
6.200000e+08	2.481341e+14	0.000000e+00	7.549667e-01	3.034403e+15	3.679862e+15	1.820583e+14	1.702144e+04	1.183408e+04	5.221225e+03	0	1.737721e-03
6.300000e+08	2.447656e+14	0.000000e+00	7.549667e-01	3.005680e+15	3.648974e+15	1.811713e+14	1.698263e+04	1.181425e+04	5.212477e+03	0	1.729822e-03
6.400000e+08	2.414573e+14	0.000000e+00	7.549667e-01	2.977449e+15	3.618348e+15	1.802905e+14	1.694418e+04	1.179447e+04	5.203751e+03	0	1.721993e-03
6.500000e+08	2.382072e+14	0.000000e+00	7.549667e-01	2.949694e+15	3.587997e+15	1.794159e+14	1.690610e+04	1.177476e+04	5.195052e+03	0	1.714232e-03
6.600000e+08	2.350133e+14	0.000000e+00	7.549667e-01	2.922400e+15	3.557934e+15	1.785475e+14	1.686836e+04	1.175511e+04	5.186384e+03	0	1.706536e-03
6.700000e+08	2.318738e+14	0.000000e+00	7.549667e-01	2.895551e+15	3.528167e+15	1.776852e+14	1.683098e+04	1.173554e+04	5.177750e+03	0	1.698903e-03
6.800000e+08	2.287871e+14	0.000000e+00	7.549667e-01	2.869135e+15	3.498705e+15	1.768289e+14	1.679393e+04	1.171606e+04	5.169153e+03	0	1.691330e-03
6.900000e+08	2.257515e+14	0.000000e+00	7.549667e-01	2.843139e+15	3.469551e+15	1.759787e+14	1.675722e+04	1.169666e+04	5.160595e+03	0	1.683817e-03
7.000000e+08	2.227655e+14	0.000000e+00	7.549667e-01	2.817550e+15	3.440713e+15	1.751344e+14	1.672085e+04	1.167736e+04	5.152080e+03	0	1.676360e-03
7.100000e+08	2.198278e+14	0.000000e+00	7.549667e-01	2.792357e+15	3.412191e+15	1.742960e+14	1.668480e+04	1.165816e+04	5.143609e+03	0	1.668958e-03
7.200000e+08	2.169370e+14	0.000000e+00	7.549667e-01	2.767551e+15	3.383989e+15	1.734635e+14	1.664907e+04	1.163906e+04	5.135183e+03	0	1.661610e-03
7.300000e+08	2.140919e+14	0.000000e+00	7.549667e-01	2.743120e+15	3.356109e+15	1.726368e+14	1.661366e+04	1.162007e+04	5.126804e+03	0	1.654314e-03
7.400000e+08	2.112912e+14	0.000000e+00	7.549667e-01	2.719055e+15	3.328551e+15	1.718158e+14	1.657856e+04	1.160119e+04	5.118473e+03	0	1.647069e-03
7.500000e+08	2.085339e+14	0.000000e+00	7.549667e-01	2.695348e+15	3.301314e+15	1.710006e+14	1.654376e+04	1.158242e+04	5.110191e+03	0	1.639873e-03
7.600000e+08	2.058188e+14	0.000000e+00	7.549667e-01	2.671989e+15	3.274397e+15	1.701911e+14	1.650927e+04	1.156376e+04	5.101959e+03	0	1.632725e-03
7.700000e+08	2.031449e+14	0.000000e+00	7.549667e-01	2.648969e+15	3.247802e+15	1.693872e+14	1.647508e+04	1.154522e+04	5.093778e+03	0	1.625624e-03
7.800000e+08	2.005113e+14	0.000000e+00	7.549667e-01	2.626282e+15	3.221523e+15	1.685889e+14	1.644118e+04	1.152679e+04	5.085647e+03	0	1.618568e-03
7.900000e+08	1.979170e+14	0.000000e+00	7.549667e-01	2.603920e+15	3.195562e+15	1.677961e+14	1.640756e+04	1.150848e+04	5.077568e+03	0	1.611557e-03
8.000000e+08	1.953612e+14	0.000000e+00	7.549667e-01	2.581875e+15	3.169913e+15	1.670088e+14	1.637424e+04	1.149028e+04	5.069541e+03	0	1.604590e-03
8.100000e+08	1.928428e+14	0.000000e+00	7.549667e-01	2.560140e+15	3.144577e+15	1.662270e+14	1.634119e+04	1.147221e+04	5.061565e+03	0	1.597665e-03
8.200000e+08	1.903612e+14	0.000000e+00	7.549667e-01	2.538708e+15	3.119547e+15	1.654506e+14	1.630843e+04	1.145425e+04	5.053642e+03	0	1.590782e-03
8.300000e+08	1.879155e+14	0.000000e+00	7.549667e-01	2.517574e+15	3.094823e+15	1.646796e+14	1.627593e+04	1.143641e+04	5.045771e+03	0	1.583940e-03
8.400000e+08	1.855049e+14	0.000000e+00	7.549667e-01	2.496731e+15	3.070401e+15	1.639139e+14	1.624371e+04	1.141868e+04	5.037951e+03	0	1.577138e-03
8.500000e+08	1.831287e+14	0.000000e+00	7.549667e-01	2.476172e+15	3.046277e+15	1.631534e+14	1.621175e+04	1.140108e+04	5.030184e+03	0	1.570375e-03
8.600000e+08	1.807862e+14	0.000000e+00	7.549667e-01	2.455893e+15	3.022448e+15	1.623982e+14	1.618005e+04	1.138359e+04	5.022469e+03	0	1.563651e-03
8.700000e+08	1.784767e+14	0.000000e+00	7.549667e-01	2.435887e+15	2.998911e+15	1.616483e+14	1.614861e+04	1.136622e+04	5.014805e+03	0	1.556964e-03
8.800000e+08	1.761996e+14	0.000000e+00	7.549667e-01	2.416149e+15	2.975660e+15	1.609034e+14	1.611743e+04	1.134897e+04	5.007193e+03	0	1.550314e-03
8.900000e+08	1.739541e+14	0.000000e+00	7.549667e-01	2.396674e+15	2.952694e+15	1.601637e+14	1.608650e+04	1.133183e+04	4.999632e+03	0	1.543700e-03
9.000000e+08	1.717396e+14	0.000000e+00	7.549667e-01	2.377456e+15	2.930007e+15	1.594291e+14	1.605582e+04	1.131481e+04	4.992122e+03	0	1.537121e-03
9.100000e+08	1.695556e+14	0.000000e+00	7.549667e-01	2.358491e+15	2.907596e+15	1.586995e+14	1.602538e+04	1.129790e+04	4.984663e+03	0	1.530578e-03
9.200000e+08	1.674015e+14	0.000000e+00	7.549667e-01	2.339775e+15	2.885458e+15	1.579749e+14	1.599519e+04	1.128111e+04	4.977254e+03	0	1.524068e-03
9.300000e+08	1.652766e+14	0.000000e+00	7.549667e-01	2.321301e+15	2.863589e+15	1.572552e+14	1.596523e+04	1.126443e+04	4.969895e+03	0	1.517592e-03
9.400000e+08	1.631804e+14	0.000000e+00	7.549667e-01	2.303066e+15	2.841983e+15	1.565405e+14	1.593551e+04	1.124787e+04	4.962586e+03	0	1.511149e-03
9.500000e+08	1.611124e+14	0.000000e+00	7.549667e-01	2.285065e+15	2.820640e+15	1.558307e+14	1.590602e+04	1.123141e+04	4.955326e+03	0	1.504738e-03
9.600000e+08	1.590721e+14	0.000000e+00	7.549667e-01	2.267295e+15	2.799553e+15	1.551257e+14	1.587676e+04	1.121507e+04	4.948115e+03	0	1.498359e-03
9.700000e+08	1.570589e+14	0.000000e+00	7.549667e-01	2.249750e+15	2.778719e+15	1.544255e+14	1.584773e+04	1.119883e+04	4.940953e+03	0	1.492012e-03
9.800000e+08	1.550724e+14	0.000000e+00	7.549667e-01	2.232427e+15	2.758134e+15	1.537300e+14	1.581892e+04	1.118271e+04	4.933839e+03	0	1.485694e-03
9.900000e+08	1.531120e+14	0.000000e+00	7.549667e-01	2.215322e+15	2.737797e+15	1.530393e+14	1.579034e+04	1.116669e+04	4.926772e+03	0	1.479407e-03
1.000000e+09	1.511773e+14	0.000000e+00	7.549667e-01	2.198431e+15	2.717700e+15	1.523533e+14	1.576197e+04	1.115078e+04	4.919753e+03	0	1.473150e-03
1.010000e+09	1.492678e+14	0.000000e+00	7.549667e-01	2.181750e+15	2.697842e+15	1.516719e+14	1.573382e+04	1.113498e+04	4.912780e+03	0	1.466921e-03
1.020000e+09	1.473831e+14	0.000000e+00	7.549667e-01	2.165276e+15	2.678219e+15	1.509951e+14	1.570588e+04	1.111928e+04	4.905854e+03	0	1.460721e-03
1.030000e+09	1.455228e+14	0.000000e+00	7.549667e-01	2.149005e+15	2.658827e+15	1.503230e+14	1.567815e+04	1.110369e+04	4.898974e+03	0	1.454549e-03
1.040000e+09	1.436863e+14	0.000000e+00	7.549667e-01	2.132933e+15	2.639664e+15	1.496553e+14	1.565063e+04	1.108820e+04	4.892140e+03	0	1.448404e-03
1.050000e+09	1.418734e+14	0.000000e+00	7.549667e-01	2.117057e+15	2.620724e+15	1.489922e+14	1.562331e+04	1.107281e+04	4.885350e+03	0	1.442287e-03
1.060000e+09	1.400835e+14	0.000000e+00	7.549667e-01	2.101374e+15	2.602006e+15	1.483336e+14	1.559620e+04	1.105752e+04	4.878605e+03	0	1.436196e-03
1.070000e+09	1.383163e+14	0.000000e+00	7.549667e-01	2.085880e+15	2.583504e+15	1.476793e+14	1.556928e+04	1.104233e+04	4.871905e+03	0	1.430131e-03
1.080000e+09	1.365714e+14	0.000000e+00	7.549667e-01	2.070573e+15	2.565218e+15	1.470295e+14	1.554257e+04	1.102725e+04	4.865249e+03	0	1.424091e-03
1.090000e+09	1.348484e+14	0.000000e+00	7.549667e-01	2.055449e+15	2.547142e+15	1.463841e+14	1.551605e+04	1.101226e+04	4.858636e+03	0	1.418077e-03
1.100000e+09	1.331469e+14	0.000000e+00	7.549667e-01	2.040505e+15	2.529274e+15	1.457430e+14	1.548972e+04	1.099737e+04	4.852065e+03	0	1.412088e-03
1.110000e+09	1.314667e+14	0.000000e+00	7.549667e-01	2.025738e+15	2.511611e+15	1.451061e+14	1.546358e+04	1.098257e+04	4.845538e+03	0	1.406123e-03
1.120000e+09	1.298073e+14	0.000000e+00	7.549667e-01	2.011145e+15	2.494149e+15	1.444736e+14	1.543764e+04	1.096787e+04	4.839053e+03	0	1.400181e-03
1.130000e+09	1.281683e+14	0.000000e+00	7.549667e-01	1.996724e+15	2.476886e+15	1.438453e+14	1.541188e+04	1.095327e+04	4.832609e+03	0	1.394263e-03
1.140000e+09	1.265495e+14	0.000000e+00	7.549667e-01	1.982471e+15	2.459817e+15	1.432212e+14	1.538630e+04	1.093876e+04	4.826207e+03	0	1.388369e-03
1.150000e+09	1.249505e+14	0.000000e+00	7.549667e-01	1.968384e+15	2.442942e+15	1.426012e+14	1.536090e+04	1.092434e+04	4.819845e+03	0	1.382496e-03
1.160000e+09	1.233709e+14	0.000000e+00	7.549667e-01	1.954461e+15	2.426256e+15	1.419854e+14	1.533569e+04	1.091001e+04	4.813524e+03	0	1.376646e-03
1.170000e+09	1.218106e+14	0.000000e+00	7.549667e-01	1.940698e+15	2.409756e+15	1.413737e+14	1.531065e+04	1.089578e+04	4.807243e+03	0	1.370817e-03
1.180000e+09	1.202691e+14	0.000000e+00	7.549667e-01	1.927093e+15	2.393441e+15	1.407661e+14	1.528579e+04	1.088163e+04	4.801002e+03	0	1.365010e-03
1.190000e+09	1.187461e+14	0.000000e+00	7.549667e-01	1.913644e+15	2.377307e+15	1.401625e+14	1.526110e+04	1.086757e+04	4.794800e+03	0	1.359224e-03
1.200000e+09	1.172414e+14	0.000000e+00	7.549667e-01	1.900347e+15	2.361351e+15	1.395629e+14	1.523658e+04	1.085361e+04	4.788638e+03	0	1.353458e-03
1.210000e+09	1.157546e+14	0.000000e+00	7.549667e-01	1.887202e+15	2.345572e+15	1.389673e+14	1.521224e+04	1.083972e+04	4.782513e+03	0	1.347713e-03
1.220000e+09	1.142855e+14	0.000000e+00	7.549667e-01	1.874205e+15	2.329964e+15	1.383756e+14	1.518806e+04	1.082593e+04	4.776427e+03	0	1.341987e-03
1.230000e+09	1.128338e+14	0.000000e+00	7.549667e-01	1.861354e+15	2.314527e+15	1.377878e+14	1.516405e+04	1.081222e+04	4.770378e+03	0	1.336281e-03
1.240000e+09	1.113992e+14	0.000000e+00	7.549667e-01	1.848646e+15	2.299259e+15	1.372040e+14	1.514020e+04	1.079860e+04	4.764367e+03	0	1.330593e-03
1.250000e+09	1.099815e+14	0.000000e+00	7.549667e-01	1.836081e+15	2.284156e+15	1.366240e+14	1.511651e+04	1.078505e+04	4.758393e+03	0	1.324925e-03
1.260000e+09	1.085803e+14	0.000000e+00	7.549667e-01	1.823654e+15	2.269216e+15	1.360478e+14	1.509299e+04	1.077160e+04	4.752455e+03	0	1.319274e-03
1.270000e+09	1.071955e+14	0.000000e+00	7.549667e-01	1.811365e+15	2.254437e+15	1.354754e+14	1.506962e+04	1.075822e+04	4.746554e+03	0	1.313641e-03
1.280000e+09	1.058267e+14	0.000000e+00	7.549667e-01	1.799211e+15	2.239816e+15	1.349067e+14	1.504641e+04	1.074493e+04	4.740689e+03	0	1.308026e-03
1.290000e+09	1.044737e+14	0.000000e+00	7.549667e-01	1.787191e+15	2.225352e+15	1.343418e+14	1.502336e+04	1.073171e+04	4.734859e+03	0	1.302428e-03
1.300000e+09	1.031364e+14	0.000000e+00	7.549667e-01	1.775301e+15	2.211041e+15	1.337807e+14	1.500046e+04	1.071858e+04	4.729064e+03	0	1.296847e-03
1.310000e+09	1.018143e+14	0.000000e+00	7.549667e-01	1.763541e+15	2.196881e+15	1.332232e+14	1.497771e+04	1.070553e+04	4.723304e+03	0	1.291282e-03
1.320000e+09	1.005074e+14	0.000000e+00	7.549667e-01	1.751908e+15	2.182872e+15	1.326693e+14	1.495511e+04	1.069255e+04	4.717579e+03	0	1.285733e-03
1.330000e+09	9.921534e+13	0.000000e+00	7.549667e-01	1.740400e+15	2.169009e+15	1.321191e+14	1.493266e+04	1.067965e+04	4.711888e+03	0	1.280199e-03
1.340000e+09	9.793793e+13	0.000000e+00	7.549667e-01	1.729016e+15	2.155291e+15	1.315724e+14	1.491036e+04	1.066683e+04	4.706231e+03	0	1.274681e-03
1.350000e+09	9.667494e+13	0.000000e+00	7.549667e-01	1.717753e+15	2.141716e+15	1.310294e+14	1.488820e+04	1.065408e+04	4.700607e+03	0	1.269178e-03
1.360000e+09	9.542617e+13	0.000000e+00	7.549667e-01	1.706610e+15	2.128282e+15	1.304898e+14	1.486618e+04	1.064141e+04	4.695016e+03	0	1.263690e-03
