#t		Qconv[W]	Ri[Rp]		R*[Rp]		Qc[W]		Qm[W]		Qr[W]		Tcmb[K]		Tl[K]		Tup[K]		RiFlag		Bs[T]
0.000000e+00	1.430027e+15	0.000000e+00	7.483446e-01	1.270188e+16	6.982844e+13	2.685565e+14	2.362955e+04	6.556479e+03	2.743559e+03	0	3.130338e-03
1.000000e+07	1.421123e+15	0.000000e+00	7.483446e-01	1.262221e+16	1.230870e+14	2.670685e+14	2.347410e+04	7.102591e+03	2.972080e+03	0	3.123827e-03
2.000000e+07	1.405071e+15	0.000000e+00	7.483446e-01	1.248740e+16	2.019603e+14	2.655917e+14	2.331963e+04	7.642481e+03	3.197997e+03	0	3.112022e-03
3.000000e+07	1.382266e+15	0.000000e+00	7.483446e-01	1.230053e+16	3.119238e+14	2.641258e+14	2.316679e+04	8.172606e+03	3.419828e+03	0	3.095093e-03
4.000000e+07	1.353297e+15	0.000000e+00	7.483446e-01	1.206619e+16	4.574147e+14	2.626709e+14	2.301623e+04	8.689342e+03	3.636056e+03	0	3.073318e-03
5.000000e+07	1.318925e+15	0.000000e+00	7.483446e-01	1.179034e+16	6.412265e+14	2.612269e+14	2.286852e+04	9.189105e+03	3.845182e+03	0	3.047075e-03
6.000000e+07	1.280053e+15	0.000000e+00	7.483446e-01	1.147995e+16	8.640568e+14	2.597936e+14	2.272417e+04	9.668487e+03	4.045779e+03	0	3.016841e-03
7.000000e+07	1.237672e+15	0.000000e+00	7.483446e-01	1.114272e+16	1.124284e+15	2.583710e+14	2.258360e+04	1.012440e+04	4.236554e+03	0	2.983173e-03
8.000000e+07	1.192812e+15	0.000000e+00	7.483446e-01	1.078663e+16	1.418008e+15	2.569590e+14	2.244714e+04	1.055418e+04	4.416398e+03	0	2.946686e-03
9.000000e+07	1.146486e+15	0.000000e+00	7.483446e-01	1.041951e+16	1.739358e+15	2.555575e+14	2.231503e+04	1.095574e+04	4.584432e+03	0	2.908033e-03
1.000000e+08	1.099641e+15	0.000000e+00	7.483446e-01	1.004870e+16	2.080990e+15	2.541664e+14	2.218740e+04	1.132760e+04	4.740033e+03	0	2.867874e-03
1.100000e+08	1.053118e+15	0.000000e+00	7.483446e-01	9.680695e+15	2.434725e+15	2.527856e+14	2.206429e+04	1.166889e+04	4.882847e+03	0	2.826846e-03
1.200000e+08	1.007628e+15	0.000000e+00	7.483446e-01	9.320987e+15	2.792197e+15	2.514150e+14	2.194567e+04	1.197941e+04	5.012784e+03	0	2.785543e-03
1.300000e+08	9.637361e+14	0.000000e+00	7.483446e-01	8.973931e+15	3.145449e+15	2.500546e+14	2.183144e+04	1.225951e+04	5.129995e+03	0	2.744495e-03
1.400000e+08	9.218621e+14	0.000000e+00	7.483446e-01	8.642760e+15	3.487401e+15	2.487042e+14	2.172146e+04	1.251008e+04	5.234844e+03	0	2.704156e-03
1.500000e+08	8.822888e+14	0.000000e+00	7.483446e-01	8.329643e+15	3.812166e+15	2.473639e+14	2.161551e+04	1.273238e+04	5.327867e+03	0	2.664895e-03
1.600000e+08	8.451785e+14	0.000000e+00	7.483446e-01	8.035821e+15	4.115196e+15	2.460334e+14	2.151339e+04	1.292802e+04	5.409731e+03	0	2.626995e-03
1.700000e+08	8.105924e+14	0.000000e+00	7.483446e-01	7.761749e+15	4.393315e+15	2.447128e+14	2.141486e+04	1.309880e+04	5.481196e+03	0	2.590661e-03
1.800000e+08	7.785119e+14	0.000000e+00	7.483446e-01	7.507267e+15	4.644608e+15	2.434019e+14	2.131968e+04	1.324667e+04	5.543071e+03	0	2.556024e-03
1.900000e+08	7.488581e+14	0.000000e+00	7.483446e-01	7.271748e+15	4.868274e+15	2.421006e+14	2.122761e+04	1.337362e+04	5.596190e+03	0	2.523149e-03
2.000000e+08	7.215100e+14	0.000000e+00	7.483446e-01	7.054242e+15	5.064431e+15	2.408090e+14	2.113842e+04	1.348161e+04	5.641380e+03	0	2.492053e-03
2.100000e+08	6.963197e+14	0.000000e+00	7.483446e-01	6.853591e+15	5.233901e+15	2.395268e+14	2.105188e+04	1.357257e+04	5.679442e+03	0	2.462707e-03
2.200000e+08	6.731244e+14	0.000000e+00	7.483446e-01	6.668523e+15	5.378035e+15	2.382540e+14	2.096780e+04	1.364831e+04	5.711137e+03	0	2.435052e-03
2.300000e+08	6.517561e+14	0.000000e+00	7.483446e-01	6.497725e+15	5.498525e+15	2.369906e+14	2.088598e+04	1.371054e+04	5.737178e+03	0	2.409008e-03
2.400000e+08	6.320479e+14	0.000000e+00	7.483446e-01	6.339899e+15	5.597261e+15	2.357364e+14	2.080625e+04	1.376083e+04	5.758221e+03	0	2.384477e-03
2.500000e+08	6.138397e+14	0.000000e+00	7.483446e-01	6.193795e+15	5.676235e+15	2.344915e+14	2.072845e+04	1.380061e+04	5.774866e+03	0	2.361356e-03
2.600000e+08	5.969804e+14	0.000000e+00	7.483446e-01	6.058235e+15	5.737433e+15	2.332556e+14	2.065243e+04	1.383117e+04	5.787653e+03	0	2.339537e-03
2.700000e+08	5.813302e+14	0.000000e+00	7.483446e-01	5.932132e+15	5.782788e+15	2.320288e+14	2.057807e+04	1.385367e+04	5.797068e+03	0	2.318911e-03
2.800000e+08	5.667614e+14	0.000000e+00	7.483446e-01	5.814490e+15	5.814129e+15	2.308109e+14	2.050526e+04	1.386914e+04	5.803544e+03	0	2.299375e-03
2.900000e+08	5.531582e+14	0.000000e+00	7.483446e-01	5.704409e+15	5.833164e+15	2.296019e+14	2.043388e+04	1.387851e+04	5.807465e+03	0	2.280830e-03
3.000000e+08	5.404169e+14	0.000000e+00	7.483446e-01	5.601079e+15	5.841452e+15	2.284018e+14	2.036384e+04	1.388259e+04	5.809169e+03	0	2.263182e-03
3.100000e+08	5.284450e+14	0.000000e+00	7.483446e-01	5.503781e+15	5.840413e+15	2.272104e+14	2.029507e+04	1.388208e+04	5.808955e+03	0	2.246345e-03
3.200000e+08	5.171601e+14	0.000000e+00	7.483446e-01	5.411875e+15	5.831317e+15	2.260276e+14	2.022749e+04	1.387760e+04	5.807084e+03	0	2.230239e-03
3.300000e+08	5.064898e+14	0.000000e+00	7.483446e-01	5.324793e+15	5.815300e+15	2.248535e+14	2.016104e+04	1.386972e+04	5.803785e+03	0	2.214794e-03
3.400000e+08	4.963698e+14	0.000000e+00	7.483446e-01	5.242038e+15	5.793371e+15	2.236878e+14	2.009565e+04	1.385890e+04	5.799257e+03	0	2.199944e-03
3.500000e+08	4.867439e+14	0.000000e+00	7.483446e-01	5.163170e+15	5.766411e+15	2.225307e+14	2.003127e+04	1.384556e+04	5.793674e+03	0	2.185630e-03
3.600000e+08	4.775624e+14	0.000000e+00	7.483446e-01	5.087803e+15	5.735199e+15	2.213819e+14	1.996786e+04	1.383006e+04	5.787188e+03	0	2.171800e-03
3.700000e+08	4.687820e+14	0.000000e+00	7.483446e-01	5.015599e+15	5.700413e+15	2.202414e+14	1.990536e+04	1.381271e+04	5.779929e+03	0	2.158408e-03
3.800000e+08	4.603645e+14	0.000000e+00	7.483446e-01	4.946260e+15	5.662648e+15	2.191092e+14	1.984375e+04	1.379379e+04	5.772014e+03	0	2.145411e-03
3.900000e+08	4.522764e+14	0.000000e+00	7.483446e-01	4.879525e+15	5.622409e+15	2.179852e+14	1.978299e+04	1.377354e+04	5.763540e+03	0	2.132772e-03
4.000000e+08	4.444883e+14	0.000000e+00	7.483446e-01	4.815165e+15	5.580153e+15	2.168693e+14	1.972305e+04	1.375216e+04	5.754594e+03	0	2.120459e-03
4.100000e+08	4.369745e+14	0.000000e+00	7.483446e-01	4.752978e+15	5.536256e+15	2.157614e+14	1.966389e+04	1.372984e+04	5.745251e+03	0	2.108443e-03
4.200000e+08	4.297122e+14	0.000000e+00	7.483446e-01	4.692787e+15	5.491051e+15	2.146616e+14	1.960549e+04	1.370671e+04	5.735575e+03	0	2.096697e-03
4.300000e+08	4.226814e+14	0.000000e+00	7.483446e-01	4.634437e+15	5.444829e+15	2.135696e+14	1.954783e+04	1.368293e+04	5.725623e+03	0	2.085199e-03
4.400000e+08	4.158645e+14	0.000000e+00	7.483446e-01	4.577789e+15	5.397831e+15	2.124855e+14	1.949088e+04	1.365860e+04	5.715443e+03	0	2.073928e-03
4.500000e+08	4.092459e+14	0.000000e+00	7.483446e-01	4.522721e+15	5.350272e+15	2.114092e+14	1.943463e+04	1.363383e+04	5.705078e+03	0	2.062867e-03
4.600000e+08	4.028118e+14	0.000000e+00	7.483446e-01	4.469126e+15	5.302331e+15	2.103406e+14	1.937905e+04	1.360871e+04	5.694565e+03	0	2.051999e-03
4.700000e+08	3.965499e+14	0.000000e+00	7.483446e-01	4.416907e+15	5.254163e+15	2.092797e+14	1.932412e+04	1.358330e+04	5.683933e+03	0	2.041311e-03
4.800000e+08	3.904494e+14	0.000000e+00	7.483446e-01	4.365979e+15	5.205900e+15	2.082264e+14	1.926984e+04	1.355768e+04	5.673213e+03	0	2.030789e-03
4.900000e+08	3.845005e+14	0.000000e+00	7.483446e-01	4.316265e+15	5.157651e+15	2.071806e+14	1.921617e+04	1.353190e+04	5.662426e+03	0	2.020422e-03
5.000000e+08	3.786945e+14	0.000000e+00	7.483446e-01	4.267699e+15	5.109520e+15	2.061424e+14	1.916312e+04	1.350602e+04	5.651593e+03	0	2.010201e-03
5.100000e+08	3.730235e+14	0.000000e+00	7.483446e-01	4.220217e+15	5.061583e+15	2.051115e+14	1.911066e+04	1.348006e+04	5.640732e+03	0	2.000116e-03
5.200000e+08	3.674806e+14	0.000000e+00	7.483446e-01	4.173766e+15	5.013904e+15	2.040880e+14	1.905878e+04	1.345408e+04	5.629859e+03	0	1.990160e-03
5.300000e+08	3.620594e+14	0.000000e+00	7.483446e-01	4.128294e+15	4.966548e+15	2.030717e+14	1.900747e+04	1.342809e+04	5.618987e+03	0	1.980325e-03
5.400000e+08	3.567542e+14	0.000000e+00	7.483446e-01	4.083757e+15	4.919560e+15	2.020628e+14	1.895672e+04	1.340214e+04	5.608127e+03	0	1.970605e-03
5.500000e+08	3.515597e+14	0.000000e+00	7.483446e-01	4.040114e+15	4.872976e+15	2.010610e+14	1.890651e+04	1.337624e+04	5.597289e+03	0	1.960994e-03
5.600000e+08	3.464712e+14	0.000000e+00	7.483446e-01	3.997326e+15	4.826838e+15	2.000663e+14	1.885684e+04	1.335041e+04	5.586481e+03	0	1.951486e-03
5.700000e+08	3.414843e+14	0.000000e+00	7.483446e-01	3.955361e+15	4.781164e+15	1.990787e+14	1.880769e+04	1.332468e+04	5.575711e+03	0	1.942078e-03
5.800000e+08	3.365950e+14	0.000000e+00	7.483446e-01	3.914185e+15	4.735983e+15	1.980981e+14	1.875905e+04	1.329904e+04	5.564985e+03	0	1.932765e-03
5.900000e+08	3.317997e+14	0.000000e+00	7.483446e-01	3.873770e+15	4.691303e+15	1.971244e+14	1.871092e+04	1.327353e+04	5.554308e+03	0	1.923542e-03
6.000000e+08	3.270948e+14	0.000000e+00	7.483446e-01	3.834089e+15	4.647148e+15	1.961576e+14	1.866328e+04	1.324814e+04	5.543685e+03	0	1.914407e-03
6.100000e+08	3.224774e+14	0.000000e+00	7.483446e-01	3.795118e+15	4.603522e+15	1.951977e+14	1.861613e+04	1.322289e+04	5.533119e+03	0	1.905356e-03
6.200000e+08	3.179444e+14	0.000000e+00	7.483446e-01	3.756832e+15	4.560436e+15	1.942446e+14	1.856945e+04	1.319779e+04	5.522614e+03	0	1.896386e-03
6.300000e+08	3.134931e+14	0.000000e+00	7.483446e-01	3.719210e+15	4.517889e+15	1.932981e+14	1.852325e+04	1.317283e+04	5.512173e+03	0	1.887495e-03
6.400000e+08	3.091209e+14	0.000000e+00	7.483446e-01	3.682231e+15	4.475888e+15	1.923584e+14	1.847751e+04	1.314804e+04	5.501797e+03	0	1.878679e-03
6.500000e+08	3.048255e+14	0.000000e+00	7.483446e-01	3.645878e+15	4.434437e+15	1.914253e+14	1.843221e+04	1.312340e+04	5.491489e+03	0	1.869937e-03
6.600000e+08	3.006047e+14	0.000000e+00	7.483446e-01	3.610131e+15	4.393529e+15	1.904987e+14	1.838737e+04	1.309893e+04	5.481250e+03	0	1.861266e-03
6.700000e+08	2.964562e+14	0.000000e+00	7.483446e-01	3.574974e+15	4.353169e+15	1.895787e+14	1.834296e+04	1.307463e+04	5.471081e+03	0	1.852664e-03
6.800000e+08	2.923780e+14	0.000000e+00	7.483446e-01	3.540391e+15	4.313349e+15	1.886651e+14	1.829898e+04	1.305050e+04	5.460983e+03	0	1.844129e-03
6.900000e+08	2.883684e+14	0.000000e+00	7.483446e-01	3.506366e+15	4.274069e+15	1.877579e+14	1.825543e+04	1.302654e+04	5.450957e+03	0	1.835660e-03
7.000000e+08	2.844254e+14	0.000000e+00	7.483446e-01	3.472886e+15	4.235324e+15	1.868571e+14	1.821229e+04	1.300276e+04	5.441004e+03	0	1.827255e-03
7.100000e+08	2.805473e+14	0.000000e+00	7.483446e-01	3.439936e+15	4.197106e+15	1.859626e+14	1.816956e+04	1.297914e+04	5.431124e+03	0	1.818913e-03
7.200000e+08	2.767326e+14	0.000000e+00	7.483446e-01	3.407503e+15	4.159411e+15	1.850744e+14	1.812724e+04	1.295571e+04	5.421316e+03	0	1.810631e-03
7.300000e+08	2.729795e+14	0.000000e+00	7.483446e-01	3.375574e+15	4.122236e+15	1.841923e+14	1.808532e+04	1.293244e+04	5.411581e+03	0	1.802408e-03
7.400000e+08	2.692867e+14	0.000000e+00	7.483446e-01	3.344139e+15	4.085570e+15	1.833165e+14	1.804378e+04	1.290935e+04	5.401919e+03	0	1.794244e-03
7.500000e+08	2.656528e+14	0.000000e+00	7.483446e-01	3.313185e+15	4.049410e+15	1.824467e+14	1.800263e+04	1.288644e+04	5.392330e+03	0	1.786136e-03
7.600000e+08	2.620762e+14	0.000000e+00	7.483446e-01	3.282701e+15	4.013749e+15	1.815830e+14	1.796186e+04	1.286370e+04	5.382814e+03	0	1.778084e-03
7.700000e+08	2.585557e+14	0.000000e+00	7.483446e-01	3.252676e+15	3.978577e+15	1.807252e+14	1.792147e+04	1.284113e+04	5.373370e+03	0	1.770087e-03
7.800000e+08	2.550901e+14	0.000000e+00	7.483446e-01	3.223101e+15	3.943889e+15	1.798735e+14	1.788144e+04	1.281873e+04	5.363997e+03	0	1.762142e-03
7.900000e+08	2.516781e+14	0.000000e+00	7.483446e-01	3.193965e+15	3.909676e+15	1.790277e+14	1.784177e+04	1.279650e+04	5.354696e+03	0	1.754250e-03
8.000000e+08	2.483185e+14	0.000000e+00	7.483446e-01	3.165260e+15	3.875933e+15	1.781877e+14	1.780246e+04	1.277444e+04	5.345466e+03	0	1.746410e-03
8.100000e+08	2.450101e+14	0.000000e+00	7.483446e-01	3.136974e+15	3.842652e+15	1.773536e+14	1.776351e+04	1.275255e+04	5.336306e+03	0	1.738619e-03
8.200000e+08	2.417519e+14	0.000000e+00	7.483446e-01	3.109101e+15	3.809824e+15	1.765252e+14	1.772490e+04	1.273083e+04	5.327217e+03	0	1.730878e-03
8.300000e+08	2.385428e+14	0.000000e+00	7.483446e-01	3.081631e+15	3.777444e+15	1.757025e+14	1.768663e+04	1.270927e+04	5.318196e+03	0	1.723185e-03
8.400000e+08	2.353818e+14	0.000000e+00	7.483446e-01	3.054556e+15	3.745503e+15	1.748856e+14	1.764870e+04	1.268788e+04	5.309244e+03	0	1.715540e-03
8.500000e+08	2.322679e+14	0.000000e+00	7.483446e-01	3.027867e+15	3.713995e+15	1.740742e+14	1.761110e+04	1.266665e+04	5.300360e+03	0	1.707941e-03
8.600000e+08	2.292000e+14	0.000000e+00	7.483446e-01	3.001558e+15	3.682911e+15	1.732685e+14	1.757383e+04	1.264558e+04	5.291543e+03	0	1.700388e-03
8.700000e+08	2.261773e+14	0.000000e+00	7.483446e-01	2.975620e+15	3.652246e+15	1.724683e+14	1.753688e+04	1.262467e+04	5.282793e+03	0	1.692880e-03
8.800000e+08	2.231988e+14	0.000000e+00	7.483446e-01	2.950046e+15	3.621990e+15	1.716736e+14	1.750025e+04	1.260392e+04	5.274109e+03	0	1.685416e-03
8.900000e+08	2.202637e+14	0.000000e+00	7.483446e-01	2.924828e+15	3.592140e+15	1.708844e+14	1.746393e+04	1.258332e+04	5.265491e+03	0	1.677995e-03
9.000000e+08	2.173710e+14	0.000000e+00	7.483446e-01	2.899961e+15	3.562684e+15	1.701006e+14	1.742792e+04	1.256288e+04	5.256937e+03	0	1.670617e-03
9.100000e+08	2.145200e+14	0.000000e+00	7.483446e-01	2.875436e+15	3.533621e+15	1.693222e+14	1.739222e+04	1.254259e+04	5.248447e+03	0	1.663281e-03
9.200000e+08	2.117098e+14	0.000000e+00	7.483446e-01	2.851248e+15	3.504942e+15	1.685491e+14	1.735682e+04	1.252245e+04	5.240021e+03	0	1.655986e-03
9.300000e+08	2.089396e+14	0.000000e+00	7.483446e-01	2.827390e+15	3.476638e+15	1.677813e+14	1.732171e+04	1.250246e+04	5.231657e+03	0	1.648732e-03
9.400000e+08	2.062087e+14	0.000000e+00	7.483446e-01	2.803856e+15	3.448705e+15	1.670187e+14	1.728690e+04	1.248263e+04	5.223355e+03	0	1.641517e-03
9.500000e+08	2.035163e+14	0.000000e+00	7.483446e-01	2.780639e+15	3.421137e+15	1.662613e+14	1.725238e+04	1.246293e+04	5.215115e+03	0	1.634342e-03
9.600000e+08	2.008616e+14	0.000000e+00	7.483446e-01	2.757734e+15	3.393925e+15	1.655091e+14	1.721814e+04	1.244338e+04	5.206935e+03	0	1.627204e-03
9.700000e+08	1.982440e+14	0.000000e+00	7.483446e-01	2.735135e+15	3.367065e+15	1.647621e+14	1.718418e+04	1.242398e+04	5.198815e+03	0	1.620105e-03
9.800000e+08	1.956628e+14	0.000000e+00	7.483446e-01	2.712836e+15	3.340553e+15	1.640201e+14	1.715050e+04	1.240472e+04	5.190755e+03	0	1.613043e-03
9.900000e+08	1.931172e+14	0.000000e+00	7.483446e-01	2.690832e+15	3.314379e+15	1.632831e+14	1.711709e+04	1.238559e+04	5.182753e+03	0	1.606017e-03
1.000000e+09	1.906067e+14	0.000000e+00	7.483446e-01	2.669118e+15	3.288539e+15	1.625512e+14	1.708396e+04	1.236661e+04	5.174809e+03	0	1.599027e-03
1.010000e+09	1.881305e+14	0.000000e+00	7.483446e-01	2.647687e+15	3.263028e+15	1.618242e+14	1.705108e+04	1.234776e+04	5.166922e+03	0	1.592073e-03
1.020000e+09	1.856881e+14	0.000000e+00	7.483446e-01	2.626535e+15	3.237840e+15	1.611021e+14	1.701848e+04	1.232905e+04	5.159092e+03	0	1.585153e-03
1.030000e+09	1.832787e+14	0.000000e+00	7.483446e-01	2.605658e+15	3.212968e+15	1.603850e+14	1.698613e+04	1.231047e+04	5.151318e+03	0	1.578267e-03
1.040000e+09	1.809019e+14	0.000000e+00	7.483446e-01	2.585049e+15	3.188410e+15	1.596726e+14	1.695404e+04	1.229203e+04	5.143599e+03	0	1.571415e-03
1.050000e+09	1.785570e+14	0.000000e+00	7.483446e-01	2.564705e+15	3.164156e+15	1.589651e+14	1.692220e+04	1.227371e+04	5.135935e+03	0	1.564596e-03
1.060000e+09	1.762435e+14	0.000000e+00	7.483446e-01	2.544621e+15	3.140206e+15	1.582624e+14	1.689061e+04	1.225553e+04	5.128325e+03	0	1.557809e-03
1.070000e+09	1.739607e+14	0.000000e+00	7.483446e-01	2.524792e+15	3.116551e+15	1.575644e+14	1.685927e+04	1.223747e+04	5.120769e+03	0	1.551054e-03
1.080000e+09	1.717082e+14	0.000000e+00	7.483446e-01	2.505213e+15	3.093187e+15	1.568711e+14	1.682817e+04	1.221954e+04	5.113266e+03	0	1.544330e-03
1.090000e+09	1.694854e+14	0.000000e+00	7.483446e-01	2.485881e+15	3.070111e+15	1.561824e+14	1.679731e+04	1.220173e+04	5.105815e+03	0	1.537637e-03
1.100000e+09	1.672918e+14	0.000000e+00	7.483446e-01	2.466791e+15	3.047314e+15	1.554984e+14	1.676669e+04	1.218405e+04	5.098416e+03	0	1.530975e-03
1.110000e+09	1.651269e+14	0.000000e+00	7.483446e-01	2.447939e+15	3.024797e+15	1.548189e+14	1.673630e+04	1.216649e+04	5.091068e+03	0	1.524342e-03
1.120000e+09	1.629901e+14	0.000000e+00	7.483446e-01	2.429320e+15	3.002552e+15	1.541441e+14	1.670614e+04	1.214905e+04	5.083770e+03	0	1.517738e-03
1.130000e+09	1.608811e+14	0.000000e+00	7.483446e-01	2.410932e+15	2.980574e+15	1.534737e+14	1.667622e+04	1.213173e+04	5.076523e+03	0	1.511163e-03
1.140000e+09	1.587992e+14	0.000000e+00	7.483446e-01	2.392769e+15	2.958860e+15	1.528078e+14	1.664651e+04	1.211453e+04	5.069325e+03	0	1.504617e-03
1.150000e+09	1.567441e+14	0.000000e+00	7.483446e-01	2.374829e+15	2.937406e+15	1.521464e+14	1.661704e+04	1.209744e+04	5.062176e+03	0	1.498098e-03
1.160000e+09	1.547153e+14	0.000000e+00	7.483446e-01	2.357107e+15	2.916207e+15	1.514893e+14	1.658778e+04	1.208047e+04	5.055075e+03	0	1.491606e-03
1.170000e+09	1.527123e+14	0.000000e+00	7.483446e-01	2.339600e+15	2.895259e+15	1.508367e+14	1.655874e+04	1.206362e+04	5.048022e+03	0	1.485141e-03
1.180000e+09	1.507347e+14	0.000000e+00	7.483446e-01	2.322305e+15	2.874557e+15	1.501884e+14	1.652991e+04	1.204688e+04	5.041017e+03	0	1.478703e-03
1.190000e+09	1.487821e+14	0.000000e+00	7.483446e-01	2.305217e+15	2.854099e+15	1.495444e+14	1.650130e+04	1.203025e+04	5.034058e+03	0	1.472290e-03
1.200000e+09	1.468540e+14	0.000000e+00	7.483446e-01	2.288333e+15	2.833879e+15	1.489046e+14	1.647289e+04	1.201373e+04	5.027146e+03	0	1.465902e-03
1.210000e+09	1.449500e+14	0.000000e+00	7.483446e-01	2.271651e+15	2.813895e+15	1.482692e+14	1.644470e+04	1.199732e+04	5.020279e+03	0	1.459540e-03
1.220000e+09	1.430699e+14	0.000000e+00	7.483446e-01	2.255166e+15	2.794143e+15	1.476379e+14	1.641671e+04	1.198102e+04	5.013458e+03	0	1.453202e-03
1.230000e+09	1.412130e+14	0.000000e+00	7.483446e-01	2.238875e+15	2.774618e+15	1.470108e+14	1.638892e+04	1.196482e+04	5.006681e+03	0	1.446887e-03
1.240000e+09	1.393791e+14	0.000000e+00	7.483446e-01	2.222776e+15	2.755318e+15	1.463878e+14	1.636133e+04	1.194873e+04	4.999949e+03	0	1.440597e-03
1.250000e+09	1.375678e+14	0.000000e+00	7.483446e-01	2.206866e+15	2.736237e+15	1.457690e+14	1.633394e+04	1.193275e+04	4.993260e+03	0	1.434329e-03
1.260000e+09	1.357787e+14	0.000000e+00	7.483446e-01	2.191140e+15	2.717375e+15	1.451542e+14	1.630674e+04	1.191687e+04	4.986615e+03	0	1.428084e-03
1.270000e+09	1.340115e+14	0.000000e+00	7.483446e-01	2.175597e+15	2.698726e+15	1.445435e+14	1.627974e+04	1.190109e+04	4.980013e+03	0	1.421861e-03
1.280000e+09	1.322657e+14	0.000000e+00	7.483446e-01	2.160234e+15	2.680287e+15	1.439368e+14	1.625293e+04	1.188542e+04	4.973453e+03	0	1.415660e-03
1.290000e+09	1.305411e+14	0.000000e+00	7.483446e-01	2.145047e+15	2.662057e+15	1.433341e+14	1.622631e+04	1.186984e+04	4.966935e+03	0	1.409480e-03
1.300000e+09	1.288374e+14	0.000000e+00	7.483446e-01	2.130034e+15	2.644030e+15	1.427354e+14	1.619987e+04	1.185436e+04	4.960459e+03	0	1.403321e-03
1.310000e+09	1.271541e+14	0.000000e+00	7.483446e-01	2.115192e+15	2.626204e+15	1.421406e+14	1.617362e+04	1.183898e+04	4.954024e+03	0	1.397183e-03
1.320000e+09	1.254909e+14	0.000000e+00	7.483446e-01	2.100518e+15	2.608575e+15	1.415496e+14	1.614755e+04	1.182370e+04	4.947629e+03	0	1.391064e-03
1.330000e+09	1.238476e+14	0.000000e+00	7.483446e-01	2.086010e+15	2.591143e+15	1.409626e+14	1.612166e+04	1.180852e+04	4.941275e+03	0	1.384966e-03
1.340000e+09	1.222238e+14	0.000000e+00	7.483446e-01	2.071666e+15	2.573901e+15	1.403793e+14	1.609595e+04	1.179343e+04	4.934960e+03	0	1.378886e-03
1.350000e+09	1.206192e+14	0.000000e+00	7.483446e-01	2.057482e+15	2.556848e+15	1.397999e+14	1.607042e+04	1.177843e+04	4.928685e+03	0	1.372825e-03
1.360000e+09	1.190335e+14	0.000000e+00	7.483446e-01	2.043456e+15	2.539982e+15	1.392243e+14	1.604506e+04	1.176353e+04	4.922449e+03	0	1.366783e-03
