#t		Qconv[W]	Ri[Rp]		R*[Rp]		Qc[W]		Qm[W]		Qr[W]		Tcmb[K]		Tl[K]		Tup[K]		RiFlag		Bs[T]
0.000000e+00	1.490622e+15	0.000000e+00	7.483447e-01	1.331469e+16	6.726313e+13	2.840401e+14	2.435871e+04	6.695359e+03	2.774470e+03	0	3.170269e-03
1.000000e+07	1.484974e+15	0.000000e+00	7.483447e-01	1.325973e+16	1.176376e+14	2.824663e+14	2.421071e+04	7.239057e+03	2.999772e+03	0	3.166260e-03
2.000000e+07	1.472103e+15	0.000000e+00	7.483447e-01	1.314985e+16	1.921754e+14	2.809043e+14	2.406331e+04	7.777984e+03	3.223096e+03	0	3.157085e-03
3.000000e+07	1.452305e+15	0.000000e+00	7.483447e-01	1.298738e+16	2.962935e+14	2.793540e+14	2.391712e+04	8.308851e+03	3.443080e+03	0	3.142868e-03
4.000000e+07	1.426067e+15	0.000000e+00	7.483447e-01	1.277606e+16	4.346218e+14	2.778152e+14	2.377273e+04	8.828252e+03	3.658314e+03	0	3.123827e-03
5.000000e+07	1.394053e+15	0.000000e+00	7.483447e-01	1.252098e+16	6.104321e+14	2.762879e+14	2.363068e+04	9.332776e+03	3.867382e+03	0	3.100274e-03
6.000000e+07	1.357076e+15	0.000000e+00	7.483447e-01	1.222837e+16	8.251720e+14	2.747720e+14	2.349145e+04	9.819118e+03	4.068915e+03	0	3.072616e-03
7.000000e+07	1.316056e+15	0.000000e+00	7.483447e-01	1.190526e+16	1.078177e+15	2.732674e+14	2.335546e+04	1.028421e+04	4.261642e+03	0	3.041341e-03
8.000000e+07	1.271979e+15	0.000000e+00	7.483447e-01	1.155918e+16	1.366605e+15	2.717739e+14	2.322305e+04	1.072533e+04	4.444437e+03	0	3.007001e-03
9.000000e+07	1.225840e+15	0.000000e+00	7.483447e-01	1.119773e+16	1.685610e+15	2.702916e+14	2.309447e+04	1.114022e+04	4.616363e+03	0	2.970194e-03
1.000000e+08	1.178598e+15	0.000000e+00	7.483447e-01	1.082821e+16	2.028721e+15	2.688203e+14	2.296990e+04	1.152716e+04	4.776706e+03	0	2.931538e-03
1.100000e+08	1.131137e+15	0.000000e+00	7.483447e-01	1.045735e+16	2.388368e+15	2.673599e+14	2.284943e+04	1.188500e+04	4.924992e+03	0	2.891648e-03
1.200000e+08	1.084227e+15	0.000000e+00	7.483447e-01	1.009102e+16	2.756475e+15	2.659103e+14	2.273306e+04	1.221319e+04	5.060989e+03	0	2.851108e-03
1.300000e+08	1.038511e+15	0.000000e+00	7.483447e-01	9.734107e+15	3.125040e+15	2.644715e+14	2.262076e+04	1.251173e+04	5.184699e+03	0	2.810460e-03
1.400000e+08	9.944937e+14	0.000000e+00	7.483447e-01	9.390432e+15	3.486632e+15	2.630433e+14	2.251242e+04	1.278113e+04	5.296334e+03	0	2.770178e-03
1.500000e+08	9.525432e+14	0.000000e+00	7.483447e-01	9.062793e+15	3.834776e+15	2.616256e+14	2.240789e+04	1.302233e+04	5.396286e+03	0	2.730666e-03
1.600000e+08	9.129040e+14	0.000000e+00	7.483447e-01	8.753034e+15	4.164176e+15	2.602184e+14	2.230700e+04	1.323664e+04	5.485092e+03	0	2.692250e-03
1.700000e+08	8.757109e+14	0.000000e+00	7.483447e-01	8.462164e+15	4.470823e+15	2.588217e+14	2.220954e+04	1.342561e+04	5.563399e+03	0	2.655179e-03
1.800000e+08	8.410081e+14	0.000000e+00	7.483447e-01	8.190502e+15	4.751969e+15	2.574352e+14	2.211532e+04	1.359098e+04	5.631925e+03	0	2.619632e-03
1.900000e+08	8.087680e+14	0.000000e+00	7.483447e-01	7.937821e+15	5.006032e+15	2.560589e+14	2.202410e+04	1.373458e+04	5.691431e+03	0	2.585721e-03
2.000000e+08	7.789092e+14	0.000000e+00	7.483447e-01	7.703484e+15	5.232437e+15	2.546928e+14	2.193569e+04	1.385828e+04	5.742691e+03	0	2.553500e-03
2.100000e+08	7.513126e+14	0.000000e+00	7.483447e-01	7.486570e+15	5.431433e+15	2.533367e+14	2.184989e+04	1.396393e+04	5.786472e+03	0	2.522980e-03
2.200000e+08	7.258350e+14	0.000000e+00	7.483447e-01	7.285973e+15	5.603906e+15	2.519905e+14	2.176649e+04	1.405332e+04	5.823514e+03	0	2.494133e-03
2.300000e+08	7.023198e+14	0.000000e+00	7.483447e-01	7.100488e+15	5.751211e+15	2.506542e+14	2.168531e+04	1.412815e+04	5.854521e+03	0	2.466902e-03
2.400000e+08	6.806058e+14	0.000000e+00	7.483447e-01	6.928872e+15	5.875013e+15	2.493278e+14	2.160620e+04	1.419000e+04	5.880153e+03	0	2.441212e-03
2.500000e+08	6.605328e+14	0.000000e+00	7.483447e-01	6.769897e+15	5.977158e+15	2.480110e+14	2.152899e+04	1.424035e+04	5.901017e+03	0	2.416973e-03
2.600000e+08	6.419467e+14	0.000000e+00	7.483447e-01	6.622376e+15	6.059577e+15	2.467039e+14	2.145355e+04	1.428054e+04	5.917670e+03	0	2.394087e-03
2.700000e+08	6.247018e+14	0.000000e+00	7.483447e-01	6.485193e+15	6.124193e+15	2.454064e+14	2.137975e+04	1.431178e+04	5.930616e+03	0	2.372454e-03
2.800000e+08	6.086628e+14	0.000000e+00	7.483447e-01	6.357308e+15	6.172888e+15	2.441183e+14	2.130747e+04	1.433517e+04	5.940309e+03	0	2.351974e-03
2.900000e+08	5.937055e+14	0.000000e+00	7.483447e-01	6.237768e+15	6.207443e+15	2.428396e+14	2.123661e+04	1.435169e+04	5.947154e+03	0	2.332548e-03
3.000000e+08	5.797171e+14	0.000000e+00	7.483447e-01	6.125707e+15	6.229518e+15	2.415702e+14	2.116708e+04	1.436221e+04	5.951513e+03	0	2.314083e-03
3.100000e+08	5.665960e+14	0.000000e+00	7.483447e-01	6.020345e+15	6.240644e+15	2.403101e+14	2.109879e+04	1.436750e+04	5.953706e+03	0	2.296491e-03
3.200000e+08	5.542511e+14	0.000000e+00	7.483447e-01	5.920984e+15	6.242219e+15	2.390592e+14	2.103167e+04	1.436825e+04	5.954016e+03	0	2.279690e-03
3.300000e+08	5.426013e+14	0.000000e+00	7.483447e-01	5.827001e+15	6.235496e+15	2.378173e+14	2.096566e+04	1.436505e+04	5.952691e+03	0	2.263605e-03
3.400000e+08	5.315745e+14	0.000000e+00	7.483447e-01	5.737842e+15	6.221605e+15	2.365845e+14	2.090068e+04	1.435844e+04	5.949952e+03	0	2.248166e-03
3.500000e+08	5.211068e+14	0.000000e+00	7.483447e-01	5.653017e+15	6.201549e+15	2.353606e+14	2.083670e+04	1.434887e+04	5.945988e+03	0	2.233311e-03
3.600000e+08	5.111419e+14	0.000000e+00	7.483447e-01	5.572095e+15	6.176216e+15	2.341456e+14	2.077367e+04	1.433676e+04	5.940968e+03	0	2.218984e-03
3.700000e+08	5.016302e+14	0.000000e+00	7.483447e-01	5.494692e+15	6.146384e+15	2.329394e+14	2.071153e+04	1.432245e+04	5.935039e+03	0	2.205133e-03
3.800000e+08	4.925279e+14	0.000000e+00	7.483447e-01	5.420475e+15	6.112743e+15	2.317419e+14	2.065025e+04	1.430626e+04	5.928329e+03	0	2.191714e-03
3.900000e+08	4.837964e+14	0.000000e+00	7.483447e-01	5.349145e+15	6.075899e+15	2.305531e+14	2.058979e+04	1.428845e+04	5.920949e+03	0	2.178685e-03
4.000000e+08	4.754018e+14	0.000000e+00	7.483447e-01	5.280442e+15	6.036370e+15	2.293729e+14	2.053013e+04	1.426926e+04	5.912997e+03	0	2.166011e-03
4.100000e+08	4.673142e+14	0.000000e+00	7.483447e-01	5.214138e+15	5.994615e+15	2.282011e+14	2.047123e+04	1.424889e+04	5.904558e+03	0	2.153657e-03
4.200000e+08	4.595074e+14	0.000000e+00	7.483447e-01	5.150029e+15	5.951033e+15	2.270378e+14	2.041306e+04	1.422753e+04	5.895705e+03	0	2.141597e-03
4.300000e+08	4.519581e+14	0.000000e+00	7.483447e-01	5.087937e+15	5.905966e+15	2.258829e+14	2.035561e+04	1.420532e+04	5.886502e+03	0	2.129804e-03
4.400000e+08	4.446459e+14	0.000000e+00	7.483447e-01	5.027705e+15	5.859718e+15	2.247363e+14	2.029885e+04	1.418241e+04	5.877007e+03	0	2.118256e-03
4.500000e+08	4.375526e+14	0.000000e+00	7.483447e-01	4.969193e+15	5.812541e+15	2.235980e+14	2.024276e+04	1.415890e+04	5.867267e+03	0	2.106931e-03
4.600000e+08	4.306623e+14	0.000000e+00	7.483447e-01	4.912278e+15	5.764664e+15	2.224678e+14	2.018732e+04	1.413491e+04	5.857325e+03	0	2.095813e-03
4.700000e+08	4.239608e+14	0.000000e+00	7.483447e-01	4.856850e+15	5.716274e+15	2.213457e+14	2.013251e+04	1.411052e+04	5.847218e+03	0	2.084885e-03
4.800000e+08	4.174354e+14	0.000000e+00	7.483447e-01	4.802812e+15	5.667538e+15	2.202317e+14	2.007831e+04	1.408581e+04	5.836978e+03	0	2.074134e-03
4.900000e+08	4.110748e+14	0.000000e+00	7.483447e-01	4.750077e+15	5.618599e+15	2.191256e+14	2.002472e+04	1.406084e+04	5.826632e+03	0	2.063545e-03
5.000000e+08	4.048691e+14	0.000000e+00	7.483447e-01	4.698567e+15	5.569577e+15	2.180275e+14	1.997171e+04	1.403568e+04	5.816206e+03	0	2.053108e-03
5.100000e+08	3.988093e+14	0.000000e+00	7.483447e-01	4.648214e+15	5.520577e+15	2.169371e+14	1.991928e+04	1.401038e+04	5.805719e+03	0	2.042813e-03
5.200000e+08	3.928872e+14	0.000000e+00	7.483447e-01	4.598955e+15	5.471689e+15	2.158546e+14	1.986740e+04	1.398497e+04	5.795191e+03	0	2.032652e-03
5.300000e+08	3.870958e+14	0.000000e+00	7.483447e-01	4.550733e+15	5.422987e+15	2.147798e+14	1.981608e+04	1.395950e+04	5.784637e+03	0	2.022614e-03
5.400000e+08	3.814283e+14	0.000000e+00	7.483447e-01	4.503498e+15	5.374536e+15	2.137127e+14	1.976528e+04	1.393400e+04	5.774071e+03	0	2.012695e-03
5.500000e+08	3.758789e+14	0.000000e+00	7.483447e-01	4.457204e+15	5.326390e+15	2.126531e+14	1.971502e+04	1.390850e+04	5.763505e+03	0	2.002886e-03
5.600000e+08	3.704423e+14	0.000000e+00	7.483447e-01	4.411810e+15	5.278593e+15	2.116011e+14	1.966526e+04	1.388303e+04	5.752949e+03	0	1.993183e-03
5.700000e+08	3.651135e+14	0.000000e+00	7.483447e-01	4.367276e+15	5.231187e+15	2.105565e+14	1.961602e+04	1.385760e+04	5.742412e+03	0	1.983579e-03
5.800000e+08	3.598880e+14	0.000000e+00	7.483447e-01	4.323569e+15	5.184201e+15	2.095194e+14	1.956726e+04	1.383224e+04	5.731903e+03	0	1.974071e-03
5.900000e+08	3.547617e+14	0.000000e+00	7.483447e-01	4.280657e+15	5.137661e+15	2.084896e+14	1.951900e+04	1.380696e+04	5.721427e+03	0	1.964653e-03
6.000000e+08	3.497310e+14	0.000000e+00	7.483447e-01	4.238510e+15	5.091591e+15	2.074671e+14	1.947121e+04	1.378178e+04	5.710990e+03	0	1.955322e-03
6.100000e+08	3.447923e+14	0.000000e+00	7.483447e-01	4.197100e+15	5.046007e+15	2.064518e+14	1.942389e+04	1.375670e+04	5.700598e+03	0	1.946075e-03
6.200000e+08	3.399423e+14	0.000000e+00	7.483447e-01	4.156404e+15	5.000919e+15	2.054437e+14	1.937703e+04	1.373174e+04	5.690255e+03	0	1.936907e-03
6.300000e+08	3.351782e+14	0.000000e+00	7.483447e-01	4.116397e+15	4.956342e+15	2.044427e+14	1.933062e+04	1.370690e+04	5.679963e+03	0	1.927816e-03
6.400000e+08	3.304971e+14	0.000000e+00	7.483447e-01	4.077058e+15	4.912283e+15	2.034488e+14	1.928466e+04	1.368220e+04	5.669727e+03	0	1.918799e-03
6.500000e+08	3.258964e+14	0.000000e+00	7.483447e-01	4.038366e+15	4.868748e+15	2.024619e+14	1.923913e+04	1.365764e+04	5.659548e+03	0	1.909854e-03
6.600000e+08	3.213737e+14	0.000000e+00	7.483447e-01	4.000303e+15	4.825740e+15	2.014819e+14	1.919404e+04	1.363322e+04	5.649430e+03	0	1.900978e-03
6.700000e+08	3.169268e+14	0.000000e+00	7.483447e-01	3.962850e+15	4.783256e+15	2.005088e+14	1.914937e+04	1.360895e+04	5.639373e+03	0	1.892169e-03
6.800000e+08	3.125535e+14	0.000000e+00	7.483447e-01	3.925991e+15	4.741307e+15	1.995426e+14	1.910511e+04	1.358483e+04	5.629379e+03	0	1.883425e-03
6.900000e+08	3.082518e+14	0.000000e+00	7.483447e-01	3.889710e+15	4.699882e+15	1.985831e+14	1.906127e+04	1.356087e+04	5.619450e+03	0	1.874745e-03
7.000000e+08	3.040197e+14	0.000000e+00	7.483447e-01	3.853992e+15	4.658985e+15	1.976304e+14	1.901783e+04	1.353707e+04	5.609586e+03	0	1.866126e-03
7.100000e+08	2.998554e+14	0.000000e+00	7.483447e-01	3.818821e+15	4.618609e+15	1.966843e+14	1.897478e+04	1.351342e+04	5.599788e+03	0	1.857566e-03
7.200000e+08	2.957573e+14	0.000000e+00	7.483447e-01	3.784186e+15	4.578755e+15	1.957448e+14	1.893213e+04	1.348994e+04	5.590056e+03	0	1.849065e-03
7.300000e+08	2.917237e+14	0.000000e+00	7.483447e-01	3.750072e+15	4.539416e+15	1.948119e+14	1.888986e+04	1.346662e+04	5.580392e+03	0	1.840620e-03
7.400000e+08	2.877529e+14	0.000000e+00	7.483447e-01	3.716468e+15	4.500589e+15	1.938855e+14	1.884798e+04	1.344346e+04	5.570796e+03	0	1.832231e-03
7.500000e+08	2.838436e+14	0.000000e+00	7.483447e-01	3.683361e+15	4.462267e+15	1.929656e+14	1.880646e+04	1.342046e+04	5.561266e+03	0	1.823896e-03
7.600000e+08	2.799943e+14	0.000000e+00	7.483447e-01	3.650741e+15	4.424445e+15	1.920521e+14	1.876532e+04	1.339763e+04	5.551804e+03	0	1.815613e-03
7.700000e+08	2.762035e+14	0.000000e+00	7.483447e-01	3.618596e+15	4.387115e+15	1.911449e+14	1.872453e+04	1.337496e+04	5.542410e+03	0	1.807382e-03
7.800000e+08	2.724701e+14	0.000000e+00	7.483447e-01	3.586915e+15	4.350275e+15	1.902441e+14	1.868411e+04	1.335245e+04	5.533082e+03	0	1.799202e-03
7.900000e+08	2.687927e+14	0.000000e+00	7.483447e-01	3.555690e+15	4.313916e+15	1.893495e+14	1.864404e+04	1.333010e+04	5.523822e+03	0	1.791071e-03
8.000000e+08	2.651700e+14	0.000000e+00	7.483447e-01	3.524909e+15	4.278033e+15	1.884611e+14	1.860431e+04	1.330792e+04	5.514629e+03	0	1.782988e-03
8.100000e+08	2.616010e+14	0.000000e+00	7.483447e-01	3.494564e+15	4.242618e+15	1.875788e+14	1.856493e+04	1.328589e+04	5.505501e+03	0	1.774953e-03
8.200000e+08	2.580845e+14	0.000000e+00	7.483447e-01	3.464646e+15	4.207664e+15	1.867027e+14	1.852589e+04	1.326402e+04	5.496440e+03	0	1.766964e-03
8.300000e+08	2.546193e+14	0.000000e+00	7.483447e-01	3.435146e+15	4.173166e+15	1.858326e+14	1.848718e+04	1.324232e+04	5.487445e+03	0	1.759020e-03
8.400000e+08	2.512045e+14	0.000000e+00	7.483447e-01	3.406055e+15	4.139115e+15	1.849686e+14	1.844880e+04	1.322076e+04	5.478514e+03	0	1.751121e-03
8.500000e+08	2.478390e+14	0.000000e+00	7.483447e-01	3.377366e+15	4.105506e+15	1.841105e+14	1.841074e+04	1.319937e+04	5.469648e+03	0	1.743265e-03
8.600000e+08	2.445218e+14	0.000000e+00	7.483447e-01	3.349070e+15	4.072333e+15	1.832583e+14	1.837300e+04	1.317813e+04	5.460846e+03	0	1.735453e-03
8.700000e+08	2.412518e+14	0.000000e+00	7.483447e-01	3.321159e+15	4.039584e+15	1.824120e+14	1.833557e+04	1.315704e+04	5.452108e+03	0	1.727682e-03
8.800000e+08	2.380283e+14	0.000000e+00	7.483447e-01	3.293627e+15	4.007260e+15	1.815715e+14	1.829846e+04	1.313611e+04	5.443433e+03	0	1.719953e-03
8.900000e+08	2.348503e+14	0.000000e+00	7.483447e-01	3.266465e+15	3.975350e+15	1.807367e+14	1.826165e+04	1.311532e+04	5.434820e+03	0	1.712264e-03
9.000000e+08	2.317169e+14	0.000000e+00	7.483447e-01	3.239667e+15	3.943846e+15	1.799077e+14	1.822515e+04	1.309469e+04	5.426270e+03	0	1.704614e-03
9.100000e+08	2.286272e+14	0.000000e+00	7.483447e-01	3.213227e+15	3.912744e+15	1.790844e+14	1.818894e+04	1.307420e+04	5.417780e+03	0	1.697004e-03
9.200000e+08	2.255804e+14	0.000000e+00	7.483447e-01	3.187136e+15	3.882038e+15	1.782667e+14	1.815303e+04	1.305386e+04	5.409351e+03	0	1.689432e-03
9.300000e+08	2.225757e+14	0.000000e+00	7.483447e-01	3.161389e+15	3.851719e+15	1.774547e+14	1.811741e+04	1.303367e+04	5.400983e+03	0	1.681897e-03
9.400000e+08	2.196122e+14	0.000000e+00	7.483447e-01	3.135980e+15	3.821784e+15	1.766481e+14	1.808208e+04	1.301361e+04	5.392673e+03	0	1.674400e-03
9.500000e+08	2.166893e+14	0.000000e+00	7.483447e-01	3.110902e+15	3.792222e+15	1.758471e+14	1.804703e+04	1.299370e+04	5.384423e+03	0	1.666938e-03
9.600000e+08	2.138062e+14	0.000000e+00	7.483447e-01	3.086149e+15	3.763031e+15	1.750515e+14	1.801225e+04	1.297394e+04	5.376231e+03	0	1.659512e-03
9.700000e+08	2.109621e+14	0.000000e+00	7.483447e-01	3.061716e+15	3.734205e+15	1.742614e+14	1.797776e+04	1.295431e+04	5.368097e+03	0	1.652121e-03
9.800000e+08	2.081564e+14	0.000000e+00	7.483447e-01	3.037596e+15	3.705736e+15	1.734766e+14	1.794353e+04	1.293481e+04	5.360020e+03	0	1.644764e-03
9.900000e+08	2.053883e+14	0.000000e+00	7.483447e-01	3.013784e+15	3.677619e+15	1.726972e+14	1.790958e+04	1.291546e+04	5.352000e+03	0	1.637440e-03
1.000000e+09	2.026571e+14	0.000000e+00	7.483447e-01	2.990275e+15	3.649848e+15	1.719230e+14	1.787589e+04	1.289624e+04	5.344035e+03	0	1.630150e-03
1.010000e+09	1.999622e+14	0.000000e+00	7.483447e-01	2.967063e+15	3.622418e+15	1.711541e+14	1.784246e+04	1.287715e+04	5.336126e+03	0	1.622892e-03
1.020000e+09	1.973030e+14	0.000000e+00	7.483447e-01	2.944143e+15	3.595323e+15	1.703904e+14	1.780929e+04	1.285820e+04	5.328271e+03	0	1.615666e-03
1.030000e+09	1.946787e+14	0.000000e+00	7.483447e-01	2.921510e+15	3.568557e+15	1.696319e+14	1.777638e+04	1.283937e+04	5.320471e+03	0	1.608471e-03
1.040000e+09	1.920889e+14	0.000000e+00	7.483447e-01	2.899160e+15	3.542115e+15	1.688785e+14	1.774372e+04	1.282068e+04	5.312724e+03	0	1.601306e-03
1.050000e+09	1.895328e+14	0.000000e+00	7.483447e-01	2.877086e+15	3.515994e+15	1.681302e+14	1.771130e+04	1.280211e+04	5.305030e+03	0	1.594172e-03
1.060000e+09	1.870099e+14	0.000000e+00	7.483447e-01	2.855285e+15	3.490185e+15	1.673870e+14	1.767914e+04	1.278367e+04	5.297389e+03	0	1.587067e-03
1.070000e+09	1.845197e+14	0.000000e+00	7.483447e-01	2.833752e+15	3.464686e+15	1.666487e+14	1.764721e+04	1.276536e+04	5.289799e+03	0	1.579991e-03
1.080000e+09	1.820615e+14	0.000000e+00	7.483447e-01	2.812483e+15	3.439490e+15	1.659154e+14	1.761553e+04	1.274717e+04	5.282261e+03	0	1.572943e-03
1.090000e+09	1.796348e+14	0.000000e+00	7.483447e-01	2.791472e+15	3.414593e+15	1.651871e+14	1.758408e+04	1.272910e+04	5.274774e+03	0	1.565923e-03
1.100000e+09	1.772390e+14	0.000000e+00	7.483447e-01	2.770715e+15	3.389990e+15	1.644636e+14	1.755287e+04	1.271115e+04	5.267336e+03	0	1.558931e-03
1.110000e+09	1.748738e+14	0.000000e+00	7.483447e-01	2.750210e+15	3.365676e+15	1.637450e+14	1.752189e+04	1.269332e+04	5.259949e+03	0	1.551965e-03
1.120000e+09	1.725384e+14	0.000000e+00	7.483447e-01	2.729950e+15	3.341649e+15	1.630312e+14	1.749113e+04	1.267561e+04	5.252611e+03	0	1.545025e-03
1.130000e+09	1.702325e+14	0.000000e+00	7.483447e-01	2.709932e+15	3.317901e+15	1.623222e+14	1.746061e+04	1.265802e+04	5.245321e+03	0	1.538111e-03
1.140000e+09	1.679555e+14	0.000000e+00	7.483447e-01	2.690153e+15	3.294428e+15	1.616179e+14	1.743030e+04	1.264055e+04	5.238079e+03	0	1.531223e-03
1.150000e+09	1.657069e+14	0.000000e+00	7.483447e-01	2.670608e+15	3.271228e+15	1.609183e+14	1.740022e+04	1.262319e+04	5.230885e+03	0	1.524359e-03
1.160000e+09	1.634863e+14	0.000000e+00	7.483447e-01	2.651293e+15	3.248294e+15	1.602234e+14	1.737035e+04	1.260594e+04	5.223738e+03	0	1.517519e-03
1.170000e+09	1.612932e+14	0.000000e+00	7.483447e-01	2.632205e+15	3.225625e+15	1.595331e+14	1.734070e+04	1.258880e+04	5.216638e+03	0	1.510703e-03
1.180000e+09	1.591272e+14	0.000000e+00	7.483447e-01	2.613340e+15	3.203213e+15	1.588475e+14	1.731127e+04	1.257178e+04	5.209584e+03	0	1.503910e-03
1.190000e+09	1.569878e+14	0.000000e+00	7.483447e-01	2.594695e+15	3.181056e+15	1.581663e+14	1.728204e+04	1.255487e+04	5.202575e+03	0	1.497140e-03
1.200000e+09	1.548746e+14	0.000000e+00	7.483447e-01	2.576266e+15	3.159151e+15	1.574897e+14	1.725302e+04	1.253806e+04	5.195611e+03	0	1.490392e-03
1.210000e+09	1.527872e+14	0.000000e+00	7.483447e-01	2.558050e+15	3.137493e+15	1.568176e+14	1.722421e+04	1.252137e+04	5.188693e+03	0	1.483665e-03
1.220000e+09	1.507250e+14	0.000000e+00	7.483447e-01	2.540042e+15	3.116078e+15	1.561499e+14	1.719560e+04	1.250478e+04	5.181818e+03	0	1.476960e-03
1.230000e+09	1.486878e+14	0.000000e+00	7.483447e-01	2.522241e+15	3.094902e+15	1.554867e+14	1.716719e+04	1.248829e+04	5.174987e+03	0	1.470276e-03
1.240000e+09	1.466752e+14	0.000000e+00	7.483447e-01	2.504642e+15	3.073962e+15	1.548278e+14	1.713897e+04	1.247191e+04	5.168199e+03	0	1.463612e-03
1.250000e+09	1.446867e+14	0.000000e+00	7.483447e-01	2.487243e+15	3.053256e+15	1.541733e+14	1.711096e+04	1.245563e+04	5.161454e+03	0	1.456967e-03
1.260000e+09	1.427219e+14	0.000000e+00	7.483447e-01	2.470041e+15	3.032777e+15	1.535231e+14	1.708314e+04	1.243946e+04	5.154752e+03	0	1.450342e-03
1.270000e+09	1.407805e+14	0.000000e+00	7.483447e-01	2.453031e+15	3.012525e+15	1.528772e+14	1.705551e+04	1.242339e+04	5.148091e+03	0	1.443736e-03
1.280000e+09	1.388622e+14	0.000000e+00	7.483447e-01	2.436213e+15	2.992493e+15	1.522355e+14	1.702807e+04	1.240741e+04	5.141472e+03	0	1.437148e-03
1.290000e+09	1.369665e+14	0.000000e+00	7.483447e-01	2.419582e+15	2.972681e+15	1.515980e+14	1.700082e+04	1.239154e+04	5.134894e+03	0	1.430579e-03
1.300000e+09	1.350931e+14	0.000000e+00	7.483447e-01	2.403135e+15	2.953084e+15	1.509648e+14	1.697375e+04	1.237576e+04	5.128356e+03	0	1.424026e-03
1.310000e+09	1.332416e+14	0.000000e+00	7.483447e-01	2.386871e+15	2.933699e+15	1.503356e+14	1.694687e+04	1.236008e+04	5.121859e+03	0	1.417491e-03
1.320000e+09	1.314117e+14	0.000000e+00	7.483447e-01	2.370785e+15	2.914523e+15	1.497106e+14	1.692016e+04	1.234450e+04	5.115402e+03	0	1.410972e-03
1.330000e+09	1.296032e+14	0.000000e+00	7.483447e-01	2.354876e+15	2.895553e+15	1.490897e+14	1.689364e+04	1.232901e+04	5.108984e+03	0	1.404469e-03
1.340000e+09	1.278155e+14	0.000000e+00	7.483447e-01	2.339141e+15	2.876786e+15	1.484729e+14	1.686730e+04	1.231362e+04	5.102605e+03	0	1.397982e-03
1.350000e+09	1.260485e+14	0.000000e+00	7.483447e-01	2.323577e+15	2.858218e+15	1.478601e+14	1.684113e+04	1.229832e+04	5.096264e+03	0	1.391510e-03
1.360000e+09	1.243019e+14	0.000000e+00	7.483447e-01	2.308181e+15	2.839848e+15	1.472512e+14	1.681513e+04	1.228311e+04	5.089962e+03	0	1.385052e-03
