#t		Qconv[W]	Ri[Rp]		R*[Rp]		Qc[W]		Qm[W]		Qr[W]		Tcmb[K]		Tl[K]		Tup[K]		RiFlag		Bs[T]
0.000000e+00	1.596636e+15	0.000000e+00	7.466666e-01	1.426559e+16	6.431588e+13	2.947268e+14	2.523786e+04	6.767823e+03	2.800021e+03	0	3.249399e-03
1.000000e+07	1.592745e+15	0.000000e+00	7.466666e-01	1.422295e+16	1.144212e+14	2.930938e+14	2.508607e+04	7.330286e+03	3.032727e+03	0	3.246757e-03
2.000000e+07	1.581047e+15	0.000000e+00	7.466666e-01	1.412136e+16	1.896029e+14	2.914730e+14	2.493472e+04	7.888615e+03	3.263722e+03	0	3.238789e-03
3.000000e+07	1.561807e+15	0.000000e+00	7.466666e-01	1.396288e+16	2.958776e+14	2.898643e+14	2.478445e+04	8.439427e+03	3.491607e+03	0	3.225598e-03
4.000000e+07	1.535501e+15	0.000000e+00	7.466666e-01	1.375114e+16	4.385362e+14	2.882676e+14	2.463585e+04	8.979198e+03	3.714924e+03	0	3.207385e-03
5.000000e+07	1.502799e+15	0.000000e+00	7.466666e-01	1.349126e+16	6.215039e+14	2.866829e+14	2.448950e+04	9.504364e+03	3.932198e+03	0	3.184452e-03
6.000000e+07	1.464537e+15	0.000000e+00	7.466666e-01	1.318962e+16	8.467967e+14	2.851099e+14	2.434590e+04	1.001144e+04	4.141990e+03	0	3.157194e-03
7.000000e+07	1.421686e+15	0.000000e+00	7.466666e-01	1.285358e+16	1.114158e+15	2.835487e+14	2.420549e+04	1.049717e+04	4.342946e+03	0	3.126096e-03
8.000000e+07	1.375292e+15	0.000000e+00	7.466666e-01	1.249108e+16	1.420935e+15	2.819991e+14	2.406865e+04	1.095861e+04	4.533855e+03	0	3.091715e-03
9.000000e+07	1.326431e+15	0.000000e+00	7.466666e-01	1.211026e+16	1.762218e+15	2.804610e+14	2.393565e+04	1.139329e+04	4.713696e+03	0	3.054658e-03
1.000000e+08	1.276149e+15	0.000000e+00	7.466666e-01	1.171906e+16	2.131217e+15	2.789343e+14	2.380670e+04	1.179930e+04	4.881670e+03	0	3.015562e-03
1.100000e+08	1.225418e+15	0.000000e+00	7.466666e-01	1.132483e+16	2.519813e+15	2.774189e+14	2.368189e+04	1.217530e+04	5.037231e+03	0	2.975060e-03
1.200000e+08	1.175096e+15	0.000000e+00	7.466666e-01	1.093407e+16	2.919212e+15	2.759148e+14	2.356127e+04	1.252058e+04	5.180083e+03	0	2.933767e-03
1.300000e+08	1.125908e+15	0.000000e+00	7.466666e-01	1.055223e+16	3.320584e+15	2.744218e+14	2.344480e+04	1.283503e+04	5.310180e+03	0	2.892247e-03
1.400000e+08	1.078429e+15	0.000000e+00	7.466666e-01	1.018365e+16	3.715646e+15	2.729399e+14	2.333238e+04	1.311908e+04	5.427701e+03	0	2.851006e-03
1.500000e+08	1.033085e+15	0.000000e+00	7.466666e-01	9.831548e+15	4.097101e+15	2.714689e+14	2.322387e+04	1.337365e+04	5.533020e+03	0	2.810475e-03
1.600000e+08	9.901667e+14	0.000000e+00	7.466666e-01	9.498105e+15	4.458913e+15	2.700088e+14	2.311910e+04	1.360001e+04	5.626671e+03	0	2.771004e-03
1.700000e+08	9.498418e+14	0.000000e+00	7.466666e-01	9.184566e+15	4.796460e+15	2.685595e+14	2.301788e+04	1.379975e+04	5.709310e+03	0	2.732865e-03
1.800000e+08	9.121761e+14	0.000000e+00	7.466666e-01	8.891413e+15	5.106521e+15	2.671208e+14	2.291998e+04	1.397466e+04	5.781673e+03	0	2.696253e-03
1.900000e+08	8.771539e+14	0.000000e+00	7.466666e-01	8.618505e+15	5.387173e+15	2.656928e+14	2.282520e+04	1.412663e+04	5.844547e+03	0	2.661295e-03
2.000000e+08	8.446977e+14	0.000000e+00	7.466666e-01	8.365241e+15	5.637639e+15	2.642752e+14	2.273332e+04	1.425761e+04	5.898739e+03	0	2.628057e-03
2.100000e+08	8.146865e+14	0.000000e+00	7.466666e-01	8.130687e+15	5.858073e+15	2.628681e+14	2.264413e+04	1.436955e+04	5.945049e+03	0	2.596557e-03
2.200000e+08	7.869704e+14	0.000000e+00	7.466666e-01	7.913692e+15	6.049370e+15	2.614713e+14	2.255744e+04	1.446431e+04	5.984255e+03	0	2.566771e-03
2.300000e+08	7.613834e+14	0.000000e+00	7.466666e-01	7.712987e+15	6.212958e+15	2.600848e+14	2.247305e+04	1.454369e+04	6.017098e+03	0	2.538646e-03
2.400000e+08	7.377527e+14	0.000000e+00	7.466666e-01	7.527251e+15	6.350628e+15	2.587084e+14	2.239079e+04	1.460937e+04	6.044269e+03	0	2.512106e-03
2.500000e+08	7.159060e+14	0.000000e+00	7.466666e-01	7.355168e+15	6.464390e+15	2.573421e+14	2.231051e+04	1.466289e+04	6.066413e+03	0	2.487061e-03
2.600000e+08	6.956765e+14	0.000000e+00	7.466666e-01	7.195464e+15	6.556360e+15	2.559858e+14	2.223205e+04	1.470568e+04	6.084115e+03	0	2.463411e-03
2.700000e+08	6.769063e+14	0.000000e+00	7.466666e-01	7.046936e+15	6.628650e+15	2.546395e+14	2.215529e+04	1.473902e+04	6.097908e+03	0	2.441053e-03
2.800000e+08	6.594485e+14	0.000000e+00	7.466666e-01	6.908461e+15	6.683335e+15	2.533029e+14	2.208012e+04	1.476407e+04	6.108272e+03	0	2.419885e-03
2.900000e+08	6.431678e+14	0.000000e+00	7.466666e-01	6.779010e+15	6.722385e+15	2.519761e+14	2.200641e+04	1.478187e+04	6.115636e+03	0	2.399804e-03
3.000000e+08	6.279414e+14	0.000000e+00	7.466666e-01	6.657646e+15	6.747632e+15	2.506590e+14	2.193408e+04	1.479334e+04	6.120382e+03	0	2.380715e-03
3.100000e+08	6.136586e+14	0.000000e+00	7.466666e-01	6.543525e+15	6.760777e+15	2.493515e+14	2.186304e+04	1.479930e+04	6.122847e+03	0	2.362526e-03
3.200000e+08	6.002201e+14	0.000000e+00	7.466666e-01	6.435889e+15	6.763361e+15	2.480535e+14	2.179321e+04	1.480047e+04	6.123332e+03	0	2.345153e-03
3.300000e+08	5.875375e+14	0.000000e+00	7.466666e-01	6.334065e+15	6.756780e+15	2.467649e+14	2.172453e+04	1.479749e+04	6.122098e+03	0	2.328518e-03
3.400000e+08	5.755321e+14	0.000000e+00	7.466666e-01	6.237452e+15	6.742278e+15	2.454857e+14	2.165693e+04	1.479091e+04	6.119377e+03	0	2.312549e-03
3.500000e+08	5.641344e+14	0.000000e+00	7.466666e-01	6.145521e+15	6.720970e+15	2.442158e+14	2.159036e+04	1.478122e+04	6.115370e+03	0	2.297181e-03
3.600000e+08	5.532830e+14	0.000000e+00	7.466666e-01	6.057804e+15	6.693835e+15	2.429550e+14	2.152476e+04	1.476886e+04	6.110255e+03	0	2.282357e-03
3.700000e+08	5.429238e+14	0.000000e+00	7.466666e-01	5.973887e+15	6.661740e+15	2.417035e+14	2.146010e+04	1.475419e+04	6.104186e+03	0	2.268022e-03
3.800000e+08	5.330091e+14	0.000000e+00	7.466666e-01	5.893407e+15	6.625442e+15	2.404609e+14	2.139633e+04	1.473754e+04	6.097298e+03	0	2.254132e-03
3.900000e+08	5.234971e+14	0.000000e+00	7.466666e-01	5.816044e+15	6.585609e+15	2.392274e+14	2.133341e+04	1.471920e+04	6.089709e+03	0	2.240642e-03
4.000000e+08	5.143508e+14	0.000000e+00	7.466666e-01	5.741516e+15	6.542818e+15	2.380027e+14	2.127132e+04	1.469941e+04	6.081520e+03	0	2.227516e-03
4.100000e+08	5.055378e+14	0.000000e+00	7.466666e-01	5.669575e+15	6.497583e+15	2.367869e+14	2.121002e+04	1.467838e+04	6.072821e+03	0	2.214720e-03
4.200000e+08	4.970294e+14	0.000000e+00	7.466666e-01	5.600004e+15	6.450328e+15	2.355798e+14	2.114948e+04	1.465631e+04	6.063690e+03	0	2.202225e-03
4.300000e+08	4.888005e+14	0.000000e+00	7.466666e-01	5.532609e+15	6.401442e+15	2.343815e+14	2.108969e+04	1.463336e+04	6.054195e+03	0	2.190004e-03
4.400000e+08	4.808288e+14	0.000000e+00	7.466666e-01	5.467220e+15	6.351257e+15	2.331918e+14	2.103061e+04	1.460967e+04	6.044392e+03	0	2.178034e-03
4.500000e+08	4.730949e+14	0.000000e+00	7.466666e-01	5.403688e+15	6.300047e+15	2.320106e+14	2.097222e+04	1.458536e+04	6.034335e+03	0	2.166293e-03
4.600000e+08	4.655812e+14	0.000000e+00	7.466666e-01	5.341879e+15	6.248067e+15	2.308379e+14	2.091452e+04	1.456054e+04	6.024067e+03	0	2.154763e-03
4.700000e+08	4.582723e+14	0.000000e+00	7.466666e-01	5.281676e+15	6.195522e+15	2.296736e+14	2.085746e+04	1.453530e+04	6.013627e+03	0	2.143428e-03
4.800000e+08	4.511547e+14	0.000000e+00	7.466666e-01	5.222973e+15	6.142599e+15	2.285176e+14	2.080105e+04	1.450973e+04	6.003047e+03	0	2.132273e-03
4.900000e+08	4.442162e+14	0.000000e+00	7.466666e-01	5.165678e+15	6.089448e+15	2.273699e+14	2.074527e+04	1.448390e+04	5.992359e+03	0	2.121286e-03
5.000000e+08	4.374458e+14	0.000000e+00	7.466666e-01	5.109707e+15	6.036207e+15	2.262305e+14	2.069009e+04	1.445786e+04	5.981586e+03	0	2.110454e-03
5.100000e+08	4.308339e+14	0.000000e+00	7.466666e-01	5.054985e+15	5.982988e+15	2.250991e+14	2.063551e+04	1.443167e+04	5.970750e+03	0	2.099766e-03
5.200000e+08	4.243717e+14	0.000000e+00	7.466666e-01	5.001445e+15	5.929887e+15	2.239759e+14	2.058151e+04	1.440537e+04	5.959872e+03	0	2.089215e-03
5.300000e+08	4.180514e+14	0.000000e+00	7.466666e-01	4.949028e+15	5.876993e+15	2.228606e+14	2.052808e+04	1.437902e+04	5.948966e+03	0	2.078792e-03
5.400000e+08	4.118660e+14	0.000000e+00	7.466666e-01	4.897678e+15	5.824366e+15	2.217533e+14	2.047521e+04	1.435263e+04	5.938048e+03	0	2.068488e-03
5.500000e+08	4.058090e+14	0.000000e+00	7.466666e-01	4.847346e+15	5.772073e+15	2.206539e+14	2.042289e+04	1.432624e+04	5.927130e+03	0	2.058298e-03
5.600000e+08	3.998746e+14	0.000000e+00	7.466666e-01	4.797987e+15	5.720164e+15	2.195623e+14	2.037110e+04	1.429987e+04	5.916223e+03	0	2.048216e-03
5.700000e+08	3.940576e+14	0.000000e+00	7.466666e-01	4.749561e+15	5.668678e+15	2.184784e+14	2.031983e+04	1.427356e+04	5.905336e+03	0	2.038235e-03
5.800000e+08	3.883530e+14	0.000000e+00	7.466666e-01	4.702029e+15	5.617650e+15	2.174023e+14	2.026908e+04	1.424731e+04	5.894477e+03	0	2.028352e-03
5.900000e+08	3.827565e+14	0.000000e+00	7.466666e-01	4.655359e+15	5.567108e+15	2.163337e+14	2.021884e+04	1.422115e+04	5.883653e+03	0	2.018561e-03
6.000000e+08	3.772640e+14	0.000000e+00	7.466666e-01	4.609517e+15	5.517078e+15	2.152727e+14	2.016909e+04	1.419509e+04	5.872870e+03	0	2.008859e-03
6.100000e+08	3.718717e+14	0.000000e+00	7.466666e-01	4.564475e+15	5.467576e+15	2.142193e+14	2.011984e+04	1.416913e+04	5.862133e+03	0	1.999242e-03
6.200000e+08	3.665762e+14	0.000000e+00	7.466666e-01	4.520206e+15	5.418617e+15	2.131733e+14	2.007106e+04	1.414330e+04	5.851447e+03	0	1.989707e-03
6.300000e+08	3.613742e+14	0.000000e+00	7.466666e-01	4.476685e+15	5.370213e+15	2.121346e+14	2.002275e+04	1.411761e+04	5.840814e+03	0	1.980250e-03
6.400000e+08	3.562627e+14	0.000000e+00	7.466666e-01	4.433889e+15	5.322371e+15	2.111033e+14	1.997490e+04	1.409204e+04	5.830239e+03	0	1.970869e-03
6.500000e+08	3.512389e+14	0.000000e+00	7.466666e-01	4.391795e+15	5.275099e+15	2.100792e+14	1.992751e+04	1.406663e+04	5.819723e+03	0	1.961561e-03
6.600000e+08	3.463002e+14	0.000000e+00	7.466666e-01	4.350383e+15	5.228404e+15	2.090624e+14	1.988057e+04	1.404136e+04	5.809270e+03	0	1.952324e-03
6.700000e+08	3.414441e+14	0.000000e+00	7.466666e-01	4.309633e+15	5.182280e+15	2.080527e+14	1.983407e+04	1.401625e+04	5.798881e+03	0	1.943156e-03
6.800000e+08	3.366683e+14	0.000000e+00	7.466666e-01	4.269528e+15	5.136734e+15	2.070501e+14	1.978801e+04	1.399130e+04	5.788557e+03	0	1.934053e-03
6.900000e+08	3.319707e+14	0.000000e+00	7.466666e-01	4.230051e+15	5.091762e+15	2.060545e+14	1.974237e+04	1.396650e+04	5.778300e+03	0	1.925016e-03
7.000000e+08	3.273490e+14	0.000000e+00	7.466666e-01	4.191185e+15	5.047363e+15	2.050659e+14	1.969715e+04	1.394188e+04	5.768111e+03	0	1.916041e-03
7.100000e+08	3.228014e+14	0.000000e+00	7.466666e-01	4.152914e+15	5.003533e+15	2.040843e+14	1.965234e+04	1.391741e+04	5.757990e+03	0	1.907127e-03
7.200000e+08	3.183260e+14	0.000000e+00	7.466666e-01	4.115225e+15	4.960267e+15	2.031095e+14	1.960795e+04	1.389312e+04	5.747938e+03	0	1.898272e-03
7.300000e+08	3.139209e+14	0.000000e+00	7.466666e-01	4.078102e+15	4.917563e+15	2.021415e+14	1.956395e+04	1.386899e+04	5.737956e+03	0	1.889475e-03
7.400000e+08	3.095846e+14	0.000000e+00	7.466666e-01	4.041533e+15	4.875415e+15	2.011802e+14	1.952035e+04	1.384503e+04	5.728043e+03	0	1.880735e-03
7.500000e+08	3.053153e+14	0.000000e+00	7.466666e-01	4.005504e+15	4.833817e+15	2.002257e+14	1.947714e+04	1.382124e+04	5.718200e+03	0	1.872049e-03
7.600000e+08	3.011116e+14	0.000000e+00	7.466666e-01	3.970005e+15	4.792761e+15	1.992778e+14	1.943431e+04	1.379762e+04	5.708427e+03	0	1.863418e-03
7.700000e+08	2.969719e+14	0.000000e+00	7.466666e-01	3.935022e+15	4.752244e+15	1.983365e+14	1.939186e+04	1.377416e+04	5.698724e+03	0	1.854839e-03
7.800000e+08	2.928947e+14	0.000000e+00	7.466666e-01	3.900544e+15	4.712257e+15	1.974018e+14	1.934979e+04	1.375088e+04	5.689090e+03	0	1.846311e-03
7.900000e+08	2.888788e+14	0.000000e+00	7.466666e-01	3.866561e+15	4.672794e+15	1.964735e+14	1.930808e+04	1.372776e+04	5.679526e+03	0	1.837834e-03
8.000000e+08	2.849227e+14	0.000000e+00	7.466666e-01	3.833062e+15	4.633845e+15	1.955517e+14	1.926673e+04	1.370481e+04	5.670030e+03	0	1.829406e-03
8.100000e+08	2.810253e+14	0.000000e+00	7.466666e-01	3.800036e+15	4.595408e+15	1.946363e+14	1.922574e+04	1.368203e+04	5.660603e+03	0	1.821026e-03
8.200000e+08	2.771851e+14	0.000000e+00	7.466666e-01	3.767475e+15	4.557472e+15	1.937272e+14	1.918510e+04	1.365941e+04	5.651245e+03	0	1.812693e-03
8.300000e+08	2.734012e+14	0.000000e+00	7.466666e-01	3.735369e+15	4.520029e+15	1.928243e+14	1.914481e+04	1.363695e+04	5.641954e+03	0	1.804407e-03
8.400000e+08	2.696722e+14	0.000000e+00	7.466666e-01	3.703707e+15	4.483077e+15	1.919278e+14	1.910486e+04	1.361466e+04	5.632731e+03	0	1.796166e-03
8.500000e+08	2.659971e+14	0.000000e+00	7.466666e-01	3.672482e+15	4.446601e+15	1.910374e+14	1.906525e+04	1.359252e+04	5.623575e+03	0	1.787969e-03
8.600000e+08	2.623748e+14	0.000000e+00	7.466666e-01	3.641686e+15	4.410597e+15	1.901531e+14	1.902597e+04	1.357055e+04	5.614485e+03	0	1.779816e-03
8.700000e+08	2.588042e+14	0.000000e+00	7.466666e-01	3.611308e+15	4.375059e+15	1.892750e+14	1.898702e+04	1.354874e+04	5.605460e+03	0	1.771705e-03
8.800000e+08	2.552843e+14	0.000000e+00	7.466666e-01	3.581342e+15	4.339980e+15	1.884028e+14	1.894839e+04	1.352709e+04	5.596501e+03	0	1.763637e-03
8.900000e+08	2.518141e+14	0.000000e+00	7.466666e-01	3.551780e+15	4.305350e+15	1.875367e+14	1.891009e+04	1.350559e+04	5.587606e+03	0	1.755609e-03
9.000000e+08	2.483927e+14	0.000000e+00	7.466666e-01	3.522613e+15	4.271163e+15	1.866765e+14	1.887209e+04	1.348424e+04	5.578775e+03	0	1.747621e-03
9.100000e+08	2.450191e+14	0.000000e+00	7.466666e-01	3.493835e+15	4.237413e+15	1.858222e+14	1.883441e+04	1.346305e+04	5.570008e+03	0	1.739673e-03
9.200000e+08	2.416924e+14	0.000000e+00	7.466666e-01	3.465438e+15	4.204090e+15	1.849738e+14	1.879704e+04	1.344201e+04	5.561304e+03	0	1.731764e-03
9.300000e+08	2.384118e+14	0.000000e+00	7.466666e-01	3.437415e+15	4.171191e+15	1.841312e+14	1.875996e+04	1.342112e+04	5.552661e+03	0	1.723893e-03
9.400000e+08	2.351762e+14	0.000000e+00	7.466666e-01	3.409760e+15	4.138706e+15	1.832943e+14	1.872319e+04	1.340038e+04	5.544080e+03	0	1.716059e-03
9.500000e+08	2.319850e+14	0.000000e+00	7.466666e-01	3.382465e+15	4.106630e+15	1.824631e+14	1.868671e+04	1.337979e+04	5.535560e+03	0	1.708262e-03
9.600000e+08	2.288373e+14	0.000000e+00	7.466666e-01	3.355523e+15	4.074955e+15	1.816376e+14	1.865052e+04	1.335934e+04	5.527101e+03	0	1.700500e-03
9.700000e+08	2.257322e+14	0.000000e+00	7.466666e-01	3.328930e+15	4.043677e+15	1.808177e+14	1.861462e+04	1.333904e+04	5.518701e+03	0	1.692774e-03
9.800000e+08	2.226690e+14	0.000000e+00	7.466666e-01	3.302677e+15	4.012786e+15	1.800034e+14	1.857901e+04	1.331888e+04	5.510360e+03	0	1.685082e-03
9.900000e+08	2.196470e+14	0.000000e+00	7.466666e-01	3.276760e+15	3.982277e+15	1.791947e+14	1.854367e+04	1.329886e+04	5.502077e+03	0	1.677424e-03
1.000000e+09	2.166654e+14	0.000000e+00	7.466666e-01	3.251173e+15	3.952144e+15	1.783914e+14	1.850861e+04	1.327898e+04	5.493852e+03	0	1.669799e-03
1.010000e+09	2.137235e+14	0.000000e+00	7.466666e-01	3.225909e+15	3.922382e+15	1.775936e+14	1.847382e+04	1.325924e+04	5.485685e+03	0	1.662207e-03
1.020000e+09	2.108205e+14	0.000000e+00	7.466666e-01	3.200963e+15	3.892985e+15	1.768012e+14	1.843930e+04	1.323963e+04	5.477574e+03	0	1.654647e-03
1.030000e+09	2.079558e+14	0.000000e+00	7.466666e-01	3.176329e+15	3.863944e+15	1.760141e+14	1.840505e+04	1.322016e+04	5.469519e+03	0	1.647118e-03
1.040000e+09	2.051287e+14	0.000000e+00	7.466666e-01	3.152002e+15	3.835256e+15	1.752324e+14	1.837106e+04	1.320083e+04	5.461519e+03	0	1.639620e-03
1.050000e+09	2.023385e+14	0.000000e+00	7.466666e-01	3.127978e+15	3.806913e+15	1.744559e+14	1.833733e+04	1.318162e+04	5.453574e+03	0	1.632152e-03
1.060000e+09	1.995847e+14	0.000000e+00	7.466666e-01	3.104249e+15	3.778913e+15	1.736847e+14	1.830386e+04	1.316255e+04	5.445683e+03	0	1.624713e-03
1.070000e+09	1.968665e+14	0.000000e+00	7.466666e-01	3.080813e+15	3.751247e+15	1.729187e+14	1.827064e+04	1.314361e+04	5.437846e+03	0	1.617304e-03
1.080000e+09	1.941833e+14	0.000000e+00	7.466666e-01	3.057663e+15	3.723912e+15	1.721578e+14	1.823767e+04	1.312479e+04	5.430062e+03	0	1.609923e-03
1.090000e+09	1.915347e+14	0.000000e+00	7.466666e-01	3.034795e+15	3.696902e+15	1.714020e+14	1.820494e+04	1.310611e+04	5.422331e+03	0	1.602569e-03
1.100000e+09	1.889198e+14	0.000000e+00	7.466666e-01	3.012204e+15	3.670210e+15	1.706513e+14	1.817246e+04	1.308754e+04	5.414651e+03	0	1.595243e-03
1.110000e+09	1.863383e+14	0.000000e+00	7.466666e-01	2.989885e+15	3.643832e+15	1.699057e+14	1.814022e+04	1.306910e+04	5.407022e+03	0	1.587944e-03
1.120000e+09	1.837895e+14	0.000000e+00	7.466666e-01	2.967835e+15	3.617764e+15	1.691650e+14	1.810822e+04	1.305079e+04	5.399445e+03	0	1.580670e-03
1.130000e+09	1.812728e+14	0.000000e+00	7.466666e-01	2.946048e+15	3.592002e+15	1.684294e+14	1.807646e+04	1.303259e+04	5.391918e+03	0	1.573422e-03
1.140000e+09	1.787878e+14	0.000000e+00	7.466666e-01	2.924520e+15	3.566538e+15	1.676986e+14	1.804493e+04	1.301452e+04	5.384440e+03	0	1.566199e-03
1.150000e+09	1.763339e+14	0.000000e+00	7.466666e-01	2.903248e+15	3.541369e+15	1.669727e+14	1.801362e+04	1.299657e+04	5.377011e+03	0	1.559001e-03
1.160000e+09	1.739105e+14	0.000000e+00	7.466666e-01	2.882226e+15	3.516491e+15	1.662516e+14	1.798255e+04	1.297873e+04	5.369632e+03	0	1.551826e-03
1.170000e+09	1.715173e+14	0.000000e+00	7.466666e-01	2.861451e+15	3.491898e+15	1.655354e+14	1.795169e+04	1.296101e+04	5.362300e+03	0	1.544675e-03
1.180000e+09	1.691536e+14	0.000000e+00	7.466666e-01	2.840920e+15	3.467586e+15	1.648239e+14	1.792106e+04	1.294340e+04	5.355016e+03	0	1.537546e-03
1.190000e+09	1.668190e+14	0.000000e+00	7.466666e-01	2.820627e+15	3.443551e+15	1.641171e+14	1.789065e+04	1.292591e+04	5.347779e+03	0	1.530440e-03
1.200000e+09	1.645131e+14	0.000000e+00	7.466666e-01	2.800569e+15	3.419789e+15	1.634151e+14	1.786046e+04	1.290853e+04	5.340589e+03	0	1.523355e-03
1.210000e+09	1.622353e+14	0.000000e+00	7.466666e-01	2.780743e+15	3.396295e+15	1.627176e+14	1.783048e+04	1.289126e+04	5.333445e+03	0	1.516292e-03
1.220000e+09	1.599853e+14	0.000000e+00	7.466666e-01	2.761145e+15	3.373066e+15	1.620249e+14	1.780071e+04	1.287410e+04	5.326346e+03	0	1.509249e-03
1.230000e+09	1.577624e+14	0.000000e+00	7.466666e-01	2.741771e+15	3.350095e+15	1.613367e+14	1.777115e+04	1.285706e+04	5.319293e+03	0	1.502227e-03
1.240000e+09	1.555665e+14	0.000000e+00	7.466666e-01	2.722617e+15	3.327382e+15	1.606530e+14	1.774179e+04	1.284012e+04	5.312284e+03	0	1.495224e-03
1.250000e+09	1.533969e+14	0.000000e+00	7.466666e-01	2.703681e+15	3.304921e+15	1.599738e+14	1.771265e+04	1.282328e+04	5.305320e+03	0	1.488241e-03
1.260000e+09	1.512532e+14	0.000000e+00	7.466666e-01	2.684959e+15	3.282709e+15	1.592992e+14	1.768370e+04	1.280655e+04	5.298399e+03	0	1.481276e-03
1.270000e+09	1.491352e+14	0.000000e+00	7.466666e-01	2.666447e+15	3.260741e+15	1.586290e+14	1.765495e+04	1.278993e+04	5.291522e+03	0	1.474329e-03
1.280000e+09	1.470423e+14	0.000000e+00	7.466666e-01	2.648143e+15	3.239013e+15	1.579631e+14	1.762640e+04	1.277341e+04	5.284687e+03	0	1.467400e-03
1.290000e+09	1.449742e+14	0.000000e+00	7.466666e-01	2.630043e+15	3.217524e+15	1.573017e+14	1.759805e+04	1.275700e+04	5.277895e+03	0	1.460488e-03
1.300000e+09	1.429304e+14	0.000000e+00	7.466666e-01	2.612144e+15	3.196268e+15	1.566446e+14	1.756989e+04	1.274068e+04	5.271145e+03	0	1.453592e-03
1.310000e+09	1.409107e+14	0.000000e+00	7.466666e-01	2.594443e+15	3.175242e+15	1.559918e+14	1.754192e+04	1.272447e+04	5.264437e+03	0	1.446713e-03
1.320000e+09	1.389146e+14	0.000000e+00	7.466666e-01	2.576937e+15	3.154443e+15	1.553433e+14	1.751414e+04	1.270835e+04	5.257769e+03	0	1.439849e-03
1.330000e+09	1.369417e+14	0.000000e+00	7.466666e-01	2.559623e+15	3.133868e+15	1.546990e+14	1.748654e+04	1.269233e+04	5.251143e+03	0	1.433000e-03
1.340000e+09	1.349917e+14	0.000000e+00	7.466666e-01	2.542498e+15	3.113513e+15	1.540590e+14	1.745914e+04	1.267641e+04	5.244557e+03	0	1.426166e-03
1.350000e+09	1.330643e+14	0.000000e+00	7.466666e-01	2.525560e+15	3.093376e+15	1.534231e+14	1.743191e+04	1.266059e+04	5.238010e+03	0	1.419346e-03
1.360000e+09	1.311591e+14	0.000000e+00	7.466666e-01	2.508805e+15	3.073452e+15	1.527914e+14	1.740486e+04	1.264486e+04	5.231503e+03	0	1.412539e-03
