#t		Qconv[W]	Ri[Rp]		R*[Rp]		Qc[W]		Qm[W]		Qr[W]		Tcmb[K]		Tl[K]		Tup[K]		RiFlag		Bs[T]
0.000000e+00	1.092465e+15	0.000000e+00	7.516781e-01	1.050806e+16	6.386694e+13	3.043997e+14	2.356770e+04	6.488683e+03	2.819506e+03	0	2.845607e-03
1.000000e+07	1.096572e+15	0.000000e+00	7.516781e-01	1.052846e+16	9.836361e+13	3.027131e+14	2.346737e+04	6.883554e+03	2.991088e+03	0	2.849168e-03
2.000000e+07	1.097142e+15	0.000000e+00	7.516781e-01	1.052254e+16	1.456512e+14	3.010391e+14	2.336685e+04	7.277616e+03	3.162318e+03	0	2.849662e-03
3.000000e+07	1.094164e+15	0.000000e+00	7.516781e-01	1.049023e+16	2.082721e+14	2.993777e+14	2.326639e+04	7.669386e+03	3.332553e+03	0	2.847081e-03
4.000000e+07	1.087685e+15	0.000000e+00	7.516781e-01	1.043192e+16	2.886474e+14	2.977286e+14	2.316624e+04	8.057282e+03	3.501104e+03	0	2.841451e-03
5.000000e+07	1.077819e+15	0.000000e+00	7.516781e-01	1.034847e+16	3.889056e+14	2.960918e+14	2.306663e+04	8.439656e+03	3.667256e+03	0	2.832834e-03
6.000000e+07	1.064741e+15	0.000000e+00	7.516781e-01	1.024122e+16	5.107113e+14	2.944672e+14	2.296783e+04	8.814820e+03	3.830275e+03	0	2.821329e-03
7.000000e+07	1.048686e+15	0.000000e+00	7.516781e-01	1.011192e+16	6.551105e+14	2.928548e+14	2.287004e+04	9.181084e+03	3.989426e+03	0	2.807076e-03
8.000000e+07	1.029943e+15	0.000000e+00	7.516781e-01	9.962761e+15	8.224089e+14	2.912543e+14	2.277349e+04	9.536799e+03	4.143994e+03	0	2.790252e-03
9.000000e+07	1.008845e+15	0.000000e+00	7.516781e-01	9.796234e+15	1.012096e+15	2.896657e+14	2.267835e+04	9.880399e+03	4.293297e+03	0	2.771068e-03
1.000000e+08	9.857590e+14	0.000000e+00	7.516781e-01	9.615081e+15	1.222826e+15	2.880889e+14	2.258480e+04	1.021044e+04	4.436710e+03	0	2.749768e-03
1.100000e+08	9.610717e+14	0.000000e+00	7.516781e-01	9.422193e+15	1.452458e+15	2.865238e+14	2.249298e+04	1.052566e+04	4.573679e+03	0	2.726618e-03
1.200000e+08	9.351755e+14	0.000000e+00	7.516781e-01	9.220498e+15	1.698158e+15	2.849704e+14	2.240299e+04	1.082497e+04	4.703736e+03	0	2.701905e-03
1.300000e+08	9.084555e+14	0.000000e+00	7.516781e-01	9.012872e+15	1.956533e+15	2.834284e+14	2.231493e+04	1.110751e+04	4.826511e+03	0	2.675923e-03
1.400000e+08	8.812778e+14	0.000000e+00	7.516781e-01	8.802042e+15	2.223821e+15	2.818978e+14	2.222884e+04	1.137268e+04	4.941734e+03	0	2.648968e-03
1.500000e+08	8.539789e+14	0.000000e+00	7.516781e-01	8.590513e+15	2.496070e+15	2.803786e+14	2.214476e+04	1.162010e+04	5.049245e+03	0	2.621329e-03
1.600000e+08	8.268581e+14	0.000000e+00	7.516781e-01	8.380513e+15	2.769337e+15	2.788705e+14	2.206270e+04	1.184964e+04	5.148985e+03	0	2.593280e-03
1.700000e+08	8.001732e+14	0.000000e+00	7.516781e-01	8.173957e+15	3.039855e+15	2.773736e+14	2.198264e+04	1.206138e+04	5.240991e+03	0	2.565077e-03
1.800000e+08	7.741374e+14	0.000000e+00	7.516781e-01	7.972427e+15	3.304173e+15	2.758878e+14	2.190454e+04	1.225561e+04	5.325392e+03	0	2.536949e-03
1.900000e+08	7.489200e+14	0.000000e+00	7.516781e-01	7.777179e+15	3.559267e+15	2.744128e+14	2.182837e+04	1.243282e+04	5.402391e+03	0	2.509098e-03
2.000000e+08	7.246485e+14	0.000000e+00	7.516781e-01	7.589153e+15	3.802606e+15	2.729488e+14	2.175406e+04	1.259360e+04	5.472257e+03	0	2.481694e-03
2.100000e+08	7.014116e+14	0.000000e+00	7.516781e-01	7.409003e+15	4.032174e+15	2.714955e+14	2.168154e+04	1.273871e+04	5.535311e+03	0	2.454879e-03
2.200000e+08	6.792640e+14	0.000000e+00	7.516781e-01	7.237128e+15	4.246481e+15	2.700528e+14	2.161073e+04	1.286897e+04	5.591911e+03	0	2.428764e-03
2.300000e+08	6.582313e+14	0.000000e+00	7.516781e-01	7.073710e+15	4.444532e+15	2.686208e+14	2.154157e+04	1.298526e+04	5.642443e+03	0	2.403432e-03
2.400000e+08	6.383147e+14	0.000000e+00	7.516781e-01	6.918750e+15	4.625774e+15	2.671992e+14	2.147396e+04	1.308851e+04	5.687305e+03	0	2.378943e-03
2.500000e+08	6.194962e+14	0.000000e+00	7.516781e-01	6.772107e+15	4.790052e+15	2.657881e+14	2.140783e+04	1.317964e+04	5.726905e+03	0	2.355331e-03
2.600000e+08	6.017430e+14	0.000000e+00	7.516781e-01	6.633528e+15	4.937529e+15	2.643873e+14	2.134309e+04	1.325959e+04	5.761646e+03	0	2.332613e-03
2.700000e+08	5.850114e+14	0.000000e+00	7.516781e-01	6.502679e+15	5.068645e+15	2.629967e+14	2.127968e+04	1.332927e+04	5.791922e+03	0	2.310790e-03
2.800000e+08	5.692499e+14	0.000000e+00	7.516781e-01	6.379173e+15	5.184045e+15	2.616163e+14	2.121752e+04	1.338954e+04	5.818113e+03	0	2.289848e-03
2.900000e+08	5.544027e+14	0.000000e+00	7.516781e-01	6.262585e+15	5.284511e+15	2.602460e+14	2.115653e+04	1.344125e+04	5.840582e+03	0	2.269765e-03
3.000000e+08	5.404115e+14	0.000000e+00	7.516781e-01	6.152475e+15	5.370943e+15	2.588857e+14	2.109666e+04	1.348518e+04	5.859672e+03	0	2.250508e-03
3.100000e+08	5.272174e+14	0.000000e+00	7.516781e-01	6.048399e+15	5.444291e+15	2.575352e+14	2.103783e+04	1.352208e+04	5.875704e+03	0	2.232042e-03
3.200000e+08	5.147622e+14	0.000000e+00	7.516781e-01	5.949920e+15	5.505539e+15	2.561946e+14	2.098000e+04	1.355262e+04	5.888974e+03	0	2.214325e-03
3.300000e+08	5.029898e+14	0.000000e+00	7.516781e-01	5.856613e+15	5.555674e+15	2.548638e+14	2.092310e+04	1.357744e+04	5.899759e+03	0	2.197314e-03
3.400000e+08	4.918464e+14	0.000000e+00	7.516781e-01	5.768075e+15	5.595657e+15	2.535426e+14	2.086710e+04	1.359712e+04	5.908312e+03	0	2.180966e-03
3.500000e+08	4.812814e+14	0.000000e+00	7.516781e-01	5.683923e+15	5.626421e+15	2.522310e+14	2.081194e+04	1.361220e+04	5.914863e+03	0	2.165237e-03
3.600000e+08	4.712474e+14	0.000000e+00	7.516781e-01	5.603802e+15	5.648850e+15	2.509288e+14	2.075758e+04	1.362315e+04	5.919623e+03	0	2.150084e-03
3.700000e+08	4.617003e+14	0.000000e+00	7.516781e-01	5.527379e+15	5.663776e+15	2.496362e+14	2.070398e+04	1.363043e+04	5.922784e+03	0	2.135465e-03
3.800000e+08	4.525995e+14	0.000000e+00	7.516781e-01	5.454349e+15	5.671978e+15	2.483529e+14	2.065112e+04	1.363442e+04	5.924517e+03	0	2.121341e-03
3.900000e+08	4.439077e+14	0.000000e+00	7.516781e-01	5.384432e+15	5.674169e+15	2.470788e+14	2.059895e+04	1.363548e+04	5.924981e+03	0	2.107673e-03
4.000000e+08	4.355910e+14	0.000000e+00	7.516781e-01	5.317370e+15	5.671014e+15	2.458140e+14	2.054745e+04	1.363395e+04	5.924314e+03	0	2.094428e-03
4.100000e+08	4.276181e+14	0.000000e+00	7.516781e-01	5.252931e+15	5.663115e+15	2.445583e+14	2.049658e+04	1.363010e+04	5.922643e+03	0	2.081570e-03
4.200000e+08	4.199609e+14	0.000000e+00	7.516781e-01	5.190902e+15	5.651021e+15	2.433116e+14	2.044633e+04	1.362421e+04	5.920083e+03	0	2.069071e-03
4.300000e+08	4.125939e+14	0.000000e+00	7.516781e-01	5.131091e+15	5.635233e+15	2.420739e+14	2.039668e+04	1.361650e+04	5.916735e+03	0	2.056901e-03
4.400000e+08	4.054939e+14	0.000000e+00	7.516781e-01	5.073323e+15	5.616198e+15	2.408451e+14	2.034759e+04	1.360719e+04	5.912689e+03	0	2.045034e-03
4.500000e+08	3.986399e+14	0.000000e+00	7.516781e-01	5.017441e+15	5.594323e+15	2.396252e+14	2.029905e+04	1.359646e+04	5.908027e+03	0	2.033446e-03
4.600000e+08	3.920132e+14	0.000000e+00	7.516781e-01	4.963303e+15	5.569970e+15	2.384140e+14	2.025105e+04	1.358449e+04	5.902822e+03	0	2.022116e-03
4.700000e+08	3.855966e+14	0.000000e+00	7.516781e-01	4.910780e+15	5.543466e+15	2.372115e+14	2.020356e+04	1.357141e+04	5.897139e+03	0	2.011022e-03
4.800000e+08	3.793748e+14	0.000000e+00	7.516781e-01	4.859756e+15	5.515097e+15	2.360176e+14	2.015658e+04	1.355736e+04	5.891036e+03	0	2.000147e-03
4.900000e+08	3.733340e+14	0.000000e+00	7.516781e-01	4.810127e+15	5.485134e+15	2.348322e+14	2.011008e+04	1.354247e+04	5.884564e+03	0	1.989474e-03
5.000000e+08	3.674616e+14	0.000000e+00	7.516781e-01	4.761799e+15	5.453799e+15	2.336554e+14	2.006405e+04	1.352684e+04	5.877771e+03	0	1.978988e-03
5.100000e+08	3.617463e+14	0.000000e+00	7.516781e-01	4.714686e+15	5.421304e+15	2.324869e+14	2.001849e+04	1.351055e+04	5.870696e+03	0	1.968674e-03
5.200000e+08	3.561781e+14	0.000000e+00	7.516781e-01	4.668712e+15	5.387832e+15	2.313268e+14	1.997337e+04	1.349371e+04	5.863377e+03	0	1.958521e-03
5.300000e+08	3.507475e+14	0.000000e+00	7.516781e-01	4.623806e+15	5.353542e+15	2.301749e+14	1.992869e+04	1.347638e+04	5.855846e+03	0	1.948516e-03
5.400000e+08	3.454465e+14	0.000000e+00	7.516781e-01	4.579906e+15	5.318579e+15	2.290313e+14	1.988444e+04	1.345863e+04	5.848133e+03	0	1.938650e-03
5.500000e+08	3.402672e+14	0.000000e+00	7.516781e-01	4.536956e+15	5.283073e+15	2.278958e+14	1.984061e+04	1.344052e+04	5.840263e+03	0	1.928912e-03
5.600000e+08	3.352031e+14	0.000000e+00	7.516781e-01	4.494902e+15	5.247137e+15	2.267683e+14	1.979719e+04	1.342210e+04	5.832259e+03	0	1.919295e-03
5.700000e+08	3.302478e+14	0.000000e+00	7.516781e-01	4.453698e+15	5.210869e+15	2.256489e+14	1.975417e+04	1.340342e+04	5.824142e+03	0	1.909790e-03
5.800000e+08	3.253956e+14	0.000000e+00	7.516781e-01	4.413301e+15	5.174357e+15	2.245374e+14	1.971155e+04	1.338452e+04	5.815930e+03	0	1.900391e-03
5.900000e+08	3.206415e+14	0.000000e+00	7.516781e-01	4.373673e+15	5.137680e+15	2.234338e+14	1.966930e+04	1.336544e+04	5.807640e+03	0	1.891091e-03
6.000000e+08	3.159808e+14	0.000000e+00	7.516781e-01	4.334777e+15	5.100907e+15	2.223380e+14	1.962744e+04	1.334621e+04	5.799286e+03	0	1.881883e-03
6.100000e+08	3.114091e+14	0.000000e+00	7.516781e-01	4.296581e+15	5.064097e+15	2.212500e+14	1.958595e+04	1.332687e+04	5.790880e+03	0	1.872763e-03
6.200000e+08	3.069226e+14	0.000000e+00	7.516781e-01	4.259055e+15	5.027304e+15	2.201696e+14	1.954482e+04	1.330743e+04	5.782435e+03	0	1.863726e-03
6.300000e+08	3.025176e+14	0.000000e+00	7.516781e-01	4.222171e+15	4.990569e+15	2.190969e+14	1.950405e+04	1.328793e+04	5.773961e+03	0	1.854767e-03
6.400000e+08	2.981908e+14	0.000000e+00	7.516781e-01	4.185905e+15	4.953940e+15	2.180317e+14	1.946363e+04	1.326838e+04	5.765466e+03	0	1.845882e-03
6.500000e+08	2.939392e+14	0.000000e+00	7.516781e-01	4.150233e+15	4.917448e+15	2.169741e+14	1.942356e+04	1.324880e+04	5.756959e+03	0	1.837067e-03
6.600000e+08	2.897600e+14	0.000000e+00	7.516781e-01	4.115134e+15	4.881124e+15	2.159238e+14	1.938383e+04	1.322921e+04	5.748447e+03	0	1.828319e-03
6.700000e+08	2.856505e+14	0.000000e+00	7.516781e-01	4.080587e+15	4.844995e+15	2.148810e+14	1.934443e+04	1.320963e+04	5.739936e+03	0	1.819634e-03
6.800000e+08	2.816083e+14	0.000000e+00	7.516781e-01	4.046574e+15	4.809086e+15	2.138455e+14	1.930536e+04	1.319006e+04	5.731432e+03	0	1.811010e-03
6.900000e+08	2.776312e+14	0.000000e+00	7.516781e-01	4.013078e+15	4.773415e+15	2.128173e+14	1.926662e+04	1.317051e+04	5.722940e+03	0	1.802444e-03
7.000000e+08	2.737171e+14	0.000000e+00	7.516781e-01	3.980083e+15	4.738001e+15	2.117962e+14	1.922820e+04	1.315101e+04	5.714464e+03	0	1.793934e-03
7.100000e+08	2.698640e+14	0.000000e+00	7.516781e-01	3.947573e+15	4.702855e+15	2.107823e+14	1.919009e+04	1.313155e+04	5.706008e+03	0	1.785476e-03
7.200000e+08	2.660701e+14	0.000000e+00	7.516781e-01	3.915535e+15	4.667993e+15	2.097755e+14	1.915229e+04	1.311214e+04	5.697576e+03	0	1.777070e-03
7.300000e+08	2.623337e+14	0.000000e+00	7.516781e-01	3.883955e+15	4.633422e+15	2.087758e+14	1.911480e+04	1.309280e+04	5.689171e+03	0	1.768712e-03
7.400000e+08	2.586531e+14	0.000000e+00	7.516781e-01	3.852822e+15	4.599154e+15	2.077830e+14	1.907761e+04	1.307352e+04	5.680795e+03	0	1.760401e-03
7.500000e+08	2.550269e+14	0.000000e+00	7.516781e-01	3.822122e+15	4.565196e+15	2.067971e+14	1.904072e+04	1.305432e+04	5.672451e+03	0	1.752136e-03
7.600000e+08	2.514537e+14	0.000000e+00	7.516781e-01	3.791846e+15	4.531551e+15	2.058181e+14	1.900412e+04	1.303520e+04	5.664141e+03	0	1.743914e-03
7.700000e+08	2.479320e+14	0.000000e+00	7.516781e-01	3.761983e+15	4.498226e+15	2.048459e+14	1.896781e+04	1.301615e+04	5.655866e+03	0	1.735734e-03
7.800000e+08	2.444605e+14	0.000000e+00	7.516781e-01	3.732522e+15	4.465223e+15	2.038805e+14	1.893178e+04	1.299720e+04	5.647629e+03	0	1.727595e-03
7.900000e+08	2.410381e+14	0.000000e+00	7.516781e-01	3.703455e+15	4.432548e+15	2.029218e+14	1.889604e+04	1.297833e+04	5.639431e+03	0	1.719495e-03
8.000000e+08	2.376636e+14	0.000000e+00	7.516781e-01	3.674772e+15	4.400198e+15	2.019697e+14	1.886057e+04	1.295955e+04	5.631272e+03	0	1.711433e-03
8.100000e+08	2.343360e+14	0.000000e+00	7.516781e-01	3.646464e+15	4.368176e+15	2.010242e+14	1.882537e+04	1.294087e+04	5.623154e+03	0	1.703408e-03
8.200000e+08	2.310540e+14	0.000000e+00	7.516781e-01	3.618524e+15	4.336481e+15	2.000853e+14	1.879045e+04	1.292228e+04	5.615077e+03	0	1.695418e-03
8.300000e+08	2.278168e+14	0.000000e+00	7.516781e-01	3.590944e+15	4.305117e+15	1.991529e+14	1.875579e+04	1.290379e+04	5.607043e+03	0	1.687463e-03
8.400000e+08	2.246233e+14	0.000000e+00	7.516781e-01	3.563716e+15	4.274081e+15	1.982269e+14	1.872140e+04	1.288540e+04	5.599052e+03	0	1.679541e-03
8.500000e+08	2.214727e+14	0.000000e+00	7.516781e-01	3.536832e+15	4.243371e+15	1.973072e+14	1.868727e+04	1.286711e+04	5.591104e+03	0	1.671652e-03
8.600000e+08	2.183640e+14	0.000000e+00	7.516781e-01	3.510287e+15	4.212987e+15	1.963940e+14	1.865339e+04	1.284892e+04	5.583201e+03	0	1.663794e-03
8.700000e+08	2.152964e+14	0.000000e+00	7.516781e-01	3.484073e+15	4.182924e+15	1.954870e+14	1.861977e+04	1.283084e+04	5.575341e+03	0	1.655966e-03
8.800000e+08	2.122691e+14	0.000000e+00	7.516781e-01	3.458183e+15	4.153185e+15	1.945862e+14	1.858640e+04	1.281285e+04	5.567526e+03	0	1.648168e-03
8.900000e+08	2.092813e+14	0.000000e+00	7.516781e-01	3.432613e+15	4.123763e+15	1.936917e+14	1.855327e+04	1.279497e+04	5.559756e+03	0	1.640398e-03
9.000000e+08	2.063322e+14	0.000000e+00	7.516781e-01	3.407355e+15	4.094657e+15	1.928033e+14	1.852039e+04	1.277719e+04	5.552030e+03	0	1.632656e-03
9.100000e+08	2.034210e+14	0.000000e+00	7.516781e-01	3.382403e+15	4.065867e+15	1.919209e+14	1.848775e+04	1.275951e+04	5.544349e+03	0	1.624941e-03
9.200000e+08	2.005471e+14	0.000000e+00	7.516781e-01	3.357753e+15	4.037386e+15	1.910446e+14	1.845535e+04	1.274194e+04	5.536713e+03	0	1.617253e-03
9.300000e+08	1.977098e+14	0.000000e+00	7.516781e-01	3.333398e+15	4.009214e+15	1.901744e+14	1.842318e+04	1.272447e+04	5.529122e+03	0	1.609590e-03
9.400000e+08	1.949083e+14	0.000000e+00	7.516781e-01	3.309334e+15	3.981346e+15	1.893100e+14	1.839125e+04	1.270710e+04	5.521575e+03	0	1.601951e-03
9.500000e+08	1.921421e+14	0.000000e+00	7.516781e-01	3.285556e+15	3.953780e+15	1.884516e+14	1.835954e+04	1.268984e+04	5.514073e+03	0	1.594336e-03
9.600000e+08	1.894105e+14	0.000000e+00	7.516781e-01	3.262057e+15	3.926512e+15	1.875990e+14	1.832807e+04	1.267268e+04	5.506616e+03	0	1.586745e-03
9.700000e+08	1.867129e+14	0.000000e+00	7.516781e-01	3.238835e+15	3.899538e+15	1.867522e+14	1.829681e+04	1.265561e+04	5.499202e+03	0	1.579176e-03
9.800000e+08	1.840487e+14	0.000000e+00	7.516781e-01	3.215883e+15	3.872856e+15	1.859112e+14	1.826578e+04	1.263866e+04	5.491833e+03	0	1.571629e-03
9.900000e+08	1.814173e+14	0.000000e+00	7.516781e-01	3.193197e+15	3.846460e+15	1.850759e+14	1.823497e+04	1.262180e+04	5.484508e+03	0	1.564103e-03
1.000000e+09	1.788182e+14	0.000000e+00	7.516781e-01	3.170773e+15	3.820352e+15	1.842462e+14	1.820438e+04	1.260504e+04	5.477227e+03	0	1.556597e-03
1.010000e+09	1.762507e+14	0.000000e+00	7.516781e-01	3.148606e+15	3.794523e+15	1.834222e+14	1.817400e+04	1.258838e+04	5.469988e+03	0	1.549112e-03
1.020000e+09	1.737145e+14	0.000000e+00	7.516781e-01	3.126693e+15	3.768972e+15	1.826038e+14	1.814383e+04	1.257183e+04	5.462793e+03	0	1.541645e-03
1.030000e+09	1.712088e+14	0.000000e+00	7.516781e-01	3.105028e+15	3.743693e+15	1.817909e+14	1.811387e+04	1.255537e+04	5.455641e+03	0	1.534197e-03
1.040000e+09	1.687333e+14	0.000000e+00	7.516781e-01	3.083609e+15	3.718686e+15	1.809835e+14	1.808412e+04	1.253900e+04	5.448532e+03	0	1.526767e-03
1.050000e+09	1.662875e+14	0.000000e+00	7.516781e-01	3.062431e+15	3.693947e+15	1.801816e+14	1.805457e+04	1.252274e+04	5.441465e+03	0	1.519354e-03
1.060000e+09	1.638707e+14	0.000000e+00	7.516781e-01	3.041490e+15	3.669469e+15	1.793850e+14	1.802522e+04	1.250657e+04	5.434440e+03	0	1.511957e-03
1.070000e+09	1.614827e+14	0.000000e+00	7.516781e-01	3.020782e+15	3.645253e+15	1.785939e+14	1.799608e+04	1.249050e+04	5.427457e+03	0	1.504577e-03
1.080000e+09	1.591229e+14	0.000000e+00	7.516781e-01	3.000304e+15	3.621294e+15	1.778080e+14	1.796713e+04	1.247453e+04	5.420515e+03	0	1.497212e-03
1.090000e+09	1.567908e+14	0.000000e+00	7.516781e-01	2.980053e+15	3.597587e+15	1.770275e+14	1.793838e+04	1.245865e+04	5.413614e+03	0	1.489862e-03
1.100000e+09	1.544860e+14	0.000000e+00	7.516781e-01	2.960024e+15	3.574131e+15	1.762521e+14	1.790982e+04	1.244286e+04	5.406754e+03	0	1.482525e-03
1.110000e+09	1.522082e+14	0.000000e+00	7.516781e-01	2.940215e+15	3.550920e+15	1.754820e+14	1.788145e+04	1.242716e+04	5.399934e+03	0	1.475203e-03
1.120000e+09	1.499568e+14	0.000000e+00	7.516781e-01	2.920622e+15	3.527954e+15	1.747171e+14	1.785328e+04	1.241156e+04	5.393155e+03	0	1.467893e-03
1.130000e+09	1.477314e+14	0.000000e+00	7.516781e-01	2.901241e+15	3.505227e+15	1.739572e+14	1.782529e+04	1.239605e+04	5.386415e+03	0	1.460596e-03
1.140000e+09	1.455317e+14	0.000000e+00	7.516781e-01	2.882070e+15	3.482736e+15	1.732025e+14	1.779748e+04	1.238063e+04	5.379715e+03	0	1.453310e-03
1.150000e+09	1.433572e+14	0.000000e+00	7.516781e-01	2.863105e+15	3.460480e+15	1.724527e+14	1.776986e+04	1.236530e+04	5.373054e+03	0	1.446036e-03
1.160000e+09	1.412076e+14	0.000000e+00	7.516781e-01	2.844343e+15	3.438455e+15	1.717080e+14	1.774242e+04	1.235006e+04	5.366432e+03	0	1.438771e-03
1.170000e+09	1.390825e+14	0.000000e+00	7.516781e-01	2.825781e+15	3.416655e+15	1.709683e+14	1.771516e+04	1.233491e+04	5.359848e+03	0	1.431517e-03
1.180000e+09	1.369815e+14	0.000000e+00	7.516781e-01	2.807417e+15	3.395081e+15	1.702334e+14	1.768808e+04	1.231985e+04	5.353303e+03	0	1.424272e-03
1.190000e+09	1.349042e+14	0.000000e+00	7.516781e-01	2.789247e+15	3.373727e+15	1.695035e+14	1.766117e+04	1.230487e+04	5.346795e+03	0	1.417036e-03
1.200000e+09	1.328503e+14	0.000000e+00	7.516781e-01	2.771268e+15	3.352592e+15	1.687784e+14	1.763443e+04	1.228998e+04	5.340325e+03	0	1.409808e-03
1.210000e+09	1.308194e+14	0.000000e+00	7.516781e-01	2.753478e+15	3.331672e+15	1.680581e+14	1.760787e+04	1.227518e+04	5.333892e+03	0	1.402587e-03
1.220000e+09	1.288112e+14	0.000000e+00	7.516781e-01	2.735874e+15	3.310964e+15	1.673425e+14	1.758148e+04	1.226046e+04	5.327496e+03	0	1.395373e-03
1.230000e+09	1.268254e+14	0.000000e+00	7.516781e-01	2.718453e+15	3.290467e+15	1.666317e+14	1.755525e+04	1.224582e+04	5.321136e+03	0	1.388165e-03
1.240000e+09	1.248616e+14	0.000000e+00	7.516781e-01	2.701213e+15	3.270174e+15	1.659256e+14	1.752920e+04	1.223127e+04	5.314812e+03	0	1.380963e-03
1.250000e+09	1.229195e+14	0.000000e+00	7.516781e-01	2.684151e+15	3.250087e+15	1.652242e+14	1.750330e+04	1.221680e+04	5.308525e+03	0	1.373766e-03
1.260000e+09	1.209987e+14	0.000000e+00	7.516781e-01	2.667264e+15	3.230201e+15	1.645274e+14	1.747757e+04	1.220241e+04	5.302273e+03	0	1.366573e-03
1.270000e+09	1.190991e+14	0.000000e+00	7.516781e-01	2.650550e+15	3.210514e+15	1.638352e+14	1.745200e+04	1.218810e+04	5.296056e+03	0	1.359383e-03
1.280000e+09	1.172202e+14	0.000000e+00	7.516781e-01	2.634007e+15	3.191022e+15	1.631475e+14	1.742660e+04	1.217388e+04	5.289874e+03	0	1.352197e-03
1.290000e+09	1.153617e+14	0.000000e+00	7.516781e-01	2.617632e+15	3.171723e+15	1.624644e+14	1.740135e+04	1.215973e+04	5.283727e+03	0	1.345012e-03
1.300000e+09	1.135234e+14	0.000000e+00	7.516781e-01	2.601423e+15	3.152615e+15	1.617857e+14	1.737625e+04	1.214566e+04	5.277614e+03	0	1.337830e-03
1.310000e+09	1.117050e+14	0.000000e+00	7.516781e-01	2.585377e+15	3.133694e+15	1.611115e+14	1.735131e+04	1.213167e+04	5.271535e+03	0	1.330648e-03
1.320000e+09	1.099062e+14	0.000000e+00	7.516781e-01	2.569493e+15	3.114960e+15	1.604417e+14	1.732653e+04	1.211776e+04	5.265490e+03	0	1.323467e-03
1.330000e+09	1.081267e+14	0.000000e+00	7.516781e-01	2.553767e+15	3.096408e+15	1.597763e+14	1.730189e+04	1.210392e+04	5.259478e+03	0	1.316285e-03
1.340000e+09	1.063662e+14	0.000000e+00	7.516781e-01	2.538199e+15	3.078038e+15	1.591152e+14	1.727741e+04	1.209017e+04	5.253499e+03	0	1.309103e-03
1.350000e+09	1.046245e+14	0.000000e+00	7.516781e-01	2.522785e+15	3.059844e+15	1.584585e+14	1.725308e+04	1.207648e+04	5.247554e+03	0	1.301918e-03
1.360000e+09	1.029013e+14	0.000000e+00	7.516781e-01	2.507523e+15	3.041828e+15	1.578060e+14	1.722889e+04	1.206287e+04	5.241640e+03	0	1.294731e-03
