#t		Qconv[W]	Ri[Rp]		R*[Rp]		Qc[W]		Qm[W]		Qr[W]		Tcmb[K]		Tl[K]		Tup[K]		RiFlag		Bs[T]
0.000000e+00	1.077861e+15	0.000000e+00	7.516780e-01	1.060354e+16	6.198245e+13	3.144788e+14	2.391077e+04	6.557663e+03	2.838756e+03	0	2.831434e-03
1.000000e+07	1.083423e+15	0.000000e+00	7.516780e-01	1.063412e+16	9.450285e+13	3.127364e+14	2.381531e+04	6.944282e+03	3.006120e+03	0	2.836296e-03
2.000000e+07	1.085628e+15	0.000000e+00	7.516780e-01	1.063985e+16	1.388557e+14	3.110069e+14	2.371958e+04	7.330567e+03	3.173340e+03	0	2.838219e-03
3.000000e+07	1.084442e+15	0.000000e+00	7.516780e-01	1.062052e+16	1.974084e+14	3.092905e+14	2.362380e+04	7.715167e+03	3.339830e+03	0	2.837185e-03
4.000000e+07	1.079886e+15	0.000000e+00	7.516780e-01	1.057630e+16	2.724558e+14	3.075868e+14	2.352820e+04	8.096640e+03	3.504966e+03	0	2.833205e-03
5.000000e+07	1.072037e+15	0.000000e+00	7.516780e-01	1.050779e+16	3.660728e+14	3.058958e+14	2.343299e+04	8.473475e+03	3.668095e+03	0	2.826325e-03
6.000000e+07	1.061033e+15	0.000000e+00	7.516780e-01	1.041603e+16	4.799636e+14	3.042175e+14	2.333839e+04	8.844111e+03	3.828540e+03	0	2.816621e-03
7.000000e+07	1.047064e+15	0.000000e+00	7.516780e-01	1.030245e+16	6.153185e+14	3.025516e+14	2.324462e+04	9.206974e+03	3.985621e+03	0	2.804206e-03
8.000000e+07	1.030375e+15	0.000000e+00	7.516780e-01	1.016888e+16	7.726957e+14	3.008981e+14	2.315187e+04	9.560509e+03	4.138663e+03	0	2.789228e-03
9.000000e+07	1.011255e+15	0.000000e+00	7.516780e-01	1.001747e+16	9.519361e+14	2.992569e+14	2.306032e+04	9.903219e+03	4.287019e+03	0	2.771867e-03
1.000000e+08	9.900269e+14	0.000000e+00	7.516780e-01	9.850644e+15	1.152125e+15	2.976280e+14	2.297012e+04	1.023370e+04	4.430082e+03	0	2.752334e-03
1.100000e+08	9.670416e+14	0.000000e+00	7.516780e-01	9.670990e+15	1.371603e+15	2.960110e+14	2.288143e+04	1.055069e+04	4.567303e+03	0	2.730867e-03
1.200000e+08	9.426611e+14	0.000000e+00	7.516780e-01	9.481202e+15	1.608031e+15	2.944061e+14	2.279435e+04	1.085308e+04	4.698204e+03	0	2.707722e-03
1.300000e+08	9.172486e+14	0.000000e+00	7.516780e-01	9.283975e+15	1.858492e+15	2.928131e+14	2.270897e+04	1.113995e+04	4.822388e+03	0	2.683168e-03
1.400000e+08	8.911565e+14	0.000000e+00	7.516780e-01	9.081922e+15	2.119638e+15	2.912318e+14	2.262537e+04	1.141059e+04	4.939549e+03	0	2.657481e-03
1.500000e+08	8.647166e+14	0.000000e+00	7.516780e-01	8.877499e+15	2.387852e+15	2.896623e+14	2.254358e+04	1.166453e+04	5.049476e+03	0	2.630935e-03
1.600000e+08	8.382317e+14	0.000000e+00	7.516780e-01	8.672945e+15	2.659416e+15	2.881043e+14	2.246363e+04	1.190149e+04	5.152051e+03	0	2.603795e-03
1.700000e+08	8.119697e+14	0.000000e+00	7.516780e-01	8.470241e+15	2.930681e+15	2.865579e+14	2.238551e+04	1.212140e+04	5.247250e+03	0	2.576314e-03
1.800000e+08	7.861598e+14	0.000000e+00	7.516780e-01	8.271080e+15	3.198198e+15	2.850228e+14	2.230922e+04	1.232441e+04	5.335133e+03	0	2.548722e-03
1.900000e+08	7.609913e+14	0.000000e+00	7.516780e-01	8.076857e+15	3.458849e+15	2.834990e+14	2.223471e+04	1.251084e+04	5.415836e+03	0	2.521228e-03
2.000000e+08	7.366142e+14	0.000000e+00	7.516780e-01	7.888674e+15	3.709915e+15	2.819865e+14	2.216196e+04	1.268115e+04	5.489563e+03	0	2.494014e-03
2.100000e+08	7.131409e+14	0.000000e+00	7.516780e-01	7.707358e+15	3.949142e+15	2.804850e+14	2.209089e+04	1.283595e+04	5.556574e+03	0	2.467236e-03
2.200000e+08	6.906497e+14	0.000000e+00	7.516780e-01	7.533479e+15	4.174749e+15	2.789947e+14	2.202145e+04	1.297594e+04	5.617173e+03	0	2.441021e-03
2.300000e+08	6.691887e+14	0.000000e+00	7.516780e-01	7.367386e+15	4.385424e+15	2.775152e+14	2.195357e+04	1.310188e+04	5.671694e+03	0	2.415470e-03
2.400000e+08	6.487799e+14	0.000000e+00	7.516780e-01	7.209235e+15	4.580307e+15	2.760466e+14	2.188719e+04	1.321462e+04	5.720496e+03	0	2.390661e-03
2.500000e+08	6.294243e+14	0.000000e+00	7.516780e-01	7.059023e+15	4.758929e+15	2.745887e+14	2.182223e+04	1.331500e+04	5.763950e+03	0	2.366646e-03
2.600000e+08	6.111051e+14	0.000000e+00	7.516780e-01	6.916620e+15	4.921181e+15	2.731415e+14	2.175862e+04	1.340389e+04	5.802430e+03	0	2.343460e-03
2.700000e+08	5.937925e+14	0.000000e+00	7.516780e-01	6.781797e+15	5.067238e+15	2.717049e+14	2.169629e+04	1.348215e+04	5.836309e+03	0	2.321117e-03
2.800000e+08	5.774467e+14	0.000000e+00	7.516780e-01	6.654253e+15	5.197524e+15	2.702788e+14	2.163517e+04	1.355063e+04	5.865951e+03	0	2.299620e-03
2.900000e+08	5.620211e+14	0.000000e+00	7.516780e-01	6.533636e+15	5.312639e+15	2.688631e+14	2.157520e+04	1.361013e+04	5.891708e+03	0	2.278958e-03
3.000000e+08	5.474644e+14	0.000000e+00	7.516780e-01	6.419560e+15	5.413326e+15	2.674577e+14	2.151631e+04	1.366143e+04	5.913916e+03	0	2.259110e-03
3.100000e+08	5.337234e+14	0.000000e+00	7.516780e-01	6.311626e+15	5.500423e+15	2.660626e+14	2.145845e+04	1.370526e+04	5.932891e+03	0	2.240049e-03
3.200000e+08	5.207439e+14	0.000000e+00	7.516780e-01	6.209426e+15	5.574820e+15	2.646776e+14	2.140155e+04	1.374232e+04	5.948933e+03	0	2.221742e-03
3.300000e+08	5.084723e+14	0.000000e+00	7.516780e-01	6.112559e+15	5.637437e+15	2.633026e+14	2.134558e+04	1.377324e+04	5.962318e+03	0	2.204151e-03
3.400000e+08	4.968565e+14	0.000000e+00	7.516780e-01	6.020636e+15	5.689204e+15	2.619377e+14	2.129048e+04	1.379862e+04	5.973305e+03	0	2.187237e-03
3.500000e+08	4.858466e+14	0.000000e+00	7.516780e-01	5.933281e+15	5.731024e+15	2.605827e+14	2.123620e+04	1.381900e+04	5.982129e+03	0	2.170960e-03
3.600000e+08	4.753953e+14	0.000000e+00	7.516780e-01	5.850140e+15	5.763781e+15	2.592374e+14	2.118271e+04	1.383490e+04	5.989009e+03	0	2.155280e-03
3.700000e+08	4.654581e+14	0.000000e+00	7.516780e-01	5.770882e+15	5.788309e+15	2.579020e+14	2.112997e+04	1.384676e+04	5.994143e+03	0	2.140157e-03
3.800000e+08	4.559935e+14	0.000000e+00	7.516780e-01	5.695196e+15	5.805402e+15	2.565762e+14	2.107793e+04	1.385500e+04	5.997712e+03	0	2.125552e-03
3.900000e+08	4.469632e+14	0.000000e+00	7.516780e-01	5.622794e+15	5.815808e+15	2.552599e+14	2.102658e+04	1.386001e+04	5.999880e+03	0	2.111427e-03
4.000000e+08	4.383319e+14	0.000000e+00	7.516780e-01	5.553411e+15	5.820208e+15	2.539532e+14	2.097588e+04	1.386213e+04	6.000797e+03	0	2.097747e-03
4.100000e+08	4.300669e+14	0.000000e+00	7.516780e-01	5.486806e+15	5.819244e+15	2.526559e+14	2.092581e+04	1.386166e+04	6.000596e+03	0	2.084479e-03
4.200000e+08	4.221388e+14	0.000000e+00	7.516780e-01	5.422756e+15	5.813496e+15	2.513680e+14	2.087633e+04	1.385890e+04	5.999399e+03	0	2.071591e-03
4.300000e+08	4.145203e+14	0.000000e+00	7.516780e-01	5.361058e+15	5.803500e+15	2.500893e+14	2.082743e+04	1.385409e+04	5.997315e+03	0	2.059053e-03
4.400000e+08	4.071870e+14	0.000000e+00	7.516780e-01	5.301528e+15	5.789745e+15	2.488198e+14	2.077908e+04	1.384745e+04	5.994443e+03	0	2.046838e-03
4.500000e+08	4.001163e+14	0.000000e+00	7.516780e-01	5.244000e+15	5.772662e+15	2.475595e+14	2.073127e+04	1.383920e+04	5.990870e+03	0	2.034921e-03
4.600000e+08	3.932882e+14	0.000000e+00	7.516780e-01	5.188320e+15	5.752661e+15	2.463082e+14	2.068397e+04	1.382951e+04	5.986677e+03	0	2.023279e-03
4.700000e+08	3.866842e+14	0.000000e+00	7.516780e-01	5.134351e+15	5.730092e+15	2.450659e+14	2.063718e+04	1.381855e+04	5.981933e+03	0	2.011890e-03
4.800000e+08	3.802876e+14	0.000000e+00	7.516780e-01	5.081970e+15	5.705282e+15	2.438324e+14	2.059087e+04	1.380647e+04	5.976703e+03	0	2.000735e-03
4.900000e+08	3.740836e+14	0.000000e+00	7.516780e-01	5.031063e+15	5.678522e+15	2.426078e+14	2.054503e+04	1.379340e+04	5.971043e+03	0	1.989795e-03
5.000000e+08	3.680585e+14	0.000000e+00	7.516780e-01	4.981529e+15	5.650068e+15	2.413920e+14	2.049965e+04	1.377945e+04	5.965006e+03	0	1.979055e-03
5.100000e+08	3.621999e+14	0.000000e+00	7.516780e-01	4.933275e+15	5.620157e+15	2.401849e+14	2.045472e+04	1.376473e+04	5.958635e+03	0	1.968498e-03
5.200000e+08	3.564969e+14	0.000000e+00	7.516780e-01	4.886218e+15	5.588994e+15	2.389863e+14	2.041022e+04	1.374934e+04	5.951972e+03	0	1.958112e-03
5.300000e+08	3.509393e+14	0.000000e+00	7.516780e-01	4.840283e+15	5.556767e+15	2.377963e+14	2.036614e+04	1.373336e+04	5.945054e+03	0	1.947883e-03
5.400000e+08	3.455181e+14	0.000000e+00	7.516780e-01	4.795401e+15	5.523636e+15	2.366148e+14	2.032248e+04	1.371686e+04	5.937913e+03	0	1.937801e-03
5.500000e+08	3.402249e+14	0.000000e+00	7.516780e-01	4.751510e+15	5.489755e+15	2.354417e+14	2.027921e+04	1.369992e+04	5.930578e+03	0	1.927854e-03
5.600000e+08	3.350524e+14	0.000000e+00	7.516780e-01	4.708554e+15	5.455247e+15	2.342769e+14	2.023635e+04	1.368259e+04	5.923076e+03	0	1.918034e-03
5.700000e+08	3.299936e+14	0.000000e+00	7.516780e-01	4.666482e+15	5.420234e+15	2.331204e+14	2.019387e+04	1.366492e+04	5.915429e+03	0	1.908332e-03
5.800000e+08	3.250425e+14	0.000000e+00	7.516780e-01	4.625247e+15	5.384818e+15	2.319722e+14	2.015177e+04	1.364697e+04	5.907658e+03	0	1.898740e-03
5.900000e+08	3.201934e+14	0.000000e+00	7.516780e-01	4.584807e+15	5.349092e+15	2.308320e+14	2.011004e+04	1.362878e+04	5.899782e+03	0	1.889251e-03
6.000000e+08	3.154412e+14	0.000000e+00	7.516780e-01	4.545123e+15	5.313133e+15	2.296999e+14	2.006867e+04	1.361038e+04	5.891818e+03	0	1.879858e-03
6.100000e+08	3.107812e+14	0.000000e+00	7.516780e-01	4.506159e+15	5.277017e+15	2.285759e+14	2.002766e+04	1.359181e+04	5.883780e+03	0	1.870555e-03
6.200000e+08	3.062091e+14	0.000000e+00	7.516780e-01	4.467884e+15	5.240803e+15	2.274597e+14	1.998700e+04	1.357311e+04	5.875682e+03	0	1.861336e-03
6.300000e+08	3.017210e+14	0.000000e+00	7.516780e-01	4.430268e+15	5.204548e+15	2.263515e+14	1.994668e+04	1.355429e+04	5.867535e+03	0	1.852198e-03
6.400000e+08	2.973133e+14	0.000000e+00	7.516780e-01	4.393284e+15	5.168304e+15	2.252511e+14	1.990671e+04	1.353538e+04	5.859349e+03	0	1.843134e-03
6.500000e+08	2.929828e+14	0.000000e+00	7.516780e-01	4.356906e+15	5.132112e+15	2.241584e+14	1.986706e+04	1.351640e+04	5.851135e+03	0	1.834142e-03
6.600000e+08	2.887263e+14	0.000000e+00	7.516780e-01	4.321111e+15	5.096010e+15	2.230734e+14	1.982774e+04	1.349738e+04	5.842901e+03	0	1.825216e-03
6.700000e+08	2.845410e+14	0.000000e+00	7.516780e-01	4.285879e+15	5.060030e+15	2.219960e+14	1.978875e+04	1.347833e+04	5.834653e+03	0	1.816354e-03
6.800000e+08	2.804244e+14	0.000000e+00	7.516780e-01	4.251189e+15	5.024204e+15	2.209262e+14	1.975007e+04	1.345926e+04	5.826400e+03	0	1.807552e-03
6.900000e+08	2.763740e+14	0.000000e+00	7.516780e-01	4.217023e+15	4.988559e+15	2.198639e+14	1.971170e+04	1.344020e+04	5.818146e+03	0	1.798807e-03
7.000000e+08	2.723877e+14	0.000000e+00	7.516780e-01	4.183363e+15	4.953112e+15	2.188091e+14	1.967365e+04	1.342114e+04	5.809897e+03	0	1.790117e-03
7.100000e+08	2.684632e+14	0.000000e+00	7.516780e-01	4.150195e+15	4.917884e+15	2.177616e+14	1.963589e+04	1.340211e+04	5.801657e+03	0	1.781478e-03
7.200000e+08	2.645987e+14	0.000000e+00	7.516780e-01	4.117503e+15	4.882893e+15	2.167215e+14	1.959843e+04	1.338310e+04	5.793432e+03	0	1.772888e-03
7.300000e+08	2.607924e+14	0.000000e+00	7.516780e-01	4.085273e+15	4.848156e+15	2.156886e+14	1.956127e+04	1.336414e+04	5.785223e+03	0	1.764346e-03
7.400000e+08	2.570426e+14	0.000000e+00	7.516780e-01	4.053493e+15	4.813678e+15	2.146630e+14	1.952439e+04	1.334523e+04	5.777036e+03	0	1.755849e-03
7.500000e+08	2.533476e+14	0.000000e+00	7.516780e-01	4.022149e+15	4.779474e+15	2.136444e+14	1.948781e+04	1.332637e+04	5.768873e+03	0	1.747395e-03
7.600000e+08	2.497060e+14	0.000000e+00	7.516780e-01	3.991231e+15	4.745549e+15	2.126330e+14	1.945150e+04	1.330757e+04	5.760735e+03	0	1.738982e-03
7.700000e+08	2.461163e+14	0.000000e+00	7.516780e-01	3.960728e+15	4.711917e+15	2.116287e+14	1.941547e+04	1.328884e+04	5.752626e+03	0	1.730609e-03
7.800000e+08	2.425772e+14	0.000000e+00	7.516780e-01	3.930628e+15	4.678579e+15	2.106313e+14	1.937972e+04	1.327018e+04	5.744548e+03	0	1.722274e-03
7.900000e+08	2.390875e+14	0.000000e+00	7.516780e-01	3.900924e+15	4.645541e+15	2.096408e+14	1.934424e+04	1.325160e+04	5.736502e+03	0	1.713975e-03
8.000000e+08	2.356459e+14	0.000000e+00	7.516780e-01	3.871604e+15	4.612805e+15	2.086572e+14	1.930903e+04	1.323309e+04	5.728490e+03	0	1.705711e-03
8.100000e+08	2.322513e+14	0.000000e+00	7.516780e-01	3.842662e+15	4.580378e+15	2.076804e+14	1.927408e+04	1.321466e+04	5.720513e+03	0	1.697481e-03
8.200000e+08	2.289026e+14	0.000000e+00	7.516780e-01	3.814087e+15	4.548259e+15	2.067104e+14	1.923939e+04	1.319632e+04	5.712573e+03	0	1.689283e-03
8.300000e+08	2.255989e+14	0.000000e+00	7.516780e-01	3.785872e+15	4.516450e+15	2.057471e+14	1.920495e+04	1.317806e+04	5.704670e+03	0	1.681116e-03
8.400000e+08	2.223390e+14	0.000000e+00	7.516780e-01	3.758010e+15	4.484950e+15	2.047904e+14	1.917077e+04	1.315989e+04	5.696805e+03	0	1.672980e-03
8.500000e+08	2.191221e+14	0.000000e+00	7.516780e-01	3.730493e+15	4.453763e+15	2.038404e+14	1.913684e+04	1.314181e+04	5.688979e+03	0	1.664872e-03
8.600000e+08	2.159472e+14	0.000000e+00	7.516780e-01	3.703314e+15	4.422888e+15	2.028968e+14	1.910316e+04	1.312383e+04	5.681193e+03	0	1.656792e-03
8.700000e+08	2.128136e+14	0.000000e+00	7.516780e-01	3.676467e+15	4.392320e+15	2.019598e+14	1.906973e+04	1.310593e+04	5.673447e+03	0	1.648739e-03
8.800000e+08	2.097203e+14	0.000000e+00	7.516780e-01	3.649944e+15	4.362063e+15	2.010293e+14	1.903653e+04	1.308813e+04	5.665741e+03	0	1.640712e-03
8.900000e+08	2.066665e+14	0.000000e+00	7.516780e-01	3.623740e+15	4.332115e+15	2.001051e+14	1.900358e+04	1.307043e+04	5.658076e+03	0	1.632709e-03
9.000000e+08	2.036516e+14	0.000000e+00	7.516780e-01	3.597849e+15	4.302470e+15	1.991872e+14	1.897086e+04	1.305282e+04	5.650453e+03	0	1.624731e-03
9.100000e+08	2.006746e+14	0.000000e+00	7.516780e-01	3.572265e+15	4.273133e+15	1.982757e+14	1.893837e+04	1.303530e+04	5.642871e+03	0	1.616775e-03
9.200000e+08	1.977350e+14	0.000000e+00	7.516780e-01	3.546981e+15	4.244095e+15	1.973704e+14	1.890612e+04	1.301788e+04	5.635331e+03	0	1.608842e-03
9.300000e+08	1.948320e+14	0.000000e+00	7.516780e-01	3.521994e+15	4.215358e+15	1.964713e+14	1.887409e+04	1.300056e+04	5.627832e+03	0	1.600930e-03
9.400000e+08	1.919650e+14	0.000000e+00	7.516780e-01	3.497297e+15	4.186918e+15	1.955783e+14	1.884229e+04	1.298334e+04	5.620375e+03	0	1.593038e-03
9.500000e+08	1.891333e+14	0.000000e+00	7.516780e-01	3.472886e+15	4.158772e+15	1.946915e+14	1.881070e+04	1.296621e+04	5.612960e+03	0	1.585166e-03
9.600000e+08	1.863362e+14	0.000000e+00	7.516780e-01	3.448755e+15	4.130920e+15	1.938106e+14	1.877934e+04	1.294917e+04	5.605586e+03	0	1.577313e-03
9.700000e+08	1.835732e+14	0.000000e+00	7.516780e-01	3.424899e+15	4.103357e+15	1.929358e+14	1.874820e+04	1.293224e+04	5.598254e+03	0	1.569478e-03
9.800000e+08	1.808437e+14	0.000000e+00	7.516780e-01	3.401315e+15	4.076079e+15	1.920669e+14	1.871727e+04	1.291539e+04	5.590964e+03	0	1.561660e-03
9.900000e+08	1.781470e+14	0.000000e+00	7.516780e-01	3.377998e+15	4.049084e+15	1.912040e+14	1.868655e+04	1.289865e+04	5.583715e+03	0	1.553859e-03
1.000000e+09	1.754827e+14	0.000000e+00	7.516780e-01	3.354942e+15	4.022368e+15	1.903469e+14	1.865605e+04	1.288200e+04	5.576507e+03	0	1.546074e-03
1.010000e+09	1.728502e+14	0.000000e+00	7.516780e-01	3.332144e+15	3.995931e+15	1.894956e+14	1.862575e+04	1.286544e+04	5.569341e+03	0	1.538304e-03
1.020000e+09	1.702490e+14	0.000000e+00	7.516780e-01	3.309600e+15	3.969767e+15	1.886501e+14	1.859565e+04	1.284898e+04	5.562215e+03	0	1.530548e-03
1.030000e+09	1.676784e+14	0.000000e+00	7.516780e-01	3.287305e+15	3.943874e+15	1.878102e+14	1.856576e+04	1.283262e+04	5.555130e+03	0	1.522806e-03
1.040000e+09	1.651381e+14	0.000000e+00	7.516780e-01	3.265256e+15	3.918247e+15	1.869761e+14	1.853607e+04	1.281634e+04	5.548086e+03	0	1.515077e-03
1.050000e+09	1.626276e+14	0.000000e+00	7.516780e-01	3.243449e+15	3.892887e+15	1.861476e+14	1.850658e+04	1.280017e+04	5.541082e+03	0	1.507360e-03
1.060000e+09	1.601463e+14	0.000000e+00	7.516780e-01	3.221880e+15	3.867786e+15	1.853247e+14	1.847729e+04	1.278408e+04	5.534118e+03	0	1.499654e-03
1.070000e+09	1.576938e+14	0.000000e+00	7.516780e-01	3.200544e+15	3.842947e+15	1.845074e+14	1.844818e+04	1.276808e+04	5.527194e+03	0	1.491960e-03
1.080000e+09	1.552696e+14	0.000000e+00	7.516780e-01	3.179440e+15	3.818359e+15	1.836955e+14	1.841928e+04	1.275218e+04	5.520310e+03	0	1.484275e-03
1.090000e+09	1.528734e+14	0.000000e+00	7.516780e-01	3.158562e+15	3.794023e+15	1.828891e+14	1.839056e+04	1.273637e+04	5.513465e+03	0	1.476600e-03
1.100000e+09	1.505045e+14	0.000000e+00	7.516780e-01	3.137908e+15	3.769936e+15	1.820881e+14	1.836203e+04	1.272065e+04	5.506659e+03	0	1.468933e-03
1.110000e+09	1.481627e+14	0.000000e+00	7.516780e-01	3.117475e+15	3.746095e+15	1.812925e+14	1.833368e+04	1.270501e+04	5.499891e+03	0	1.461275e-03
1.120000e+09	1.458475e+14	0.000000e+00	7.516780e-01	3.097258e+15	3.722495e+15	1.805022e+14	1.830552e+04	1.268947e+04	5.493163e+03	0	1.453623e-03
1.130000e+09	1.435585e+14	0.000000e+00	7.516780e-01	3.077255e+15	3.699135e+15	1.797172e+14	1.827754e+04	1.267401e+04	5.486472e+03	0	1.445978e-03
1.140000e+09	1.412953e+14	0.000000e+00	7.516780e-01	3.057462e+15	3.676011e+15	1.789374e+14	1.824975e+04	1.265864e+04	5.479819e+03	0	1.438339e-03
1.150000e+09	1.390575e+14	0.000000e+00	7.516780e-01	3.037877e+15	3.653120e+15	1.781629e+14	1.822213e+04	1.264336e+04	5.473204e+03	0	1.430706e-03
1.160000e+09	1.368447e+14	0.000000e+00	7.516780e-01	3.018497e+15	3.630460e+15	1.773935e+14	1.819468e+04	1.262817e+04	5.466626e+03	0	1.423076e-03
1.170000e+09	1.346566e+14	0.000000e+00	7.516780e-01	2.999317e+15	3.608027e+15	1.766292e+14	1.816741e+04	1.261306e+04	5.460085e+03	0	1.415451e-03
1.180000e+09	1.324927e+14	0.000000e+00	7.516780e-01	2.980337e+15	3.585817e+15	1.758701e+14	1.814032e+04	1.259803e+04	5.453581e+03	0	1.407828e-03
1.190000e+09	1.303528e+14	0.000000e+00	7.516780e-01	2.961551e+15	3.563829e+15	1.751159e+14	1.811339e+04	1.258309e+04	5.447114e+03	0	1.400207e-03
1.200000e+09	1.282364e+14	0.000000e+00	7.516780e-01	2.942959e+15	3.542059e+15	1.743668e+14	1.808664e+04	1.256824e+04	5.440682e+03	0	1.392588e-03
1.210000e+09	1.261433e+14	0.000000e+00	7.516780e-01	2.924557e+15	3.520506e+15	1.736227e+14	1.806005e+04	1.255346e+04	5.434287e+03	0	1.384970e-03
1.220000e+09	1.240730e+14	0.000000e+00	7.516780e-01	2.906342e+15	3.499164e+15	1.728835e+14	1.803363e+04	1.253877e+04	5.427926e+03	0	1.377351e-03
1.230000e+09	1.220253e+14	0.000000e+00	7.516780e-01	2.888312e+15	3.478033e+15	1.721491e+14	1.800737e+04	1.252416e+04	5.421602e+03	0	1.369732e-03
1.240000e+09	1.199998e+14	0.000000e+00	7.516780e-01	2.870464e+15	3.457109e+15	1.714197e+14	1.798128e+04	1.250963e+04	5.415312e+03	0	1.362111e-03
1.250000e+09	1.179962e+14	0.000000e+00	7.516780e-01	2.852796e+15	3.436389e+15	1.706950e+14	1.795534e+04	1.249518e+04	5.409056e+03	0	1.354487e-03
1.260000e+09	1.160142e+14	0.000000e+00	7.516780e-01	2.835304e+15	3.415873e+15	1.699751e+14	1.792957e+04	1.248081e+04	5.402836e+03	0	1.346860e-03
1.270000e+09	1.140535e+14	0.000000e+00	7.516780e-01	2.817988e+15	3.395554e+15	1.692600e+14	1.790395e+04	1.246652e+04	5.396649e+03	0	1.339229e-03
1.280000e+09	1.121137e+14	0.000000e+00	7.516780e-01	2.800843e+15	3.375432e+15	1.685495e+14	1.787849e+04	1.245230e+04	5.390496e+03	0	1.331594e-03
1.290000e+09	1.101946e+14	0.000000e+00	7.516780e-01	2.783869e+15	3.355506e+15	1.678438e+14	1.785318e+04	1.243817e+04	5.384376e+03	0	1.323952e-03
1.300000e+09	1.082959e+14	0.000000e+00	7.516780e-01	2.767062e+15	3.335770e+15	1.671427e+14	1.782802e+04	1.242411e+04	5.378290e+03	0	1.316304e-03
1.310000e+09	1.064174e+14	0.000000e+00	7.516780e-01	2.750420e+15	3.316225e+15	1.664461e+14	1.780302e+04	1.241012e+04	5.372237e+03	0	1.308648e-03
1.320000e+09	1.045586e+14	0.000000e+00	7.516780e-01	2.733942e+15	3.296866e+15	1.657541e+14	1.777817e+04	1.239622e+04	5.366216e+03	0	1.300984e-03
1.330000e+09	1.027194e+14	0.000000e+00	7.516780e-01	2.717624e+15	3.277690e+15	1.650667e+14	1.775346e+04	1.238238e+04	5.360228e+03	0	1.293311e-03
1.340000e+09	1.008994e+14	0.000000e+00	7.516780e-01	2.701465e+15	3.258698e+15	1.643837e+14	1.772891e+04	1.236862e+04	5.354272e+03	0	1.285627e-03
1.350000e+09	9.909850e+13	0.000000e+00	7.516780e-01	2.685462e+15	3.239884e+15	1.637052e+14	1.770450e+04	1.235494e+04	5.348348e+03	0	1.277932e-03
1.360000e+09	9.731631e+13	0.000000e+00	7.516780e-01	2.669614e+15	3.221249e+15	1.630311e+14	1.768023e+04	1.234133e+04	5.342455e+03	0	1.270225e-03
