#t		Qconv[W]	Ri[Rp]		R*[Rp]		Qc[W]		Qm[W]		Qr[W]		Tcmb[K]		Tl[K]		Tup[K]		RiFlag		Bs[T]
0.000000e+00	1.097627e+15	0.000000e+00	7.516779e-01	1.114158e+16	5.943320e+13	3.297188e+14	2.461790e+04	6.683955e+03	2.865138e+03	0	2.846327e-03
1.000000e+07	1.105311e+15	0.000000e+00	7.516779e-01	1.118643e+16	9.050987e+13	3.278919e+14	2.452608e+04	7.073099e+03	3.031948e+03	0	2.852953e-03
2.000000e+07	1.109602e+15	0.000000e+00	7.516779e-01	1.120635e+16	1.329616e+14	3.260787e+14	2.443390e+04	7.462463e+03	3.198852e+03	0	2.856641e-03
3.000000e+07	1.110444e+15	0.000000e+00	7.516779e-01	1.120093e+16	1.891420e+14	3.242790e+14	2.434155e+04	7.850769e+03	3.365303e+03	0	2.857363e-03
4.000000e+07	1.107830e+15	0.000000e+00	7.516779e-01	1.117018e+16	2.613795e+14	3.224928e+14	2.424925e+04	8.236643e+03	3.530712e+03	0	2.855119e-03
5.000000e+07	1.101810e+15	0.000000e+00	7.516779e-01	1.111446e+16	3.518398e+14	3.207199e+14	2.415720e+04	8.618635e+03	3.694456e+03	0	2.849938e-03
6.000000e+07	1.092491e+15	0.000000e+00	7.516779e-01	1.103460e+16	4.623821e+14	3.189602e+14	2.406561e+04	8.995238e+03	3.855890e+03	0	2.841880e-03
7.000000e+07	1.080036e+15	0.000000e+00	7.516779e-01	1.093182e+16	5.944170e+14	3.172136e+14	2.397467e+04	9.364917e+03	4.014356e+03	0	2.831039e-03
8.000000e+07	1.064663e+15	0.000000e+00	7.516779e-01	1.080773e+16	7.487816e+14	3.154800e+14	2.388458e+04	9.726140e+03	4.169198e+03	0	2.817543e-03
9.000000e+07	1.046637e+15	0.000000e+00	7.516779e-01	1.066432e+16	9.256421e+14	3.137593e+14	2.379551e+04	1.007741e+04	4.319774e+03	0	2.801551e-03
1.000000e+08	1.026266e+15	0.000000e+00	7.516779e-01	1.050384e+16	1.124436e+15	3.120513e+14	2.370762e+04	1.041732e+04	4.465477e+03	0	2.783256e-03
1.100000e+08	1.003887e+15	0.000000e+00	7.516779e-01	1.032881e+16	1.343860e+15	3.103561e+14	2.362105e+04	1.074454e+04	4.605744e+03	0	2.762876e-03
1.200000e+08	9.798565e+14	0.000000e+00	7.516779e-01	1.014183e+16	1.581906e+15	3.086734e+14	2.353592e+04	1.105791e+04	4.740074e+03	0	2.740652e-03
1.300000e+08	9.545396e+14	0.000000e+00	7.516779e-01	9.945615e+15	1.835939e+15	3.070031e+14	2.345232e+04	1.135644e+04	4.868040e+03	0	2.716842e-03
1.400000e+08	9.282971e+14	0.000000e+00	7.516779e-01	9.742810e+15	2.102825e+15	3.053452e+14	2.337034e+04	1.163930e+04	4.989293e+03	0	2.691713e-03
1.500000e+08	9.014757e+14	0.000000e+00	7.516779e-01	9.535968e+15	2.379074e+15	3.036996e+14	2.329003e+04	1.190591e+04	5.103575e+03	0	2.665536e-03
1.600000e+08	8.743982e+14	0.000000e+00	7.516779e-01	9.327459e+15	2.660998e+15	3.020662e+14	2.321142e+04	1.215585e+04	5.210717e+03	0	2.638576e-03
1.700000e+08	8.473565e+14	0.000000e+00	7.516779e-01	9.119430e+15	2.944884e+15	3.004448e+14	2.313452e+04	1.238896e+04	5.310638e+03	0	2.611090e-03
1.800000e+08	8.206071e+14	0.000000e+00	7.516779e-01	8.913759e+15	3.227136e+15	2.988353e+14	2.305934e+04	1.260523e+04	5.403344e+03	0	2.583320e-03
1.900000e+08	7.943675e+14	0.000000e+00	7.516779e-01	8.712040e+15	3.504407e+15	2.972377e+14	2.298584e+04	1.280486e+04	5.488918e+03	0	2.555487e-03
2.000000e+08	7.688160e+14	0.000000e+00	7.516779e-01	8.515577e+15	3.773700e+15	2.956518e+14	2.291401e+04	1.298821e+04	5.567512e+03	0	2.527788e-03
2.100000e+08	7.440925e+14	0.000000e+00	7.516779e-01	8.325392e+15	4.032441e+15	2.940777e+14	2.284379e+04	1.315577e+04	5.639341e+03	0	2.500396e-03
2.200000e+08	7.203009e+14	0.000000e+00	7.516779e-01	8.142240e+15	4.278509e+15	2.925150e+14	2.277514e+04	1.330817e+04	5.704666e+03	0	2.473458e-03
2.300000e+08	6.975123e+14	0.000000e+00	7.516779e-01	7.966635e+15	4.510259e+15	2.909639e+14	2.270799e+04	1.344609e+04	5.763789e+03	0	2.447093e-03
2.400000e+08	6.757693e+14	0.000000e+00	7.516779e-01	7.798881e+15	4.726499e+15	2.894241e+14	2.264229e+04	1.357032e+04	5.817039e+03	0	2.421397e-03
2.500000e+08	6.550897e+14	0.000000e+00	7.516779e-01	7.639102e+15	4.926468e+15	2.878956e+14	2.257797e+04	1.368165e+04	5.864764e+03	0	2.396441e-03
2.600000e+08	6.354710e+14	0.000000e+00	7.516779e-01	7.487271e+15	5.109781e+15	2.863783e+14	2.251496e+04	1.378093e+04	5.907323e+03	0	2.372275e-03
2.700000e+08	6.168947e+14	0.000000e+00	7.516779e-01	7.343244e+15	5.276396e+15	2.848720e+14	2.245321e+04	1.386901e+04	5.945075e+03	0	2.348930e-03
2.800000e+08	5.993294e+14	0.000000e+00	7.516779e-01	7.206782e+15	5.426538e+15	2.833768e+14	2.239263e+04	1.394670e+04	5.978380e+03	0	2.326421e-03
2.900000e+08	5.827346e+14	0.000000e+00	7.516779e-01	7.077581e+15	5.560664e+15	2.818925e+14	2.233319e+04	1.401483e+04	6.007585e+03	0	2.304748e-03
3.000000e+08	5.670634e+14	0.000000e+00	7.516779e-01	6.955289e+15	5.679401e+15	2.804190e+14	2.227480e+04	1.407418e+04	6.033027e+03	0	2.283900e-03
3.100000e+08	5.522647e+14	0.000000e+00	7.516779e-01	6.839524e+15	5.783513e+15	2.789562e+14	2.221742e+04	1.412551e+04	6.055027e+03	0	2.263857e-03
3.200000e+08	5.382851e+14	0.000000e+00	7.516779e-01	6.729888e+15	5.873839e+15	2.775041e+14	2.216099e+04	1.416951e+04	6.073889e+03	0	2.244591e-03
3.300000e+08	5.250709e+14	0.000000e+00	7.516779e-01	6.625980e+15	5.951281e+15	2.760626e+14	2.210547e+04	1.420686e+04	6.089897e+03	0	2.226072e-03
3.400000e+08	5.125688e+14	0.000000e+00	7.516779e-01	6.527402e+15	6.016759e+15	2.746315e+14	2.205080e+04	1.423817e+04	6.103319e+03	0	2.208262e-03
3.500000e+08	5.007270e+14	0.000000e+00	7.516779e-01	6.433771e+15	6.071203e+15	2.732108e+14	2.199694e+04	1.426402e+04	6.114400e+03	0	2.191123e-03
3.600000e+08	4.894957e+14	0.000000e+00	7.516779e-01	6.344715e+15	6.115516e+15	2.718004e+14	2.194386e+04	1.428494e+04	6.123368e+03	0	2.174617e-03
3.700000e+08	4.788278e+14	0.000000e+00	7.516779e-01	6.259885e+15	6.150577e+15	2.704002e+14	2.189150e+04	1.430142e+04	6.130431e+03	0	2.158703e-03
3.800000e+08	4.686790e+14	0.000000e+00	7.516779e-01	6.178950e+15	6.177229e+15	2.690101e+14	2.183984e+04	1.431390e+04	6.135781e+03	0	2.143343e-03
3.900000e+08	4.590078e+14	0.000000e+00	7.516779e-01	6.101603e+15	6.196266e+15	2.676301e+14	2.178885e+04	1.432279e+04	6.139593e+03	0	2.128498e-03
4.000000e+08	4.497760e+14	0.000000e+00	7.516779e-01	6.027558e+15	6.208435e+15	2.662601e+14	2.173850e+04	1.432846e+04	6.142024e+03	0	2.114131e-03
4.100000e+08	4.409480e+14	0.000000e+00	7.516779e-01	5.956553e+15	6.214421e+15	2.648999e+14	2.168876e+04	1.433125e+04	6.143220e+03	0	2.100208e-03
4.200000e+08	4.324913e+14	0.000000e+00	7.516779e-01	5.888345e+15	6.214869e+15	2.635495e+14	2.163960e+04	1.433146e+04	6.143309e+03	0	2.086695e-03
4.300000e+08	4.243760e+14	0.000000e+00	7.516779e-01	5.822712e+15	6.210369e+15	2.622089e+14	2.159100e+04	1.432936e+04	6.142411e+03	0	2.073561e-03
4.400000e+08	4.165749e+14	0.000000e+00	7.516779e-01	5.759451e+15	6.201458e+15	2.608779e+14	2.154294e+04	1.432521e+04	6.140631e+03	0	2.060776e-03
4.500000e+08	4.090631e+14	0.000000e+00	7.516779e-01	5.698379e+15	6.188631e+15	2.595565e+14	2.149540e+04	1.431922e+04	6.138065e+03	0	2.048314e-03
4.600000e+08	4.018181e+14	0.000000e+00	7.516779e-01	5.639326e+15	6.172332e+15	2.582445e+14	2.144836e+04	1.431161e+04	6.134799e+03	0	2.036149e-03
4.700000e+08	3.948194e+14	0.000000e+00	7.516779e-01	5.582141e+15	6.152967e+15	2.569420e+14	2.140182e+04	1.430254e+04	6.130911e+03	0	2.024258e-03
4.800000e+08	3.880483e+14	0.000000e+00	7.516779e-01	5.526686e+15	6.130901e+15	2.556488e+14	2.135574e+04	1.429218e+04	6.126471e+03	0	2.012620e-03
4.900000e+08	3.814880e+14	0.000000e+00	7.516779e-01	5.472834e+15	6.106467e+15	2.543649e+14	2.131011e+04	1.428067e+04	6.121540e+03	0	2.001214e-03
5.000000e+08	3.751233e+14	0.000000e+00	7.516779e-01	5.420472e+15	6.079961e+15	2.530901e+14	2.126494e+04	1.426816e+04	6.116176e+03	0	1.990022e-03
5.100000e+08	3.689403e+14	0.000000e+00	7.516779e-01	5.369498e+15	6.051647e+15	2.518245e+14	2.122019e+04	1.425475e+04	6.110428e+03	0	1.979028e-03
5.200000e+08	3.629265e+14	0.000000e+00	7.516779e-01	5.319817e+15	6.021765e+15	2.505678e+14	2.117586e+04	1.424055e+04	6.104341e+03	0	1.968216e-03
5.300000e+08	3.570706e+14	0.000000e+00	7.516779e-01	5.271346e+15	5.990536e+15	2.493202e+14	2.113194e+04	1.422566e+04	6.097956e+03	0	1.957572e-03
5.400000e+08	3.513623e+14	0.000000e+00	7.516779e-01	5.224009e+15	5.958148e+15	2.480814e+14	2.108842e+04	1.421015e+04	6.091309e+03	0	1.947085e-03
5.500000e+08	3.457924e+14	0.000000e+00	7.516779e-01	5.177734e+15	5.924767e+15	2.468515e+14	2.104529e+04	1.419411e+04	6.084433e+03	0	1.936741e-03
5.600000e+08	3.403523e+14	0.000000e+00	7.516779e-01	5.132461e+15	5.890556e+15	2.456303e+14	2.100254e+04	1.417760e+04	6.077356e+03	0	1.926531e-03
5.700000e+08	3.350345e+14	0.000000e+00	7.516779e-01	5.088131e+15	5.855641e+15	2.444177e+14	2.096016e+04	1.416068e+04	6.070105e+03	0	1.916445e-03
5.800000e+08	3.298319e+14	0.000000e+00	7.516779e-01	5.044692e+15	5.820151e+15	2.432138e+14	2.091815e+04	1.414341e+04	6.062702e+03	0	1.906473e-03
5.900000e+08	3.247384e+14	0.000000e+00	7.516779e-01	5.002098e+15	5.784193e+15	2.420184e+14	2.087649e+04	1.412584e+04	6.055169e+03	0	1.896608e-03
6.000000e+08	3.197480e+14	0.000000e+00	7.516779e-01	4.960305e+15	5.747862e+15	2.408314e+14	2.083519e+04	1.410801e+04	6.047524e+03	0	1.886843e-03
6.100000e+08	3.148557e+14	0.000000e+00	7.516779e-01	4.919275e+15	5.711242e+15	2.396529e+14	2.079423e+04	1.408995e+04	6.039784e+03	0	1.877170e-03
6.200000e+08	3.100565e+14	0.000000e+00	7.516779e-01	4.878970e+15	5.674410e+15	2.384827e+14	2.075360e+04	1.407171e+04	6.031964e+03	0	1.867584e-03
6.300000e+08	3.053461e+14	0.000000e+00	7.516779e-01	4.839358e+15	5.637431e+15	2.373207e+14	2.071331e+04	1.405331e+04	6.024077e+03	0	1.858078e-03
6.400000e+08	3.007206e+14	0.000000e+00	7.516779e-01	4.800410e+15	5.600371e+15	2.361670e+14	2.067335e+04	1.403478e+04	6.016135e+03	0	1.848648e-03
6.500000e+08	2.961762e+14	0.000000e+00	7.516779e-01	4.762097e+15	5.563278e+15	2.350213e+14	2.063371e+04	1.401615e+04	6.008149e+03	0	1.839289e-03
6.600000e+08	2.917096e+14	0.000000e+00	7.516779e-01	4.724394e+15	5.526199e+15	2.338838e+14	2.059438e+04	1.399744e+04	6.000128e+03	0	1.829996e-03
6.700000e+08	2.873176e+14	0.000000e+00	7.516779e-01	4.687277e+15	5.489175e+15	2.327542e+14	2.055536e+04	1.397867e+04	5.992081e+03	0	1.820765e-03
6.800000e+08	2.829974e+14	0.000000e+00	7.516779e-01	4.650726e+15	5.452240e+15	2.316325e+14	2.051665e+04	1.395985e+04	5.984016e+03	0	1.811593e-03
6.900000e+08	2.787464e+14	0.000000e+00	7.516779e-01	4.614720e+15	5.415431e+15	2.305188e+14	2.047823e+04	1.394101e+04	5.975939e+03	0	1.802476e-03
7.000000e+08	2.745620e+14	0.000000e+00	7.516779e-01	4.579240e+15	5.378774e+15	2.294128e+14	2.044012e+04	1.392215e+04	5.967856e+03	0	1.793412e-03
7.100000e+08	2.704421e+14	0.000000e+00	7.516779e-01	4.544270e+15	5.342287e+15	2.283146e+14	2.040230e+04	1.390329e+04	5.959773e+03	0	1.784396e-03
7.200000e+08	2.663845e+14	0.000000e+00	7.516779e-01	4.509793e+15	5.306000e+15	2.272240e+14	2.036476e+04	1.388445e+04	5.951695e+03	0	1.775427e-03
7.300000e+08	2.623873e+14	0.000000e+00	7.516779e-01	4.475794e+15	5.269926e+15	2.261411e+14	2.032751e+04	1.386562e+04	5.943625e+03	0	1.766502e-03
7.400000e+08	2.584485e+14	0.000000e+00	7.516779e-01	4.442259e+15	5.234086e+15	2.250658e+14	2.029054e+04	1.384683e+04	5.935569e+03	0	1.757618e-03
7.500000e+08	2.545665e+14	0.000000e+00	7.516779e-01	4.409176e+15	5.198488e+15	2.239979e+14	2.025385e+04	1.382807e+04	5.927529e+03	0	1.748774e-03
7.600000e+08	2.507397e+14	0.000000e+00	7.516779e-01	4.376532e+15	5.163145e+15	2.229375e+14	2.021742e+04	1.380936e+04	5.919508e+03	0	1.739966e-03
7.700000e+08	2.469666e+14	0.000000e+00	7.516779e-01	4.344315e+15	5.128072e+15	2.218844e+14	2.018127e+04	1.379070e+04	5.911509e+03	0	1.731195e-03
7.800000e+08	2.432457e+14	0.000000e+00	7.516779e-01	4.312514e+15	5.093274e+15	2.208387e+14	2.014538e+04	1.377210e+04	5.903535e+03	0	1.722456e-03
7.900000e+08	2.395757e+14	0.000000e+00	7.516779e-01	4.281120e+15	5.058757e+15	2.198002e+14	2.010976e+04	1.375356e+04	5.895587e+03	0	1.713750e-03
8.000000e+08	2.359553e+14	0.000000e+00	7.516779e-01	4.250123e+15	5.024530e+15	2.187690e+14	2.007439e+04	1.373508e+04	5.887667e+03	0	1.705073e-03
8.100000e+08	2.323834e+14	0.000000e+00	7.516779e-01	4.219512e+15	4.990596e+15	2.177448e+14	2.003928e+04	1.371668e+04	5.879778e+03	0	1.696426e-03
8.200000e+08	2.288587e+14	0.000000e+00	7.516779e-01	4.189281e+15	4.956957e+15	2.167278e+14	2.000442e+04	1.369835e+04	5.871920e+03	0	1.687805e-03
8.300000e+08	2.253803e+14	0.000000e+00	7.516779e-01	4.159419e+15	4.923621e+15	2.157178e+14	1.996981e+04	1.368009e+04	5.864095e+03	0	1.679210e-03
8.400000e+08	2.219470e+14	0.000000e+00	7.516779e-01	4.129920e+15	4.890587e+15	2.147148e+14	1.993544e+04	1.366191e+04	5.856303e+03	0	1.670640e-03
8.500000e+08	2.185579e+14	0.000000e+00	7.516779e-01	4.100775e+15	4.857857e+15	2.137187e+14	1.990132e+04	1.364382e+04	5.848547e+03	0	1.662093e-03
8.600000e+08	2.152121e+14	0.000000e+00	7.516779e-01	4.071978e+15	4.825435e+15	2.127294e+14	1.986744e+04	1.362581e+04	5.840826e+03	0	1.653568e-03
8.700000e+08	2.119086e+14	0.000000e+00	7.516779e-01	4.043521e+15	4.793313e+15	2.117470e+14	1.983379e+04	1.360788e+04	5.833142e+03	0	1.645064e-03
8.800000e+08	2.086466e+14	0.000000e+00	7.516779e-01	4.015398e+15	4.761501e+15	2.107713e+14	1.980038e+04	1.359004e+04	5.825494e+03	0	1.636579e-03
8.900000e+08	2.054253e+14	0.000000e+00	7.516779e-01	3.987603e+15	4.729993e+15	2.098024e+14	1.976720e+04	1.357229e+04	5.817885e+03	0	1.628113e-03
9.000000e+08	2.022438e+14	0.000000e+00	7.516779e-01	3.960129e+15	4.698788e+15	2.088401e+14	1.973425e+04	1.355463e+04	5.810313e+03	0	1.619664e-03
9.100000e+08	1.991015e+14	0.000000e+00	7.516779e-01	3.932970e+15	4.667885e+15	2.078843e+14	1.970153e+04	1.353705e+04	5.802779e+03	0	1.611232e-03
9.200000e+08	1.959975e+14	0.000000e+00	7.516779e-01	3.906120e+15	4.637288e+15	2.069352e+14	1.966903e+04	1.351957e+04	5.795284e+03	0	1.602815e-03
9.300000e+08	1.929312e+14	0.000000e+00	7.516779e-01	3.879575e+15	4.606988e+15	2.059925e+14	1.963675e+04	1.350217e+04	5.787828e+03	0	1.594412e-03
9.400000e+08	1.899018e+14	0.000000e+00	7.516779e-01	3.853328e+15	4.576986e+15	2.050563e+14	1.960470e+04	1.348487e+04	5.780411e+03	0	1.586023e-03
9.500000e+08	1.869088e+14	0.000000e+00	7.516779e-01	3.827375e+15	4.547282e+15	2.041264e+14	1.957285e+04	1.346766e+04	5.773033e+03	0	1.577647e-03
9.600000e+08	1.839514e+14	0.000000e+00	7.516779e-01	3.801710e+15	4.517871e+15	2.032029e+14	1.954122e+04	1.345054e+04	5.765694e+03	0	1.569281e-03
9.700000e+08	1.810291e+14	0.000000e+00	7.516779e-01	3.776330e+15	4.488749e+15	2.022857e+14	1.950981e+04	1.343351e+04	5.758394e+03	0	1.560927e-03
9.800000e+08	1.781412e+14	0.000000e+00	7.516779e-01	3.751227e+15	4.459920e+15	2.013747e+14	1.947860e+04	1.341657e+04	5.751134e+03	0	1.552582e-03
9.900000e+08	1.752872e+14	0.000000e+00	7.516779e-01	3.726400e+15	4.431376e+15	2.004699e+14	1.944760e+04	1.339972e+04	5.743912e+03	0	1.544246e-03
1.000000e+09	1.724665e+14	0.000000e+00	7.516779e-01	3.701842e+15	4.403113e+15	1.995713e+14	1.941680e+04	1.338297e+04	5.736730e+03	0	1.535918e-03
1.010000e+09	1.696785e+14	0.000000e+00	7.516779e-01	3.677550e+15	4.375134e+15	1.986787e+14	1.938621e+04	1.336630e+04	5.729587e+03	0	1.527597e-03
1.020000e+09	1.669227e+14	0.000000e+00	7.516779e-01	3.653519e+15	4.347430e+15	1.977922e+14	1.935581e+04	1.334973e+04	5.722482e+03	0	1.519282e-03
1.030000e+09	1.641986e+14	0.000000e+00	7.516779e-01	3.629745e+15	4.320004e+15	1.969117e+14	1.932561e+04	1.333325e+04	5.715417e+03	0	1.510971e-03
1.040000e+09	1.615056e+14	0.000000e+00	7.516779e-01	3.606225e+15	4.292849e+15	1.960372e+14	1.929561e+04	1.331685e+04	5.708390e+03	0	1.502666e-03
1.050000e+09	1.588433e+14	0.000000e+00	7.516779e-01	3.582954e+15	4.265964e+15	1.951685e+14	1.926581e+04	1.330055e+04	5.701401e+03	0	1.494363e-03
1.060000e+09	1.562112e+14	0.000000e+00	7.516779e-01	3.559928e+15	4.239344e+15	1.943058e+14	1.923619e+04	1.328434e+04	5.694451e+03	0	1.486063e-03
1.070000e+09	1.536088e+14	0.000000e+00	7.516779e-01	3.537144e+15	4.212989e+15	1.934488e+14	1.920677e+04	1.326821e+04	5.687539e+03	0	1.477764e-03
1.080000e+09	1.510357e+14	0.000000e+00	7.516779e-01	3.514598e+15	4.186893e+15	1.925976e+14	1.917753e+04	1.325217e+04	5.680665e+03	0	1.469466e-03
1.090000e+09	1.484913e+14	0.000000e+00	7.516779e-01	3.492287e+15	4.161053e+15	1.917521e+14	1.914848e+04	1.323623e+04	5.673828e+03	0	1.461168e-03
1.100000e+09	1.459753e+14	0.000000e+00	7.516779e-01	3.470207e+15	4.135468e+15	1.909123e+14	1.911961e+04	1.322036e+04	5.667029e+03	0	1.452868e-03
1.110000e+09	1.434873e+14	0.000000e+00	7.516779e-01	3.448355e+15	4.110135e+15	1.900781e+14	1.909093e+04	1.320459e+04	5.660266e+03	0	1.444567e-03
1.120000e+09	1.410267e+14	0.000000e+00	7.516779e-01	3.426727e+15	4.085050e+15	1.892495e+14	1.906242e+04	1.318890e+04	5.653541e+03	0	1.436262e-03
1.130000e+09	1.385932e+14	0.000000e+00	7.516779e-01	3.405320e+15	4.060209e+15	1.884265e+14	1.903410e+04	1.317330e+04	5.646853e+03	0	1.427953e-03
1.140000e+09	1.361864e+14	0.000000e+00	7.516779e-01	3.384131e+15	4.035611e+15	1.876089e+14	1.900595e+04	1.315778e+04	5.640201e+03	0	1.419639e-03
1.150000e+09	1.338060e+14	0.000000e+00	7.516779e-01	3.363157e+15	4.011253e+15	1.867968e+14	1.897797e+04	1.314234e+04	5.633585e+03	0	1.411318e-03
1.160000e+09	1.314514e+14	0.000000e+00	7.516779e-01	3.342395e+15	3.987132e+15	1.859902e+14	1.895017e+04	1.312699e+04	5.627005e+03	0	1.402991e-03
1.170000e+09	1.291223e+14	0.000000e+00	7.516779e-01	3.321841e+15	3.963244e+15	1.851889e+14	1.892254e+04	1.311173e+04	5.620461e+03	0	1.394655e-03
1.180000e+09	1.268184e+14	0.000000e+00	7.516779e-01	3.301493e+15	3.939585e+15	1.843929e+14	1.889508e+04	1.309654e+04	5.613952e+03	0	1.386311e-03
1.190000e+09	1.245393e+14	0.000000e+00	7.516779e-01	3.281349e+15	3.916155e+15	1.836023e+14	1.886778e+04	1.308144e+04	5.607478e+03	0	1.377956e-03
1.200000e+09	1.222847e+14	0.000000e+00	7.516779e-01	3.261404e+15	3.892950e+15	1.828168e+14	1.884066e+04	1.306642e+04	5.601040e+03	0	1.369590e-03
1.210000e+09	1.200541e+14	0.000000e+00	7.516779e-01	3.241657e+15	3.869966e+15	1.820366e+14	1.881369e+04	1.305148e+04	5.594635e+03	0	1.361211e-03
1.220000e+09	1.178473e+14	0.000000e+00	7.516779e-01	3.222104e+15	3.847204e+15	1.812616e+14	1.878689e+04	1.303662e+04	5.588266e+03	0	1.352819e-03
1.230000e+09	1.156639e+14	0.000000e+00	7.516779e-01	3.202743e+15	3.824656e+15	1.804917e+14	1.876025e+04	1.302184e+04	5.581930e+03	0	1.344412e-03
1.240000e+09	1.135035e+14	0.000000e+00	7.516779e-01	3.183572e+15	3.802323e+15	1.797268e+14	1.873377e+04	1.300714e+04	5.575628e+03	0	1.335989e-03
1.250000e+09	1.113660e+14	0.000000e+00	7.516779e-01	3.164588e+15	3.780202e+15	1.789671e+14	1.870745e+04	1.299252e+04	5.569360e+03	0	1.327549e-03
1.260000e+09	1.092508e+14	0.000000e+00	7.516779e-01	3.145787e+15	3.758291e+15	1.782123e+14	1.868129e+04	1.297797e+04	5.563125e+03	0	1.319091e-03
1.270000e+09	1.071578e+14	0.000000e+00	7.516779e-01	3.127169e+15	3.736583e+15	1.774625e+14	1.865528e+04	1.296350e+04	5.556923e+03	0	1.310613e-03
1.280000e+09	1.050866e+14	0.000000e+00	7.516779e-01	3.108730e+15	3.715080e+15	1.767176e+14	1.862942e+04	1.294911e+04	5.550753e+03	0	1.302114e-03
1.290000e+09	1.030370e+14	0.000000e+00	7.516779e-01	3.090468e+15	3.693779e+15	1.759777e+14	1.860372e+04	1.293479e+04	5.544617e+03	0	1.293593e-03
1.300000e+09	1.010085e+14	0.000000e+00	7.516779e-01	3.072380e+15	3.672676e+15	1.752426e+14	1.857816e+04	1.292055e+04	5.538512e+03	0	1.285047e-03
1.310000e+09	9.900102e+13	0.000000e+00	7.516779e-01	3.054465e+15	3.651768e+15	1.745123e+14	1.855276e+04	1.290639e+04	5.532439e+03	0	1.276477e-03
1.320000e+09	9.701417e+13	0.000000e+00	7.516779e-01	3.036720e+15	3.631055e+15	1.737868e+14	1.852750e+04	1.289229e+04	5.526399e+03	0	1.267880e-03
1.330000e+09	9.504769e+13	0.000000e+00	7.516779e-01	3.019142e+15	3.610532e+15	1.730660e+14	1.850239e+04	1.287827e+04	5.520389e+03	0	1.259255e-03
1.340000e+09	9.310130e+13	0.000000e+00	7.516779e-01	3.001731e+15	3.590198e+15	1.723499e+14	1.847743e+04	1.286433e+04	5.514411e+03	0	1.250600e-03
1.350000e+09	9.117475e+13	0.000000e+00	7.516779e-01	2.984482e+15	3.570050e+15	1.716386e+14	1.845261e+04	1.285045e+04	5.508464e+03	0	1.241913e-03
1.360000e+09	8.926775e+13	0.000000e+00	7.516779e-01	2.967395e+15	3.550089e+15	1.709318e+14	1.842793e+04	1.283665e+04	5.502547e+03	0	1.233194e-03
