#t		Qconv[W]	Ri[Rp]		R*[Rp]		Qc[W]		Qm[W]		Qr[W]		Tcmb[K]		Tl[K]		Tup[K]		RiFlag		Bs[T]
0.000000e+00	1.076443e+15	0.000000e+00	7.516778e-01	1.178096e+16	5.507977e+13	3.550292e+14	2.566222e+04	6.874134e+03	2.907920e+03	0	2.824885e-03
1.000000e+07	1.087567e+15	0.000000e+00	7.516778e-01	1.184890e+16	8.309387e+13	3.530621e+14	2.557796e+04	7.258721e+03	3.070609e+03	0	2.834583e-03
2.000000e+07	1.095455e+15	0.000000e+00	7.516778e-01	1.189324e+16	1.212535e+14	3.511097e+14	2.549320e+04	7.644362e+03	3.233744e+03	0	2.841420e-03
3.000000e+07	1.100016e+15	0.000000e+00	7.516778e-01	1.191332e+16	1.717280e+14	3.491718e+14	2.540814e+04	8.029947e+03	3.396855e+03	0	2.845358e-03
4.000000e+07	1.101201e+15	0.000000e+00	7.516778e-01	1.190882e+16	2.367271e+14	3.472485e+14	2.532293e+04	8.414277e+03	3.559436e+03	0	2.846378e-03
5.000000e+07	1.099008e+15	0.000000e+00	7.516778e-01	1.187975e+16	3.183923e+14	3.453395e+14	2.523775e+04	8.796071e+03	3.720943e+03	0	2.844488e-03
6.000000e+07	1.093487e+15	0.000000e+00	7.516778e-01	1.182651e+16	4.186771e+14	3.434447e+14	2.515278e+04	9.173983e+03	3.880809e+03	0	2.839717e-03
7.000000e+07	1.084740e+15	0.000000e+00	7.516778e-01	1.174987e+16	5.392230e+14	3.415640e+14	2.506819e+04	9.546625e+03	4.038445e+03	0	2.832125e-03
8.000000e+07	1.072922e+15	0.000000e+00	7.516778e-01	1.165096e+16	6.812404e+14	3.396974e+14	2.498415e+04	9.912583e+03	4.193254e+03	0	2.821802e-03
9.000000e+07	1.058234e+15	0.000000e+00	7.516778e-01	1.153129e+16	8.454051e+14	3.378446e+14	2.490081e+04	1.027045e+04	4.344641e+03	0	2.808867e-03
1.000000e+08	1.040925e+15	0.000000e+00	7.516778e-01	1.139267e+16	1.031779e+15	3.360055e+14	2.481833e+04	1.061886e+04	4.492028e+03	0	2.793467e-03
1.100000e+08	1.021277e+15	0.000000e+00	7.516778e-01	1.123721e+16	1.239765e+15	3.341801e+14	2.473684e+04	1.095651e+04	4.634861e+03	0	2.775780e-03
1.200000e+08	9.996052e+14	0.000000e+00	7.516778e-01	1.106718e+16	1.468098e+15	3.323682e+14	2.465646e+04	1.128220e+04	4.772632e+03	0	2.756005e-03
1.300000e+08	9.762411e+14	0.000000e+00	7.516778e-01	1.088504e+16	1.714875e+15	3.305698e+14	2.457729e+04	1.159483e+04	4.904882e+03	0	2.734363e-03
1.400000e+08	9.515261e+14	0.000000e+00	7.516778e-01	1.069327e+16	1.977630e+15	3.287847e+14	2.449942e+04	1.189347e+04	5.031215e+03	0	2.711091e-03
1.500000e+08	9.258003e+14	0.000000e+00	7.516778e-01	1.049435e+16	2.253431e+15	3.270127e+14	2.442292e+04	1.217735e+04	5.151305e+03	0	2.686434e-03
1.600000e+08	8.993929e+14	0.000000e+00	7.516778e-01	1.029070e+16	2.539011e+15	3.252539e+14	2.434784e+04	1.244589e+04	5.264902e+03	0	2.660645e-03
1.700000e+08	8.726141e+14	0.000000e+00	7.516778e-01	1.008457e+16	2.830901e+15	3.235080e+14	2.427422e+04	1.269867e+04	5.371834e+03	0	2.633972e-03
1.800000e+08	8.457482e+14	0.000000e+00	7.516778e-01	9.878034e+15	3.125578e+15	3.217750e+14	2.420206e+04	1.293547e+04	5.472006e+03	0	2.606659e-03
1.900000e+08	8.190486e+14	0.000000e+00	7.516778e-01	9.672933e+15	3.419596e+15	3.200547e+14	2.413139e+04	1.315624e+04	5.565398e+03	0	2.578935e-03
2.000000e+08	7.927350e+14	0.000000e+00	7.516778e-01	9.470865e+15	3.709704e+15	3.183472e+14	2.406217e+04	1.336111e+04	5.652061e+03	0	2.551016e-03
2.100000e+08	7.669916e+14	0.000000e+00	7.516778e-01	9.273168e+15	3.992941e+15	3.166521e+14	2.399440e+04	1.355034e+04	5.732109e+03	0	2.523097e-03
2.200000e+08	7.419676e+14	0.000000e+00	7.516778e-01	9.080921e+15	4.266705e+15	3.149695e+14	2.392804e+04	1.372433e+04	5.805711e+03	0	2.495354e-03
2.300000e+08	7.177786e+14	0.000000e+00	7.516778e-01	8.894959e+15	4.528805e+15	3.132993e+14	2.386306e+04	1.388359e+04	5.873084e+03	0	2.467936e-03
2.400000e+08	6.945091e+14	0.000000e+00	7.516778e-01	8.715890e+15	4.777473e+15	3.116413e+14	2.379940e+04	1.402874e+04	5.934483e+03	0	2.440974e-03
2.500000e+08	6.722157e+14	0.000000e+00	7.516778e-01	8.544119e+15	5.011362e+15	3.099955e+14	2.373702e+04	1.416042e+04	5.990191e+03	0	2.414571e-03
2.600000e+08	6.509304e+14	0.000000e+00	7.516778e-01	8.379870e+15	5.229524e+15	3.083617e+14	2.367587e+04	1.427938e+04	6.040512e+03	0	2.388812e-03
2.700000e+08	6.306647e+14	0.000000e+00	7.516778e-01	8.223218e+15	5.431397e+15	3.067398e+14	2.361589e+04	1.438636e+04	6.085764e+03	0	2.363760e-03
2.800000e+08	6.114125e+14	0.000000e+00	7.516778e-01	8.074112e+15	5.616735e+15	3.051298e+14	2.355704e+04	1.448211e+04	6.126273e+03	0	2.339458e-03
2.900000e+08	5.931543e+14	0.000000e+00	7.516778e-01	7.932399e+15	5.785589e+15	3.035316e+14	2.349924e+04	1.456742e+04	6.162361e+03	0	2.315935e-03
3.000000e+08	5.758598e+14	0.000000e+00	7.516778e-01	7.797853e+15	5.938239e+15	3.019450e+14	2.344246e+04	1.464304e+04	6.194350e+03	0	2.293204e-03
3.100000e+08	5.594908e+14	0.000000e+00	7.516778e-01	7.670187e+15	6.075161e+15	3.003699e+14	2.338664e+04	1.470971e+04	6.222552e+03	0	2.271267e-03
3.200000e+08	5.440034e+14	0.000000e+00	7.516778e-01	7.549074e+15	6.196982e+15	2.988064e+14	2.333173e+04	1.476814e+04	6.247268e+03	0	2.250113e-03
3.300000e+08	5.293504e+14	0.000000e+00	7.516778e-01	7.434164e+15	6.304431e+15	2.972541e+14	2.327769e+04	1.481900e+04	6.268784e+03	0	2.229726e-03
3.400000e+08	5.154826e+14	0.000000e+00	7.516778e-01	7.325093e+15	6.398320e+15	2.957132e+14	2.322446e+04	1.486295e+04	6.287374e+03	0	2.210082e-03
3.500000e+08	5.023502e+14	0.000000e+00	7.516778e-01	7.221490e+15	6.479499e+15	2.941834e+14	2.317202e+04	1.490058e+04	6.303293e+03	0	2.191153e-03
3.600000e+08	4.899038e+14	0.000000e+00	7.516778e-01	7.122992e+15	6.548846e+15	2.926648e+14	2.312032e+04	1.493246e+04	6.316781e+03	0	2.172905e-03
3.700000e+08	4.780954e+14	0.000000e+00	7.516778e-01	7.029243e+15	6.607236e+15	2.911571e+14	2.306932e+04	1.495913e+04	6.328060e+03	0	2.155305e-03
3.800000e+08	4.668787e+14	0.000000e+00	7.516778e-01	6.939902e+15	6.655535e+15	2.896603e+14	2.301898e+04	1.498105e+04	6.337335e+03	0	2.138316e-03
3.900000e+08	4.562096e+14	0.000000e+00	7.516778e-01	6.854642e+15	6.694573e+15	2.881744e+14	2.296929e+04	1.499869e+04	6.344799e+03	0	2.121902e-03
4.000000e+08	4.460464e+14	0.000000e+00	7.516778e-01	6.773156e+15	6.725155e+15	2.866991e+14	2.292021e+04	1.501246e+04	6.350623e+03	0	2.106027e-03
4.100000e+08	4.363502e+14	0.000000e+00	7.516778e-01	6.695156e+15	6.748039e+15	2.852346e+14	2.287171e+04	1.502274e+04	6.354970e+03	0	2.090654e-03
4.200000e+08	4.270846e+14	0.000000e+00	7.516778e-01	6.620375e+15	6.763941e+15	2.837806e+14	2.282376e+04	1.502987e+04	6.357984e+03	0	2.075750e-03
4.300000e+08	4.182158e+14	0.000000e+00	7.516778e-01	6.548563e+15	6.773531e+15	2.823370e+14	2.277635e+04	1.503416e+04	6.359800e+03	0	2.061282e-03
4.400000e+08	4.097128e+14	0.000000e+00	7.516778e-01	6.479490e+15	6.777429e+15	2.809038e+14	2.272946e+04	1.503590e+04	6.360537e+03	0	2.047216e-03
4.500000e+08	4.015469e+14	0.000000e+00	7.516778e-01	6.412945e+15	6.776205e+15	2.794810e+14	2.268305e+04	1.503535e+04	6.360306e+03	0	2.033524e-03
4.600000e+08	3.936917e+14	0.000000e+00	7.516778e-01	6.348734e+15	6.770394e+15	2.780683e+14	2.263712e+04	1.503275e+04	6.359206e+03	0	2.020176e-03
4.700000e+08	3.861233e+14	0.000000e+00	7.516778e-01	6.286679e+15	6.760476e+15	2.766658e+14	2.259165e+04	1.502831e+04	6.357328e+03	0	2.007147e-03
4.800000e+08	3.788197e+14	0.000000e+00	7.516778e-01	6.226619e+15	6.746897e+15	2.752733e+14	2.254663e+04	1.502223e+04	6.354753e+03	0	1.994411e-03
4.900000e+08	3.717609e+14	0.000000e+00	7.516778e-01	6.168406e+15	6.730058e+15	2.738908e+14	2.250203e+04	1.501467e+04	6.351556e+03	0	1.981946e-03
5.000000e+08	3.649286e+14	0.000000e+00	7.516778e-01	6.111904e+15	6.710325e+15	2.725182e+14	2.245785e+04	1.500579e+04	6.347801e+03	0	1.969729e-03
5.100000e+08	3.583062e+14	0.000000e+00	7.516778e-01	6.056992e+15	6.688029e+15	2.711554e+14	2.241407e+04	1.499574e+04	6.343550e+03	0	1.957741e-03
5.200000e+08	3.518787e+14	0.000000e+00	7.516778e-01	6.003557e+15	6.663475e+15	2.698023e+14	2.237069e+04	1.498465e+04	6.338856e+03	0	1.945964e-03
5.300000e+08	3.456323e+14	0.000000e+00	7.516778e-01	5.951499e+15	6.636932e+15	2.684589e+14	2.232768e+04	1.497262e+04	6.333768e+03	0	1.934381e-03
5.400000e+08	3.395546e+14	0.000000e+00	7.516778e-01	5.900725e+15	6.608644e+15	2.671251e+14	2.228505e+04	1.495977e+04	6.328330e+03	0	1.922975e-03
5.500000e+08	3.336343e+14	0.000000e+00	7.516778e-01	5.851152e+15	6.578832e+15	2.658007e+14	2.224278e+04	1.494618e+04	6.322582e+03	0	1.911734e-03
5.600000e+08	3.278612e+14	0.000000e+00	7.516778e-01	5.802704e+15	6.547696e+15	2.644857e+14	2.220087e+04	1.493194e+04	6.316558e+03	0	1.900643e-03
5.700000e+08	3.222258e+14	0.000000e+00	7.516778e-01	5.755311e+15	6.515412e+15	2.631801e+14	2.215930e+04	1.491712e+04	6.310291e+03	0	1.889690e-03
5.800000e+08	3.167198e+14	0.000000e+00	7.516778e-01	5.708912e+15	6.482140e+15	2.618837e+14	2.211807e+04	1.490180e+04	6.303809e+03	0	1.878865e-03
5.900000e+08	3.113354e+14	0.000000e+00	7.516778e-01	5.663448e+15	6.448027e+15	2.605966e+14	2.207717e+04	1.488603e+04	6.297139e+03	0	1.868157e-03
6.000000e+08	3.060657e+14	0.000000e+00	7.516778e-01	5.618868e+15	6.413200e+15	2.593185e+14	2.203659e+04	1.486987e+04	6.290303e+03	0	1.857556e-03
6.100000e+08	3.009041e+14	0.000000e+00	7.516778e-01	5.575124e+15	6.377775e+15	2.580495e+14	2.199634e+04	1.485337e+04	6.283323e+03	0	1.847055e-03
6.200000e+08	2.958450e+14	0.000000e+00	7.516778e-01	5.532173e+15	6.341851e+15	2.567895e+14	2.195639e+04	1.483657e+04	6.276217e+03	0	1.836645e-03
6.300000e+08	2.908829e+14	0.000000e+00	7.516778e-01	5.489976e+15	6.305525e+15	2.555383e+14	2.191676e+04	1.481952e+04	6.269002e+03	0	1.826319e-03
6.400000e+08	2.860131e+14	0.000000e+00	7.516778e-01	5.448497e+15	6.268874e+15	2.542960e+14	2.187742e+04	1.480224e+04	6.261693e+03	0	1.816070e-03
6.500000e+08	2.812311e+14	0.000000e+00	7.516778e-01	5.407701e+15	6.231977e+15	2.530624e+14	2.183839e+04	1.478477e+04	6.254304e+03	0	1.805891e-03
6.600000e+08	2.765329e+14	0.000000e+00	7.516778e-01	5.367560e+15	6.194896e+15	2.518375e+14	2.179964e+04	1.476714e+04	6.246847e+03	0	1.795778e-03
6.700000e+08	2.719147e+14	0.000000e+00	7.516778e-01	5.328045e+15	6.157690e+15	2.506212e+14	2.176118e+04	1.474938e+04	6.239334e+03	0	1.785726e-03
6.800000e+08	2.673731e+14	0.000000e+00	7.516778e-01	5.289131e+15	6.120410e+15	2.494135e+14	2.172300e+04	1.473151e+04	6.231773e+03	0	1.775728e-03
6.900000e+08	2.629050e+14	0.000000e+00	7.516778e-01	5.250794e+15	6.083105e+15	2.482142e+14	2.168510e+04	1.471355e+04	6.224174e+03	0	1.765781e-03
7.000000e+08	2.585074e+14	0.000000e+00	7.516778e-01	5.213013e+15	6.045816e+15	2.470234e+14	2.164748e+04	1.469551e+04	6.216545e+03	0	1.755880e-03
7.100000e+08	2.541777e+14	0.000000e+00	7.516778e-01	5.175766e+15	6.008570e+15	2.458408e+14	2.161012e+04	1.467742e+04	6.208893e+03	0	1.746022e-03
7.200000e+08	2.499134e+14	0.000000e+00	7.516778e-01	5.139037e+15	5.971416e+15	2.446666e+14	2.157303e+04	1.465930e+04	6.201225e+03	0	1.736202e-03
7.300000e+08	2.457123e+14	0.000000e+00	7.516778e-01	5.102807e+15	5.934366e+15	2.435005e+14	2.153620e+04	1.464114e+04	6.193546e+03	0	1.726419e-03
7.400000e+08	2.415722e+14	0.000000e+00	7.516778e-01	5.067061e+15	5.897456e+15	2.423426e+14	2.149964e+04	1.462298e+04	6.185861e+03	0	1.716667e-03
7.500000e+08	2.374911e+14	0.000000e+00	7.516778e-01	5.031784e+15	5.860702e+15	2.411928e+14	2.146332e+04	1.460481e+04	6.178175e+03	0	1.706945e-03
7.600000e+08	2.334671e+14	0.000000e+00	7.516778e-01	4.996962e+15	5.824129e+15	2.400509e+14	2.142726e+04	1.458665e+04	6.170493e+03	0	1.697250e-03
7.700000e+08	2.294987e+14	0.000000e+00	7.516778e-01	4.962581e+15	5.787748e+15	2.389171e+14	2.139145e+04	1.456850e+04	6.162818e+03	0	1.687578e-03
7.800000e+08	2.255841e+14	0.000000e+00	7.516778e-01	4.928630e+15	5.751577e+15	2.377911e+14	2.135588e+04	1.455038e+04	6.155152e+03	0	1.677928e-03
7.900000e+08	2.217219e+14	0.000000e+00	7.516778e-01	4.895097e+15	5.715630e+15	2.366729e+14	2.132056e+04	1.453229e+04	6.147500e+03	0	1.668297e-03
8.000000e+08	2.179106e+14	0.000000e+00	7.516778e-01	4.861972e+15	5.679915e+15	2.355624e+14	2.128548e+04	1.451424e+04	6.139864e+03	0	1.658683e-03
8.100000e+08	2.141490e+14	0.000000e+00	7.516778e-01	4.829245e+15	5.644442e+15	2.344597e+14	2.125063e+04	1.449624e+04	6.132247e+03	0	1.649083e-03
8.200000e+08	2.104358e+14	0.000000e+00	7.516778e-01	4.796905e+15	5.609225e+15	2.333646e+14	2.121602e+04	1.447828e+04	6.124649e+03	0	1.639496e-03
8.300000e+08	2.067697e+14	0.000000e+00	7.516778e-01	4.764944e+15	5.574265e+15	2.322771e+14	2.118164e+04	1.446037e+04	6.117075e+03	0	1.629919e-03
8.400000e+08	2.031498e+14	0.000000e+00	7.516778e-01	4.733354e+15	5.539568e+15	2.311971e+14	2.114748e+04	1.444252e+04	6.109524e+03	0	1.620352e-03
8.500000e+08	1.995748e+14	0.000000e+00	7.516778e-01	4.702126e+15	5.505142e+15	2.301245e+14	2.111356e+04	1.442473e+04	6.101998e+03	0	1.610791e-03
8.600000e+08	1.960439e+14	0.000000e+00	7.516778e-01	4.671252e+15	5.470990e+15	2.290593e+14	2.107985e+04	1.440700e+04	6.094500e+03	0	1.601234e-03
8.700000e+08	1.925561e+14	0.000000e+00	7.516778e-01	4.640726e+15	5.437117e+15	2.280015e+14	2.104637e+04	1.438934e+04	6.087029e+03	0	1.591682e-03
8.800000e+08	1.891104e+14	0.000000e+00	7.516778e-01	4.610540e+15	5.403521e+15	2.269509e+14	2.101310e+04	1.437175e+04	6.079588e+03	0	1.582130e-03
8.900000e+08	1.857060e+14	0.000000e+00	7.516778e-01	4.580687e+15	5.370207e+15	2.259076e+14	2.098005e+04	1.435423e+04	6.072176e+03	0	1.572579e-03
9.000000e+08	1.823420e+14	0.000000e+00	7.516778e-01	4.551162e+15	5.337177e+15	2.248714e+14	2.094722e+04	1.433678e+04	6.064795e+03	0	1.563026e-03
9.100000e+08	1.790177e+14	0.000000e+00	7.516778e-01	4.521958e+15	5.304430e+15	2.238423e+14	2.091459e+04	1.431941e+04	6.057446e+03	0	1.553469e-03
9.200000e+08	1.757324e+14	0.000000e+00	7.516778e-01	4.493069e+15	5.271969e+15	2.228203e+14	2.088218e+04	1.430211e+04	6.050128e+03	0	1.543907e-03
9.300000e+08	1.724852e+14	0.000000e+00	7.516778e-01	4.464489e+15	5.239792e+15	2.218052e+14	2.084997e+04	1.428489e+04	6.042843e+03	0	1.534338e-03
9.400000e+08	1.692754e+14	0.000000e+00	7.516778e-01	4.436214e+15	5.207897e+15	2.207971e+14	2.081796e+04	1.426775e+04	6.035591e+03	0	1.524761e-03
9.500000e+08	1.661025e+14	0.000000e+00	7.516778e-01	4.408237e+15	5.176288e+15	2.197959e+14	2.078616e+04	1.425068e+04	6.028372e+03	0	1.515174e-03
9.600000e+08	1.629657e+14	0.000000e+00	7.516778e-01	4.380554e+15	5.144960e+15	2.188015e+14	2.075456e+04	1.423370e+04	6.021187e+03	0	1.505575e-03
9.700000e+08	1.598644e+14	0.000000e+00	7.516778e-01	4.353159e+15	5.113915e+15	2.178139e+14	2.072315e+04	1.421679e+04	6.014035e+03	0	1.495964e-03
9.800000e+08	1.567980e+14	0.000000e+00	7.516778e-01	4.326049e+15	5.083150e+15	2.168330e+14	2.069194e+04	1.419997e+04	6.006918e+03	0	1.486337e-03
9.900000e+08	1.537659e+14	0.000000e+00	7.516778e-01	4.299218e+15	5.052662e+15	2.158587e+14	2.066093e+04	1.418322e+04	5.999835e+03	0	1.476694e-03
1.000000e+09	1.507675e+14	0.000000e+00	7.516778e-01	4.272662e+15	5.022451e+15	2.148911e+14	2.063010e+04	1.416656e+04	5.992786e+03	0	1.467033e-03
1.010000e+09	1.478023e+14	0.000000e+00	7.516778e-01	4.246377e+15	4.992516e+15	2.139300e+14	2.059947e+04	1.414998e+04	5.985772e+03	0	1.457351e-03
1.020000e+09	1.448698e+14	0.000000e+00	7.516778e-01	4.220358e+15	4.962854e+15	2.129755e+14	2.056902e+04	1.413348e+04	5.978792e+03	0	1.447649e-03
1.030000e+09	1.419695e+14	0.000000e+00	7.516778e-01	4.194601e+15	4.933462e+15	2.120274e+14	2.053876e+04	1.411706e+04	5.971846e+03	0	1.437922e-03
1.040000e+09	1.391007e+14	0.000000e+00	7.516778e-01	4.169103e+15	4.904340e+15	2.110857e+14	2.050869e+04	1.410072e+04	5.964935e+03	0	1.428171e-03
1.050000e+09	1.362631e+14	0.000000e+00	7.516778e-01	4.143859e+15	4.875483e+15	2.101504e+14	2.047880e+04	1.408447e+04	5.958058e+03	0	1.418393e-03
1.060000e+09	1.334561e+14	0.000000e+00	7.516778e-01	4.118867e+15	4.846893e+15	2.092214e+14	2.044908e+04	1.406829e+04	5.951216e+03	0	1.408586e-03
1.070000e+09	1.306793e+14	0.000000e+00	7.516778e-01	4.094121e+15	4.818563e+15	2.082986e+14	2.041955e+04	1.405220e+04	5.944407e+03	0	1.398748e-03
1.080000e+09	1.279322e+14	0.000000e+00	7.516778e-01	4.069618e+15	4.790491e+15	2.073821e+14	2.039019e+04	1.403618e+04	5.937633e+03	0	1.388877e-03
1.090000e+09	1.252144e+14	0.000000e+00	7.516778e-01	4.045356e+15	4.762674e+15	2.064717e+14	2.036101e+04	1.402025e+04	5.930893e+03	0	1.378971e-03
1.100000e+09	1.225255e+14	0.000000e+00	7.516778e-01	4.021330e+15	4.735114e+15	2.055674e+14	2.033201e+04	1.400440e+04	5.924187e+03	0	1.369029e-03
1.110000e+09	1.198650e+14	0.000000e+00	7.516778e-01	3.997538e+15	4.707806e+15	2.046692e+14	2.030317e+04	1.398862e+04	5.917515e+03	0	1.359047e-03
1.120000e+09	1.172325e+14	0.000000e+00	7.516778e-01	3.973975e+15	4.680747e+15	2.037770e+14	2.027450e+04	1.397293e+04	5.910877e+03	0	1.349024e-03
1.130000e+09	1.146276e+14	0.000000e+00	7.516778e-01	3.950640e+15	4.653935e+15	2.028908e+14	2.024601e+04	1.395732e+04	5.904271e+03	0	1.338958e-03
1.140000e+09	1.120499e+14	0.000000e+00	7.516778e-01	3.927528e+15	4.627365e+15	2.020105e+14	2.021768e+04	1.394178e+04	5.897700e+03	0	1.328845e-03
1.150000e+09	1.094990e+14	0.000000e+00	7.516778e-01	3.904636e+15	4.601036e+15	2.011360e+14	2.018951e+04	1.392632e+04	5.891161e+03	0	1.318684e-03
1.160000e+09	1.069746e+14	0.000000e+00	7.516778e-01	3.881962e+15	4.574947e+15	2.002675e+14	2.016151e+04	1.391095e+04	5.884655e+03	0	1.308471e-03
1.170000e+09	1.044763e+14	0.000000e+00	7.516778e-01	3.859503e+15	4.549095e+15	1.994047e+14	2.013367e+04	1.389564e+04	5.878182e+03	0	1.298204e-03
1.180000e+09	1.020037e+14	0.000000e+00	7.516778e-01	3.837256e+15	4.523474e+15	1.985476e+14	2.010599e+04	1.388042e+04	5.871742e+03	0	1.287881e-03
1.190000e+09	9.955643e+13	0.000000e+00	7.516778e-01	3.815217e+15	4.498086e+15	1.976962e+14	2.007847e+04	1.386527e+04	5.865334e+03	0	1.277498e-03
1.200000e+09	9.713418e+13	0.000000e+00	7.516778e-01	3.793385e+15	4.472926e+15	1.968505e+14	2.005111e+04	1.385020e+04	5.858958e+03	0	1.267052e-03
1.210000e+09	9.473659e+13	0.000000e+00	7.516778e-01	3.771756e+15	4.447992e+15	1.960104e+14	2.002391e+04	1.383520e+04	5.852614e+03	0	1.256540e-03
1.220000e+09	9.236334e+13	0.000000e+00	7.516778e-01	3.750328e+15	4.423280e+15	1.951759e+14	1.999686e+04	1.382028e+04	5.846302e+03	0	1.245959e-03
1.230000e+09	9.001409e+13	0.000000e+00	7.516778e-01	3.729098e+15	4.398789e+15	1.943469e+14	1.996996e+04	1.380543e+04	5.840021e+03	0	1.235304e-03
1.240000e+09	8.768852e+13	0.000000e+00	7.516778e-01	3.708064e+15	4.374517e+15	1.935233e+14	1.994322e+04	1.379066e+04	5.833772e+03	0	1.224573e-03
1.250000e+09	8.538630e+13	0.000000e+00	7.516778e-01	3.687223e+15	4.350460e+15	1.927052e+14	1.991662e+04	1.377596e+04	5.827554e+03	0	1.213761e-03
1.260000e+09	8.310714e+13	0.000000e+00	7.516778e-01	3.666572e+15	4.326618e+15	1.918925e+14	1.989018e+04	1.376133e+04	5.821366e+03	0	1.202864e-03
1.270000e+09	8.085073e+13	0.000000e+00	7.516778e-01	3.646110e+15	4.302985e+15	1.910852e+14	1.986388e+04	1.374678e+04	5.815210e+03	0	1.191878e-03
1.280000e+09	7.861676e+13	0.000000e+00	7.516778e-01	3.625834e+15	4.279562e+15	1.902831e+14	1.983773e+04	1.373230e+04	5.809084e+03	0	1.180798e-03
1.290000e+09	7.640495e+13	0.000000e+00	7.516778e-01	3.605741e+15	4.256344e+15	1.894864e+14	1.981172e+04	1.371789e+04	5.802988e+03	0	1.169619e-03
1.300000e+09	7.421500e+13	0.000000e+00	7.516778e-01	3.585829e+15	4.233330e+15	1.886948e+14	1.978586e+04	1.370355e+04	5.796922e+03	0	1.158336e-03
1.310000e+09	7.204663e+13	0.000000e+00	7.516778e-01	3.566096e+15	4.210518e+15	1.879085e+14	1.976014e+04	1.368928e+04	5.790886e+03	0	1.146943e-03
1.320000e+09	6.989955e+13	0.000000e+00	7.516778e-01	3.546540e+15	4.187905e+15	1.871273e+14	1.973456e+04	1.367508e+04	5.784879e+03	0	1.135434e-03
1.330000e+09	6.777351e+13	0.000000e+00	7.516778e-01	3.527158e+15	4.165487e+15	1.863512e+14	1.970912e+04	1.366095e+04	5.778902e+03	0	1.123804e-03
1.340000e+09	6.566821e+13	0.000000e+00	7.516778e-01	3.507949e+15	4.143265e+15	1.855801e+14	1.968382e+04	1.364689e+04	5.772954e+03	0	1.112045e-03
1.350000e+09	6.358341e+13	0.000000e+00	7.516778e-01	3.488910e+15	4.121236e+15	1.848142e+14	1.965866e+04	1.363290e+04	5.767035e+03	0	1.100150e-03
1.360000e+09	6.151883e+13	0.000000e+00	7.516778e-01	3.470039e+15	4.099396e+15	1.840532e+14	1.963363e+04	1.361898e+04	5.761145e+03	0	1.088111e-03
