#t		Qconv[W]	Ri[Rp]		R*[Rp]		Qc[W]		Qm[W]		Qr[W]		Tcmb[K]		Tl[K]		Tup[K]		RiFlag		Bs[T]
0.000000e+00	1.035575e+15	0.000000e+00	7.516777e-01	1.183931e+16	5.323957e+13	3.650768e+14	2.598646e+04	6.937675e+03	2.925119e+03	0	2.787847e-03
1.000000e+07	1.047867e+15	0.000000e+00	7.516777e-01	1.191517e+16	7.959091e+13	3.630540e+14	2.590625e+04	7.314336e+03	3.083930e+03	0	2.798834e-03
2.000000e+07	1.057119e+15	0.000000e+00	7.516777e-01	1.196887e+16	1.153068e+14	3.610463e+14	2.582552e+04	7.692332e+03	3.243304e+03	0	2.807046e-03
3.000000e+07	1.063229e+15	0.000000e+00	7.516777e-01	1.199972e+16	1.623884e+14	3.590536e+14	2.574443e+04	8.070652e+03	3.402814e+03	0	2.812444e-03
4.000000e+07	1.066134e+15	0.000000e+00	7.516777e-01	1.200728e+16	2.228951e+14	3.570759e+14	2.566313e+04	8.448204e+03	3.562001e+03	0	2.815003e-03
5.000000e+07	1.065813e+15	0.000000e+00	7.516777e-01	1.199141e+16	2.988533e+14	3.551128e+14	2.558177e+04	8.823818e+03	3.720370e+03	0	2.814721e-03
6.000000e+07	1.062290e+15	0.000000e+00	7.516777e-01	1.195233e+16	3.921535e+14	3.531644e+14	2.550053e+04	9.196257e+03	3.877401e+03	0	2.811617e-03
7.000000e+07	1.055637e+15	0.000000e+00	7.516777e-01	1.189057e+16	5.044413e+14	3.512305e+14	2.541955e+04	9.564238e+03	4.032552e+03	0	2.805735e-03
8.000000e+07	1.045973e+15	0.000000e+00	7.516777e-01	1.180703e+16	6.370096e+14	3.493110e+14	2.533899e+04	9.926447e+03	4.185270e+03	0	2.797146e-03
9.000000e+07	1.033461e+15	0.000000e+00	7.516777e-01	1.170292e+16	7.907000e+14	3.474058e+14	2.525900e+04	1.028157e+04	4.334997e+03	0	2.785948e-03
1.000000e+08	1.018310e+15	0.000000e+00	7.516777e-01	1.157977e+16	9.658238e+14	3.455147e+14	2.517970e+04	1.062829e+04	4.481188e+03	0	2.772267e-03
1.100000e+08	1.000766e+15	0.000000e+00	7.516777e-01	1.143940e+16	1.162106e+15	3.436376e+14	2.510125e+04	1.096538e+04	4.623312e+03	0	2.756253e-03
1.200000e+08	9.811035e+14	0.000000e+00	7.516777e-01	1.128381e+16	1.378664e+15	3.417745e+14	2.502374e+04	1.129164e+04	4.760874e+03	0	2.738083e-03
1.300000e+08	9.596224e+14	0.000000e+00	7.516777e-01	1.111519e+16	1.614014e+15	3.399252e+14	2.494728e+04	1.160601e+04	4.893419e+03	0	2.717952e-03
1.400000e+08	9.366351e+14	0.000000e+00	7.516777e-01	1.093584e+16	1.866121e+15	3.380895e+14	2.487196e+04	1.190751e+04	5.020542e+03	0	2.696074e-03
1.500000e+08	9.124593e+14	0.000000e+00	7.516777e-01	1.074806e+16	2.132470e+15	3.362674e+14	2.479786e+04	1.219535e+04	5.141901e+03	0	2.672675e-03
1.600000e+08	8.874083e+14	0.000000e+00	7.516777e-01	1.055414e+16	2.410168e+15	3.344588e+14	2.472503e+04	1.246885e+04	5.257217e+03	0	2.647989e-03
1.700000e+08	8.617833e+14	0.000000e+00	7.516777e-01	1.035628e+16	2.696062e+15	3.326635e+14	2.465351e+04	1.272753e+04	5.366283e+03	0	2.622252e-03
1.800000e+08	8.358662e+14	0.000000e+00	7.516777e-01	1.015652e+16	2.986866e+15	3.308814e+14	2.458332e+04	1.297105e+04	5.468961e+03	0	2.595697e-03
1.900000e+08	8.099145e+14	0.000000e+00	7.516777e-01	9.956728e+15	3.279286e+15	3.291125e+14	2.451449e+04	1.319927e+04	5.565183e+03	0	2.568550e-03
2.000000e+08	7.841566e+14	0.000000e+00	7.516777e-01	9.758571e+15	3.570129e+15	3.273566e+14	2.444701e+04	1.341217e+04	5.654950e+03	0	2.541027e-03
2.100000e+08	7.587901e+14	0.000000e+00	7.516777e-01	9.563478e+15	3.856412e+15	3.256136e+14	2.438087e+04	1.360991e+04	5.738323e+03	0	2.513327e-03
2.200000e+08	7.339806e+14	0.000000e+00	7.516777e-01	9.372645e+15	4.135435e+15	3.238834e+14	2.431605e+04	1.379277e+04	5.815420e+03	0	2.485630e-03
2.300000e+08	7.098619e+14	0.000000e+00	7.516777e-01	9.187041e+15	4.404838e+15	3.221659e+14	2.425252e+04	1.396113e+04	5.886407e+03	0	2.458101e-03
2.400000e+08	6.865379e+14	0.000000e+00	7.516777e-01	9.007414e+15	4.662640e+15	3.204610e+14	2.419025e+04	1.411550e+04	5.951492e+03	0	2.430878e-03
2.500000e+08	6.640848e+14	0.000000e+00	7.516777e-01	8.834309e+15	4.907251e+15	3.187686e+14	2.412919e+04	1.425644e+04	6.010917e+03	0	2.404083e-03
2.600000e+08	6.425534e+14	0.000000e+00	7.516777e-01	8.668087e+15	5.137456e+15	3.170886e+14	2.406931e+04	1.438459e+04	6.064947e+03	0	2.377815e-03
2.700000e+08	6.219729e+14	0.000000e+00	7.516777e-01	8.508954e+15	5.352420e+15	3.154208e+14	2.401054e+04	1.450061e+04	6.113867e+03	0	2.352153e-03
2.800000e+08	6.023538e+14	0.000000e+00	7.516777e-01	8.356977e+15	5.551640e+15	3.137652e+14	2.395286e+04	1.460522e+04	6.157974e+03	0	2.327156e-03
2.900000e+08	5.836911e+14	0.000000e+00	7.516777e-01	8.212112e+15	5.734906e+15	3.121217e+14	2.389620e+04	1.469913e+04	6.197567e+03	0	2.302870e-03
3.000000e+08	5.659672e+14	0.000000e+00	7.516777e-01	8.074222e+15	5.902273e+15	3.104902e+14	2.384052e+04	1.478305e+04	6.232950e+03	0	2.279321e-03
3.100000e+08	5.491549e+14	0.000000e+00	7.516777e-01	7.943103e+15	6.054015e+15	3.088706e+14	2.378578e+04	1.485769e+04	6.264420e+03	0	2.256524e-03
3.200000e+08	5.332195e+14	0.000000e+00	7.516777e-01	7.818497e+15	6.190574e+15	3.072628e+14	2.373192e+04	1.492374e+04	6.292267e+03	0	2.234483e-03
3.300000e+08	5.181213e+14	0.000000e+00	7.516777e-01	7.700106e+15	6.312537e+15	3.056666e+14	2.367891e+04	1.498186e+04	6.316772e+03	0	2.213191e-03
3.400000e+08	5.038171e+14	0.000000e+00	7.516777e-01	7.587611e+15	6.420581e+15	3.040821e+14	2.362670e+04	1.503268e+04	6.338203e+03	0	2.192633e-03
3.500000e+08	4.902619e+14	0.000000e+00	7.516777e-01	7.480677e+15	6.515464e+15	3.025090e+14	2.357525e+04	1.507683e+04	6.356814e+03	0	2.172790e-03
3.600000e+08	4.774097e+14	0.000000e+00	7.516777e-01	7.378966e+15	6.597987e+15	3.009474e+14	2.352452e+04	1.511485e+04	6.372846e+03	0	2.153635e-03
3.700000e+08	4.652150e+14	0.000000e+00	7.516777e-01	7.282141e+15	6.668970e+15	2.993970e+14	2.347448e+04	1.514729e+04	6.386523e+03	0	2.135140e-03
3.800000e+08	4.536333e+14	0.000000e+00	7.516777e-01	7.189873e+15	6.729238e+15	2.978579e+14	2.342510e+04	1.517464e+04	6.398055e+03	0	2.117272e-03
3.900000e+08	4.426213e+14	0.000000e+00	7.516777e-01	7.101844e+15	6.779604e+15	2.963299e+14	2.337634e+04	1.519736e+04	6.407636e+03	0	2.099999e-03
4.000000e+08	4.321378e+14	0.000000e+00	7.516777e-01	7.017750e+15	6.820858e+15	2.948129e+14	2.332817e+04	1.521589e+04	6.415446e+03	0	2.083287e-03
4.100000e+08	4.221439e+14	0.000000e+00	7.516777e-01	6.937303e+15	6.853764e+15	2.933069e+14	2.328058e+04	1.523061e+04	6.421652e+03	0	2.067102e-03
4.200000e+08	4.126027e+14	0.000000e+00	7.516777e-01	6.860232e+15	6.879043e+15	2.918117e+14	2.323353e+04	1.524188e+04	6.426406e+03	0	2.051410e-03
4.300000e+08	4.034798e+14	0.000000e+00	7.516777e-01	6.786284e+15	6.897383e+15	2.903273e+14	2.318700e+04	1.525004e+04	6.429847e+03	0	2.036177e-03
4.400000e+08	3.947434e+14	0.000000e+00	7.516777e-01	6.715223e+15	6.909423e+15	2.888536e+14	2.314097e+04	1.525539e+04	6.432102e+03	0	2.021374e-03
4.500000e+08	3.863636e+14	0.000000e+00	7.516777e-01	6.646831e+15	6.915765e+15	2.873905e+14	2.309542e+04	1.525821e+04	6.433289e+03	0	2.006968e-03
4.600000e+08	3.783132e+14	0.000000e+00	7.516777e-01	6.580906e+15	6.916960e+15	2.859379e+14	2.305033e+04	1.525874e+04	6.433513e+03	0	1.992931e-03
4.700000e+08	3.705670e+14	0.000000e+00	7.516777e-01	6.517263e+15	6.913527e+15	2.844957e+14	2.300569e+04	1.525721e+04	6.432871e+03	0	1.979235e-03
4.800000e+08	3.631018e+14	0.000000e+00	7.516777e-01	6.455731e+15	6.905937e+15	2.830638e+14	2.296149e+04	1.525384e+04	6.431449e+03	0	1.965853e-03
4.900000e+08	3.558964e+14	0.000000e+00	7.516777e-01	6.396154e+15	6.894614e+15	2.816422e+14	2.291769e+04	1.524881e+04	6.429328e+03	0	1.952763e-03
5.000000e+08	3.489316e+14	0.000000e+00	7.516777e-01	6.338389e+15	6.879959e+15	2.802307e+14	2.287430e+04	1.524229e+04	6.426578e+03	0	1.939941e-03
5.100000e+08	3.421895e+14	0.000000e+00	7.516777e-01	6.282306e+15	6.862340e+15	2.788293e+14	2.283131e+04	1.523443e+04	6.423266e+03	0	1.927365e-03
5.200000e+08	3.356540e+14	0.000000e+00	7.516777e-01	6.227786e+15	6.842075e+15	2.774379e+14	2.278869e+04	1.522538e+04	6.419450e+03	0	1.915016e-03
5.300000e+08	3.293105e+14	0.000000e+00	7.516777e-01	6.174720e+15	6.819467e+15	2.760565e+14	2.274644e+04	1.521526e+04	6.415183e+03	0	1.902875e-03
5.400000e+08	3.231455e+14	0.000000e+00	7.516777e-01	6.123009e+15	6.794783e+15	2.746849e+14	2.270455e+04	1.520419e+04	6.410514e+03	0	1.890925e-03
5.500000e+08	3.171468e+14	0.000000e+00	7.516777e-01	6.072563e+15	6.768270e+15	2.733230e+14	2.266301e+04	1.519226e+04	6.405484e+03	0	1.879151e-03
5.600000e+08	3.113033e+14	0.000000e+00	7.516777e-01	6.023301e+15	6.740153e+15	2.719709e+14	2.262181e+04	1.517957e+04	6.400135e+03	0	1.867539e-03
5.700000e+08	3.056050e+14	0.000000e+00	7.516777e-01	5.975148e+15	6.710624e+15	2.706283e+14	2.258094e+04	1.516621e+04	6.394501e+03	0	1.856074e-03
5.800000e+08	3.000426e+14	0.000000e+00	7.516777e-01	5.928035e+15	6.679870e+15	2.692952e+14	2.254040e+04	1.515225e+04	6.388613e+03	0	1.844743e-03
5.900000e+08	2.946077e+14	0.000000e+00	7.516777e-01	5.881900e+15	6.648046e+15	2.679717e+14	2.250018e+04	1.513775e+04	6.382502e+03	0	1.833537e-03
6.000000e+08	2.892927e+14	0.000000e+00	7.516777e-01	5.836688e+15	6.615303e+15	2.666574e+14	2.246027e+04	1.512278e+04	6.376192e+03	0	1.822444e-03
6.100000e+08	2.840907e+14	0.000000e+00	7.516777e-01	5.792347e+15	6.581767e+15	2.653525e+14	2.242066e+04	1.510740e+04	6.369706e+03	0	1.811454e-03
6.200000e+08	2.789954e+14	0.000000e+00	7.516777e-01	5.748829e+15	6.547562e+15	2.640568e+14	2.238136e+04	1.509166e+04	6.363067e+03	0	1.800559e-03
6.300000e+08	2.740008e+14	0.000000e+00	7.516777e-01	5.706092e+15	6.512791e+15	2.627702e+14	2.234235e+04	1.507559e+04	6.356293e+03	0	1.789750e-03
6.400000e+08	2.691018e+14	0.000000e+00	7.516777e-01	5.664096e+15	6.477550e+15	2.614927e+14	2.230363e+04	1.505924e+04	6.349401e+03	0	1.779019e-03
6.500000e+08	2.642935e+14	0.000000e+00	7.516777e-01	5.622807e+15	6.441922e+15	2.602243e+14	2.226520e+04	1.504265e+04	6.342406e+03	0	1.768359e-03
6.600000e+08	2.595716e+14	0.000000e+00	7.516777e-01	5.582190e+15	6.405984e+15	2.589647e+14	2.222704e+04	1.502585e+04	6.335323e+03	0	1.757765e-03
6.700000e+08	2.549319e+14	0.000000e+00	7.516777e-01	5.542215e+15	6.369806e+15	2.577140e+14	2.218916e+04	1.500887e+04	6.328164e+03	0	1.747229e-03
6.800000e+08	2.503707e+14	0.000000e+00	7.516777e-01	5.502856e+15	6.333448e+15	2.564721e+14	2.215155e+04	1.499174e+04	6.320940e+03	0	1.736745e-03
6.900000e+08	2.458846e+14	0.000000e+00	7.516777e-01	5.464086e+15	6.296961e+15	2.552389e+14	2.211421e+04	1.497448e+04	6.313662e+03	0	1.726310e-03
7.000000e+08	2.414705e+14	0.000000e+00	7.516777e-01	5.425882e+15	6.260398e+15	2.540143e+14	2.207712e+04	1.495711e+04	6.306338e+03	0	1.715917e-03
7.100000e+08	2.371255e+14	0.000000e+00	7.516777e-01	5.388223e+15	6.223797e+15	2.527983e+14	2.204030e+04	1.493965e+04	6.298976e+03	0	1.705563e-03
7.200000e+08	2.328470e+14	0.000000e+00	7.516777e-01	5.351088e+15	6.187206e+15	2.515908e+14	2.200373e+04	1.492212e+04	6.291585e+03	0	1.695243e-03
7.300000e+08	2.286324e+14	0.000000e+00	7.516777e-01	5.314459e+15	6.150652e+15	2.503918e+14	2.196742e+04	1.490453e+04	6.284171e+03	0	1.684952e-03
7.400000e+08	2.244794e+14	0.000000e+00	7.516777e-01	5.278319e+15	6.114165e+15	2.492011e+14	2.193135e+04	1.488691e+04	6.276740e+03	0	1.674688e-03
7.500000e+08	2.203860e+14	0.000000e+00	7.516777e-01	5.242652e+15	6.077780e+15	2.480187e+14	2.189552e+04	1.486926e+04	6.269297e+03	0	1.664446e-03
7.600000e+08	2.163502e+14	0.000000e+00	7.516777e-01	5.207442e+15	6.041508e+15	2.468446e+14	2.185994e+04	1.485159e+04	6.261848e+03	0	1.654223e-03
7.700000e+08	2.123702e+14	0.000000e+00	7.516777e-01	5.172677e+15	6.005385e+15	2.456786e+14	2.182459e+04	1.483391e+04	6.254395e+03	0	1.644017e-03
7.800000e+08	2.084442e+14	0.000000e+00	7.516777e-01	5.138344e+15	5.969419e+15	2.445207e+14	2.178949e+04	1.481624e+04	6.246945e+03	0	1.633823e-03
7.900000e+08	2.045706e+14	0.000000e+00	7.516777e-01	5.104430e+15	5.933631e+15	2.433709e+14	2.175461e+04	1.479858e+04	6.239500e+03	0	1.623639e-03
8.000000e+08	2.007480e+14	0.000000e+00	7.516777e-01	5.070924e+15	5.898034e+15	2.422290e+14	2.171996e+04	1.478094e+04	6.232062e+03	0	1.613462e-03
8.100000e+08	1.969750e+14	0.000000e+00	7.516777e-01	5.037815e+15	5.862641e+15	2.410951e+14	2.168554e+04	1.476333e+04	6.224636e+03	0	1.603290e-03
8.200000e+08	1.932503e+14	0.000000e+00	7.516777e-01	5.005094e+15	5.827465e+15	2.399690e+14	2.165135e+04	1.474575e+04	6.217224e+03	0	1.593120e-03
8.300000e+08	1.895726e+14	0.000000e+00	7.516777e-01	4.972751e+15	5.792511e+15	2.388507e+14	2.161737e+04	1.472821e+04	6.209827e+03	0	1.582949e-03
8.400000e+08	1.859407e+14	0.000000e+00	7.516777e-01	4.940778e+15	5.757795e+15	2.377401e+14	2.158362e+04	1.471071e+04	6.202449e+03	0	1.572775e-03
8.500000e+08	1.823536e+14	0.000000e+00	7.516777e-01	4.909165e+15	5.723316e+15	2.366372e+14	2.155008e+04	1.469326e+04	6.195090e+03	0	1.562595e-03
8.600000e+08	1.788103e+14	0.000000e+00	7.516777e-01	4.877905e+15	5.689086e+15	2.355419e+14	2.151675e+04	1.467585e+04	6.187753e+03	0	1.552408e-03
8.700000e+08	1.753096e+14	0.000000e+00	7.516777e-01	4.846990e+15	5.655106e+15	2.344541e+14	2.148364e+04	1.465851e+04	6.180439e+03	0	1.542210e-03
8.800000e+08	1.718508e+14	0.000000e+00	7.516777e-01	4.816414e+15	5.621384e+15	2.333738e+14	2.145073e+04	1.464122e+04	6.173149e+03	0	1.532000e-03
8.900000e+08	1.684329e+14	0.000000e+00	7.516777e-01	4.786169e+15	5.587918e+15	2.323009e+14	2.141804e+04	1.462399e+04	6.165884e+03	0	1.521776e-03
9.000000e+08	1.650550e+14	0.000000e+00	7.516777e-01	4.756249e+15	5.554716e+15	2.312354e+14	2.138554e+04	1.460682e+04	6.158646e+03	0	1.511534e-03
9.100000e+08	1.617164e+14	0.000000e+00	7.516777e-01	4.726647e+15	5.521779e+15	2.301772e+14	2.135325e+04	1.458972e+04	6.151435e+03	0	1.501273e-03
9.200000e+08	1.584163e+14	0.000000e+00	7.516777e-01	4.697358e+15	5.489106e+15	2.291262e+14	2.132117e+04	1.457268e+04	6.144252e+03	0	1.490991e-03
9.300000e+08	1.551539e+14	0.000000e+00	7.516777e-01	4.668376e+15	5.456705e+15	2.280825e+14	2.128927e+04	1.455571e+04	6.137098e+03	0	1.480685e-03
9.400000e+08	1.519285e+14	0.000000e+00	7.516777e-01	4.639696e+15	5.424568e+15	2.270458e+14	2.125758e+04	1.453881e+04	6.129973e+03	0	1.470352e-03
9.500000e+08	1.487395e+14	0.000000e+00	7.516777e-01	4.611311e+15	5.392701e+15	2.260163e+14	2.122608e+04	1.452199e+04	6.122878e+03	0	1.459992e-03
9.600000e+08	1.455862e+14	0.000000e+00	7.516777e-01	4.583217e+15	5.361104e+15	2.249937e+14	2.119477e+04	1.450523e+04	6.115814e+03	0	1.449601e-03
9.700000e+08	1.424679e+14	0.000000e+00	7.516777e-01	4.555410e+15	5.329775e+15	2.239782e+14	2.116365e+04	1.448855e+04	6.108780e+03	0	1.439176e-03
9.800000e+08	1.393841e+14	0.000000e+00	7.516777e-01	4.527884e+15	5.298710e+15	2.229695e+14	2.113272e+04	1.447194e+04	6.101777e+03	0	1.428717e-03
9.900000e+08	1.363342e+14	0.000000e+00	7.516777e-01	4.500634e+15	5.267917e+15	2.219677e+14	2.110198e+04	1.445540e+04	6.094806e+03	0	1.418219e-03
1.000000e+09	1.333175e+14	0.000000e+00	7.516777e-01	4.473657e+15	5.237388e+15	2.209727e+14	2.107142e+04	1.443895e+04	6.087866e+03	0	1.407680e-03
1.010000e+09	1.303336e+14	0.000000e+00	7.516777e-01	4.446948e+15	5.207122e+15	2.199844e+14	2.104105e+04	1.442256e+04	6.080958e+03	0	1.397099e-03
1.020000e+09	1.273819e+14	0.000000e+00	7.516777e-01	4.420503e+15	5.177120e+15	2.190028e+14	2.101085e+04	1.440625e+04	6.074082e+03	0	1.386471e-03
1.030000e+09	1.244619e+14	0.000000e+00	7.516777e-01	4.394318e+15	5.147381e+15	2.180279e+14	2.098084e+04	1.439002e+04	6.067238e+03	0	1.375795e-03
1.040000e+09	1.215731e+14	0.000000e+00	7.516777e-01	4.368389e+15	5.117903e+15	2.170596e+14	2.095100e+04	1.437386e+04	6.060426e+03	0	1.365068e-03
1.050000e+09	1.187150e+14	0.000000e+00	7.516777e-01	4.342711e+15	5.088683e+15	2.160978e+14	2.092133e+04	1.435778e+04	6.053646e+03	0	1.354286e-03
1.060000e+09	1.158872e+14	0.000000e+00	7.516777e-01	4.317283e+15	5.059717e+15	2.151425e+14	2.089185e+04	1.434178e+04	6.046898e+03	0	1.343446e-03
1.070000e+09	1.130891e+14	0.000000e+00	7.516777e-01	4.292099e+15	5.031006e+15	2.141936e+14	2.086253e+04	1.432585e+04	6.040182e+03	0	1.332545e-03
1.080000e+09	1.103204e+14	0.000000e+00	7.516777e-01	4.267156e+15	5.002550e+15	2.132511e+14	2.083338e+04	1.431000e+04	6.033498e+03	0	1.321581e-03
1.090000e+09	1.075806e+14	0.000000e+00	7.516777e-01	4.242451e+15	4.974341e+15	2.123150e+14	2.080441e+04	1.429422e+04	6.026847e+03	0	1.310548e-03
1.100000e+09	1.048693e+14	0.000000e+00	7.516777e-01	4.217981e+15	4.946384e+15	2.113851e+14	2.077560e+04	1.427852e+04	6.020227e+03	0	1.299445e-03
1.110000e+09	1.021860e+14	0.000000e+00	7.516777e-01	4.193741e+15	4.918669e+15	2.104615e+14	2.074695e+04	1.426290e+04	6.013639e+03	0	1.288266e-03
1.120000e+09	9.953035e+13	0.000000e+00	7.516777e-01	4.169730e+15	4.891198e+15	2.095440e+14	2.071847e+04	1.424735e+04	6.007083e+03	0	1.277008e-03
1.130000e+09	9.690198e+13	0.000000e+00	7.516777e-01	4.145944e+15	4.863971e+15	2.086327e+14	2.069016e+04	1.423187e+04	6.000559e+03	0	1.265666e-03
1.140000e+09	9.430049e+13	0.000000e+00	7.516777e-01	4.122380e+15	4.836980e+15	2.077275e+14	2.066200e+04	1.421647e+04	5.994066e+03	0	1.254237e-03
1.150000e+09	9.172549e+13	0.000000e+00	7.516777e-01	4.099034e+15	4.810228e+15	2.068283e+14	2.063400e+04	1.420115e+04	5.987605e+03	0	1.242715e-03
1.160000e+09	8.917662e+13	0.000000e+00	7.516777e-01	4.075905e+15	4.783712e+15	2.059352e+14	2.060617e+04	1.418590e+04	5.981175e+03	0	1.231096e-03
1.170000e+09	8.665352e+13	0.000000e+00	7.516777e-01	4.052988e+15	4.757425e+15	2.050480e+14	2.057849e+04	1.417072e+04	5.974776e+03	0	1.219374e-03
1.180000e+09	8.415583e+13	0.000000e+00	7.516777e-01	4.030282e+15	4.731369e+15	2.041666e+14	2.055096e+04	1.415562e+04	5.968408e+03	0	1.207544e-03
1.190000e+09	8.168321e+13	0.000000e+00	7.516777e-01	4.007783e+15	4.705538e+15	2.032912e+14	2.052359e+04	1.414059e+04	5.962071e+03	0	1.195600e-03
1.200000e+09	7.923532e+13	0.000000e+00	7.516777e-01	3.985489e+15	4.679932e+15	2.024215e+14	2.049637e+04	1.412563e+04	5.955765e+03	0	1.183535e-03
1.210000e+09	7.681182e+13	0.000000e+00	7.516777e-01	3.963397e+15	4.654552e+15	2.015577e+14	2.046930e+04	1.411075e+04	5.949489e+03	0	1.171344e-03
1.220000e+09	7.441239e+13	0.000000e+00	7.516777e-01	3.941505e+15	4.629391e+15	2.006995e+14	2.044238e+04	1.409594e+04	5.943244e+03	0	1.159018e-03
1.230000e+09	7.203672e+13	0.000000e+00	7.516777e-01	3.919810e+15	4.604446e+15	1.998470e+14	2.041561e+04	1.408120e+04	5.937029e+03	0	1.146550e-03
1.240000e+09	6.968447e+13	0.000000e+00	7.516777e-01	3.898310e+15	4.579716e+15	1.990002e+14	2.038899e+04	1.406653e+04	5.930843e+03	0	1.133932e-03
1.250000e+09	6.735536e+13	0.000000e+00	7.516777e-01	3.877001e+15	4.555200e+15	1.981589e+14	2.036251e+04	1.405193e+04	5.924688e+03	0	1.121155e-03
1.260000e+09	6.504907e+13	0.000000e+00	7.516777e-01	3.855882e+15	4.530897e+15	1.973232e+14	2.033617e+04	1.403740e+04	5.918562e+03	0	1.108210e-03
1.270000e+09	6.276531e+13	0.000000e+00	7.516777e-01	3.834951e+15	4.506802e+15	1.964930e+14	2.030998e+04	1.402294e+04	5.912465e+03	0	1.095086e-03
1.280000e+09	6.050379e+13	0.000000e+00	7.516777e-01	3.814204e+15	4.482912e+15	1.956683e+14	2.028394e+04	1.400855e+04	5.906398e+03	0	1.081772e-03
1.290000e+09	5.826422e+13	0.000000e+00	7.516777e-01	3.793641e+15	4.459224e+15	1.948490e+14	2.025803e+04	1.399422e+04	5.900359e+03	0	1.068257e-03
1.300000e+09	5.604633e+13	0.000000e+00	7.516777e-01	3.773257e+15	4.435741e+15	1.940350e+14	2.023226e+04	1.397997e+04	5.894350e+03	0	1.054526e-03
1.310000e+09	5.384983e+13	0.000000e+00	7.516777e-01	3.753052e+15	4.412458e+15	1.932264e+14	2.020663e+04	1.396579e+04	5.888369e+03	0	1.040566e-03
1.320000e+09	5.167445e+13	0.000000e+00	7.516777e-01	3.733023e+15	4.389370e+15	1.924231e+14	2.018114e+04	1.395167e+04	5.882416e+03	0	1.026361e-03
1.330000e+09	4.951993e+13	0.000000e+00	7.516777e-01	3.713168e+15	4.366479e+15	1.916250e+14	2.015578e+04	1.393762e+04	5.876492e+03	0	1.011894e-03
1.340000e+09	4.738601e+13	0.000000e+00	7.516777e-01	3.693485e+15	4.343782e+15	1.908322e+14	2.013055e+04	1.392363e+04	5.870596e+03	0	9.971452e-04
1.350000e+09	4.527242e+13	0.000000e+00	7.516777e-01	3.673972e+15	4.321273e+15	1.900445e+14	2.010547e+04	1.390971e+04	5.864728e+03	0	9.820937e-04
1.360000e+09	4.317892e+13	0.000000e+00	7.516777e-01	3.654626e+15	4.298954e+15	1.892620e+14	2.008051e+04	1.389586e+04	5.858887e+03	0	9.667161e-04
