#t		Qconv[W]	Ri[Rp]		R*[Rp]		Qc[W]		Qm[W]		Qr[W]		Tcmb[K]		Tl[K]		Tup[K]		RiFlag		Bs[T]
0.000000e+00	7.536024e+13	0.000000e+00	5.524475e-01	1.332977e+15	2.156948e+15	1.790436e+14	1.185878e+04	4.147634e+03	2.438802e+03	0	1.454069e-03
1.000000e+07	7.059160e+13	0.000000e+00	5.524475e-01	1.250440e+15	2.022425e+15	1.780516e+14	1.169827e+04	4.114281e+03	2.419191e+03	0	1.422729e-03
2.000000e+07	6.629971e+13	0.000000e+00	5.524475e-01	1.176135e+15	1.903336e+15	1.770669e+14	1.154752e+04	4.083449e+03	2.401062e+03	0	1.393290e-03
3.000000e+07	6.242047e+13	0.000000e+00	5.524475e-01	1.108957e+15	1.797149e+15	1.760897e+14	1.140556e+04	4.054794e+03	2.384213e+03	0	1.365568e-03
4.000000e+07	5.890047e+13	0.000000e+00	5.524475e-01	1.047985e+15	1.701868e+15	1.751197e+14	1.127157e+04	4.028037e+03	2.368480e+03	0	1.339401e-03
5.000000e+07	5.569489e+13	0.000000e+00	5.524475e-01	9.924436e+14	1.615897e+15	1.741570e+14	1.114482e+04	4.002951e+03	2.353729e+03	0	1.314648e-03
6.000000e+07	5.276586e+13	0.000000e+00	5.524475e-01	9.416809e+14	1.537938e+15	1.732015e+14	1.102467e+04	3.979347e+03	2.339850e+03	0	1.291186e-03
7.000000e+07	5.008117e+13	0.000000e+00	5.524475e-01	8.951407e+14	1.466930e+15	1.722530e+14	1.091058e+04	3.957069e+03	2.326751e+03	0	1.268905e-03
8.000000e+07	4.761328e+13	0.000000e+00	5.524475e-01	8.523475e+14	1.401992e+15	1.713116e+14	1.080203e+04	3.935983e+03	2.314352e+03	0	1.247710e-03
9.000000e+07	4.533852e+13	0.000000e+00	5.524475e-01	8.128928e+14	1.342385e+15	1.703773e+14	1.069860e+04	3.915975e+03	2.302587e+03	0	1.227515e-03
1.000000e+08	4.323642e+13	0.000000e+00	5.524475e-01	7.764233e+14	1.287489e+15	1.694498e+14	1.059989e+04	3.896946e+03	2.291399e+03	0	1.208243e-03
1.100000e+08	4.128924e+13	0.000000e+00	5.524475e-01	7.426324e+14	1.236774e+15	1.685293e+14	1.050554e+04	3.878813e+03	2.280736e+03	0	1.189826e-03
1.200000e+08	3.948149e+13	0.000000e+00	5.524475e-01	7.112529e+14	1.189790e+15	1.676155e+14	1.041524e+04	3.861500e+03	2.270556e+03	0	1.172201e-03
1.300000e+08	3.779962e+13	0.000000e+00	5.524475e-01	6.820507e+14	1.146148e+15	1.667086e+14	1.032871e+04	3.844942e+03	2.260820e+03	0	1.155314e-03
1.400000e+08	3.623172e+13	0.000000e+00	5.524475e-01	6.548203e+14	1.105509e+15	1.658083e+14	1.024568e+04	3.829082e+03	2.251495e+03	0	1.139115e-03
1.500000e+08	3.476731e+13	0.000000e+00	5.524475e-01	6.293802e+14	1.067581e+15	1.649147e+14	1.016593e+04	3.813868e+03	2.242549e+03	0	1.123556e-03
1.600000e+08	3.339707e+13	0.000000e+00	5.524475e-01	6.055699e+14	1.032107e+15	1.640277e+14	1.008923e+04	3.799254e+03	2.233956e+03	0	1.108597e-03
1.700000e+08	3.211278e+13	0.000000e+00	5.524475e-01	5.832470e+14	9.988622e+14	1.631472e+14	1.001541e+04	3.785199e+03	2.225691e+03	0	1.094201e-03
1.800000e+08	3.090708e+13	0.000000e+00	5.524475e-01	5.622846e+14	9.676475e+14	1.622733e+14	9.944269e+03	3.771665e+03	2.217733e+03	0	1.080331e-03
1.900000e+08	2.977341e+13	0.000000e+00	5.524475e-01	5.425693e+14	9.382870e+14	1.614057e+14	9.875658e+03	3.758620e+03	2.210063e+03	0	1.066958e-03
2.000000e+08	2.870592e+13	0.000000e+00	5.524475e-01	5.239997e+14	9.106241e+14	1.605446e+14	9.809426e+03	3.746033e+03	2.202662e+03	0	1.054051e-03
2.100000e+08	2.769931e+13	0.000000e+00	5.524475e-01	5.064847e+14	8.845192e+14	1.596898e+14	9.745435e+03	3.733875e+03	2.195513e+03	0	1.041583e-03
2.200000e+08	2.674885e+13	0.000000e+00	5.524475e-01	4.899421e+14	8.598476e+14	1.588412e+14	9.683561e+03	3.722123e+03	2.188603e+03	0	1.029531e-03
2.300000e+08	2.585025e+13	0.000000e+00	5.524475e-01	4.742979e+14	8.364972e+14	1.579989e+14	9.623686e+03	3.710752e+03	2.181916e+03	0	1.017871e-03
2.400000e+08	2.499965e+13	0.000000e+00	5.524475e-01	4.594854e+14	8.143672e+14	1.571628e+14	9.565703e+03	3.699741e+03	2.175442e+03	0	1.006582e-03
2.500000e+08	2.419353e+13	0.000000e+00	5.524475e-01	4.454436e+14	7.933666e+14	1.563328e+14	9.509512e+03	3.689071e+03	2.169168e+03	0	9.956442e-04
2.600000e+08	2.342871e+13	0.000000e+00	5.524475e-01	4.321176e+14	7.734131e+14	1.555089e+14	9.455022e+03	3.678723e+03	2.163084e+03	0	9.850400e-04
2.700000e+08	2.270229e+13	0.000000e+00	5.524475e-01	4.194573e+14	7.544323e+14	1.546909e+14	9.402146e+03	3.668681e+03	2.157179e+03	0	9.747524e-04
2.800000e+08	2.201163e+13	0.000000e+00	5.524475e-01	4.074168e+14	7.363562e+14	1.538790e+14	9.350804e+03	3.658930e+03	2.151445e+03	0	9.647655e-04
2.900000e+08	2.135430e+13	0.000000e+00	5.524475e-01	3.959544e+14	7.191232e+14	1.530730e+14	9.300923e+03	3.649454e+03	2.145874e+03	0	9.550648e-04
3.000000e+08	2.072811e+13	0.000000e+00	5.524475e-01	3.850319e+14	7.026768e+14	1.522729e+14	9.252432e+03	3.640241e+03	2.140456e+03	0	9.456366e-04
3.100000e+08	2.013102e+13	0.000000e+00	5.524475e-01	3.746143e+14	6.869657e+14	1.514786e+14	9.205266e+03	3.631278e+03	2.135186e+03	0	9.364682e-04
3.200000e+08	1.956119e+13	0.000000e+00	5.524475e-01	3.646693e+14	6.719426e+14	1.506900e+14	9.159365e+03	3.622554e+03	2.130056e+03	0	9.275474e-04
3.300000e+08	1.901689e+13	0.000000e+00	5.524475e-01	3.551675e+14	6.575642e+14	1.499072e+14	9.114673e+03	3.614057e+03	2.125060e+03	0	9.188632e-04
3.400000e+08	1.849655e+13	0.000000e+00	5.524475e-01	3.460815e+14	6.437908e+14	1.491301e+14	9.071134e+03	3.605777e+03	2.120192e+03	0	9.104050e-04
3.500000e+08	1.799873e+13	0.000000e+00	5.524475e-01	3.373862e+14	6.305855e+14	1.483587e+14	9.028701e+03	3.597705e+03	2.115445e+03	0	9.021630e-04
3.600000e+08	1.752208e+13	0.000000e+00	5.524475e-01	3.290584e+14	6.179147e+14	1.475928e+14	8.987324e+03	3.589833e+03	2.110816e+03	0	8.941278e-04
3.700000e+08	1.706536e+13	0.000000e+00	5.524475e-01	3.210767e+14	6.057471e+14	1.468325e+14	8.946961e+03	3.582150e+03	2.106299e+03	0	8.862908e-04
3.800000e+08	1.662743e+13	0.000000e+00	5.524475e-01	3.134211e+14	5.940538e+14	1.460776e+14	8.907569e+03	3.574650e+03	2.101889e+03	0	8.786436e-04
3.900000e+08	1.620721e+13	0.000000e+00	5.524475e-01	3.060732e+14	5.828081e+14	1.453283e+14	8.869109e+03	3.567325e+03	2.097582e+03	0	8.711785e-04
4.000000e+08	1.580373e+13	0.000000e+00	5.524475e-01	2.990160e+14	5.719851e+14	1.445843e+14	8.831543e+03	3.560169e+03	2.093374e+03	0	8.638882e-04
4.100000e+08	1.541605e+13	0.000000e+00	5.524475e-01	2.922333e+14	5.615618e+14	1.438457e+14	8.794837e+03	3.553173e+03	2.089260e+03	0	8.567658e-04
4.200000e+08	1.504333e+13	0.000000e+00	5.524475e-01	2.857106e+14	5.515168e+14	1.431124e+14	8.758957e+03	3.546333e+03	2.085238e+03	0	8.498046e-04
4.300000e+08	1.468478e+13	0.000000e+00	5.524475e-01	2.794339e+14	5.418301e+14	1.423844e+14	8.723873e+03	3.539642e+03	2.081304e+03	0	8.429986e-04
4.400000e+08	1.433964e+13	0.000000e+00	5.524475e-01	2.733904e+14	5.324831e+14	1.416617e+14	8.689553e+03	3.533094e+03	2.077454e+03	0	8.363417e-04
4.500000e+08	1.400722e+13	0.000000e+00	5.524475e-01	2.675681e+14	5.234585e+14	1.409441e+14	8.655970e+03	3.526685e+03	2.073685e+03	0	8.298285e-04
4.600000e+08	1.368688e+13	0.000000e+00	5.524475e-01	2.619557e+14	5.147400e+14	1.402317e+14	8.623098e+03	3.520409e+03	2.069995e+03	0	8.234537e-04
4.700000e+08	1.337801e+13	0.000000e+00	5.524475e-01	2.565428e+14	5.063124e+14	1.395244e+14	8.590910e+03	3.514261e+03	2.066380e+03	0	8.172122e-04
4.800000e+08	1.308003e+13	0.000000e+00	5.524475e-01	2.513194e+14	4.981616e+14	1.388222e+14	8.559383e+03	3.508237e+03	2.062838e+03	0	8.110993e-04
4.900000e+08	1.279243e+13	0.000000e+00	5.524475e-01	2.462764e+14	4.902743e+14	1.381250e+14	8.528493e+03	3.502332e+03	2.059366e+03	0	8.051104e-04
5.000000e+08	1.251470e+13	0.000000e+00	5.524475e-01	2.414051e+14	4.826379e+14	1.374328e+14	8.498219e+03	3.496543e+03	2.055962e+03	0	7.992412e-04
5.100000e+08	1.224637e+13	0.000000e+00	5.524475e-01	2.366973e+14	4.752408e+14	1.367455e+14	8.468540e+03	3.490865e+03	2.052624e+03	0	7.934876e-04
5.200000e+08	1.198700e+13	0.000000e+00	5.524475e-01	2.321455e+14	4.680720e+14	1.360631e+14	8.439436e+03	3.485295e+03	2.049348e+03	0	7.878458e-04
5.300000e+08	1.173617e+13	0.000000e+00	5.524475e-01	2.277425e+14	4.611210e+14	1.353856e+14	8.410888e+03	3.479829e+03	2.046134e+03	0	7.823118e-04
5.400000e+08	1.149351e+13	0.000000e+00	5.524475e-01	2.234814e+14	4.543782e+14	1.347129e+14	8.382878e+03	3.474464e+03	2.042980e+03	0	7.768823e-04
5.500000e+08	1.125863e+13	0.000000e+00	5.524475e-01	2.193559e+14	4.478343e+14	1.340451e+14	8.355389e+03	3.469196e+03	2.039882e+03	0	7.715537e-04
5.600000e+08	1.103119e+13	0.000000e+00	5.524475e-01	2.153600e+14	4.414807e+14	1.333819e+14	8.328404e+03	3.464023e+03	2.036840e+03	0	7.663229e-04
5.700000e+08	1.081087e+13	0.000000e+00	5.524475e-01	2.114880e+14	4.353093e+14	1.327235e+14	8.301908e+03	3.458940e+03	2.033852e+03	0	7.611867e-04
5.800000e+08	1.059735e+13	0.000000e+00	5.524475e-01	2.077346e+14	4.293122e+14	1.320697e+14	8.275885e+03	3.453947e+03	2.030916e+03	0	7.561422e-04
5.900000e+08	1.039035e+13	0.000000e+00	5.524475e-01	2.040947e+14	4.234822e+14	1.314206e+14	8.250321e+03	3.449039e+03	2.028030e+03	0	7.511865e-04
6.000000e+08	1.018959e+13	0.000000e+00	5.524475e-01	2.005634e+14	4.178124e+14	1.307761e+14	8.225203e+03	3.444214e+03	2.025193e+03	0	7.463169e-04
6.100000e+08	9.994804e+12	0.000000e+00	5.524475e-01	1.971364e+14	4.122963e+14	1.301361e+14	8.200517e+03	3.439470e+03	2.022403e+03	0	7.415307e-04
6.200000e+08	9.805751e+12	0.000000e+00	5.524475e-01	1.938093e+14	4.069277e+14	1.295006e+14	8.176250e+03	3.434805e+03	2.019660e+03	0	7.368256e-04
6.300000e+08	9.622196e+12	0.000000e+00	5.524475e-01	1.905780e+14	4.017007e+14	1.288697e+14	8.152390e+03	3.430215e+03	2.016961e+03	0	7.321990e-04
6.400000e+08	9.443915e+12	0.000000e+00	5.524475e-01	1.874386e+14	3.966097e+14	1.282432e+14	8.128926e+03	3.425699e+03	2.014306e+03	0	7.276487e-04
6.500000e+08	9.270699e+12	0.000000e+00	5.524475e-01	1.843876e+14	3.916495e+14	1.276211e+14	8.105846e+03	3.421255e+03	2.011693e+03	0	7.231725e-04
6.600000e+08	9.102348e+12	0.000000e+00	5.524475e-01	1.814214e+14	3.868151e+14	1.270033e+14	8.083140e+03	3.416880e+03	2.009121e+03	0	7.187682e-04
6.700000e+08	8.938671e+12	0.000000e+00	5.524475e-01	1.785368e+14	3.821017e+14	1.263900e+14	8.060798e+03	3.412574e+03	2.006588e+03	0	7.144339e-04
6.800000e+08	8.779489e+12	0.000000e+00	5.524475e-01	1.757305e+14	3.775048e+14	1.257809e+14	8.038808e+03	3.408333e+03	2.004094e+03	0	7.101675e-04
6.900000e+08	8.624630e+12	0.000000e+00	5.524475e-01	1.729997e+14	3.730201e+14	1.251761e+14	8.017162e+03	3.404156e+03	2.001638e+03	0	7.059672e-04
7.000000e+08	8.473931e+12	0.000000e+00	5.524475e-01	1.703415e+14	3.686434e+14	1.245755e+14	7.995851e+03	3.400041e+03	1.999219e+03	0	7.018312e-04
7.100000e+08	8.327235e+12	0.000000e+00	5.524475e-01	1.677532e+14	3.643709e+14	1.239792e+14	7.974866e+03	3.395987e+03	1.996835e+03	0	6.977578e-04
7.200000e+08	8.184396e+12	0.000000e+00	5.524475e-01	1.652322e+14	3.601989e+14	1.233870e+14	7.954198e+03	3.391992e+03	1.994486e+03	0	6.937451e-04
7.300000e+08	8.045273e+12	0.000000e+00	5.524475e-01	1.627761e+14	3.561238e+14	1.227989e+14	7.933839e+03	3.388054e+03	1.992171e+03	0	6.897917e-04
7.400000e+08	7.909730e+12	0.000000e+00	5.524475e-01	1.603825e+14	3.521422e+14	1.222150e+14	7.913781e+03	3.384172e+03	1.989888e+03	0	6.858960e-04
7.500000e+08	7.777640e+12	0.000000e+00	5.524475e-01	1.580492e+14	3.482509e+14	1.216351e+14	7.894017e+03	3.380345e+03	1.987638e+03	0	6.820565e-04
7.600000e+08	7.648880e+12	0.000000e+00	5.524475e-01	1.557741e+14	3.444468e+14	1.210593e+14	7.874538e+03	3.376571e+03	1.985418e+03	0	6.782717e-04
7.700000e+08	7.523334e+12	0.000000e+00	5.524475e-01	1.535552e+14	3.407270e+14	1.204875e+14	7.855339e+03	3.372848e+03	1.983230e+03	0	6.745402e-04
7.800000e+08	7.400889e+12	0.000000e+00	5.524475e-01	1.513904e+14	3.370886e+14	1.199196e+14	7.836412e+03	3.369176e+03	1.981071e+03	0	6.708607e-04
7.900000e+08	7.281439e+12	0.000000e+00	5.524475e-01	1.492780e+14	3.335290e+14	1.193557e+14	7.817750e+03	3.365554e+03	1.978940e+03	0	6.672319e-04
8.000000e+08	7.164883e+12	0.000000e+00	5.524475e-01	1.472161e+14	3.300456e+14	1.187957e+14	7.799348e+03	3.361979e+03	1.976839e+03	0	6.636525e-04
8.100000e+08	7.051122e+12	0.000000e+00	5.524475e-01	1.452032e+14	3.266359e+14	1.182396e+14	7.781199e+03	3.358451e+03	1.974764e+03	0	6.601214e-04
8.200000e+08	6.940063e+12	0.000000e+00	5.524475e-01	1.432374e+14	3.232975e+14	1.176873e+14	7.763296e+03	3.354969e+03	1.972717e+03	0	6.566373e-04
8.300000e+08	6.831616e+12	0.000000e+00	5.524475e-01	1.413174e+14	3.200283e+14	1.171389e+14	7.745635e+03	3.351531e+03	1.970695e+03	0	6.531990e-04
8.400000e+08	6.725697e+12	0.000000e+00	5.524475e-01	1.394415e+14	3.168260e+14	1.165942e+14	7.728210e+03	3.348137e+03	1.968700e+03	0	6.498056e-04
8.500000e+08	6.622222e+12	0.000000e+00	5.524475e-01	1.376085e+14	3.136885e+14	1.160533e+14	7.711014e+03	3.344786e+03	1.966729e+03	0	6.464560e-04
8.600000e+08	6.521114e+12	0.000000e+00	5.524475e-01	1.358168e+14	3.106139e+14	1.155161e+14	7.694044e+03	3.341476e+03	1.964783e+03	0	6.431491e-04
8.700000e+08	6.422297e+12	0.000000e+00	5.524475e-01	1.340653e+14	3.076003e+14	1.149827e+14	7.677294e+03	3.338207e+03	1.962861e+03	0	6.398839e-04
8.800000e+08	6.325698e+12	0.000000e+00	5.524475e-01	1.323525e+14	3.046457e+14	1.144529e+14	7.660759e+03	3.334978e+03	1.960962e+03	0	6.366595e-04
8.900000e+08	6.231249e+12	0.000000e+00	5.524475e-01	1.306774e+14	3.017486e+14	1.139267e+14	7.644434e+03	3.331787e+03	1.959086e+03	0	6.334749e-04
9.000000e+08	6.138882e+12	0.000000e+00	5.524475e-01	1.290387e+14	2.989070e+14	1.134041e+14	7.628315e+03	3.328634e+03	1.957232e+03	0	6.303293e-04
9.100000e+08	6.048533e+12	0.000000e+00	5.524475e-01	1.274354e+14	2.961195e+14	1.128852e+14	7.612397e+03	3.325518e+03	1.955400e+03	0	6.272217e-04
9.200000e+08	5.960141e+12	0.000000e+00	5.524475e-01	1.258664e+14	2.933845e+14	1.123697e+14	7.596676e+03	3.322439e+03	1.953589e+03	0	6.241513e-04
9.300000e+08	5.873648e+12	0.000000e+00	5.524475e-01	1.243306e+14	2.907004e+14	1.118579e+14	7.581148e+03	3.319395e+03	1.951799e+03	0	6.211174e-04
9.400000e+08	5.788995e+12	0.000000e+00	5.524475e-01	1.228270e+14	2.880658e+14	1.113495e+14	7.565809e+03	3.316386e+03	1.950030e+03	0	6.181190e-04
9.500000e+08	5.706128e+12	0.000000e+00	5.524475e-01	1.213548e+14	2.854794e+14	1.108445e+14	7.550654e+03	3.313410e+03	1.948280e+03	0	6.151555e-04
9.600000e+08	5.624995e+12	0.000000e+00	5.524475e-01	1.199130e+14	2.829397e+14	1.103431e+14	7.535680e+03	3.310468e+03	1.946550e+03	0	6.122260e-04
9.700000e+08	5.545546e+12	0.000000e+00	5.524475e-01	1.185006e+14	2.804455e+14	1.098450e+14	7.520883e+03	3.307559e+03	1.944840e+03	0	6.093299e-04
9.800000e+08	5.467731e+12	0.000000e+00	5.524475e-01	1.171169e+14	2.779955e+14	1.093503e+14	7.506260e+03	3.304681e+03	1.943148e+03	0	6.064664e-04
9.900000e+08	5.391503e+12	0.000000e+00	5.524475e-01	1.157610e+14	2.755886e+14	1.088590e+14	7.491807e+03	3.301835e+03	1.941474e+03	0	6.036349e-04
1.000000e+09	5.316817e+12	0.000000e+00	5.524475e-01	1.144322e+14	2.732235e+14	1.083710e+14	7.477521e+03	3.299019e+03	1.939818e+03	0	6.008347e-04
1.010000e+09	5.243631e+12	0.000000e+00	5.524475e-01	1.131297e+14	2.708992e+14	1.078863e+14	7.463398e+03	3.296233e+03	1.938180e+03	0	5.980651e-04
1.020000e+09	5.171901e+12	0.000000e+00	5.524475e-01	1.118527e+14	2.686146e+14	1.074050e+14	7.449435e+03	3.293476e+03	1.936559e+03	0	5.953255e-04
1.030000e+09	5.101588e+12	0.000000e+00	5.524475e-01	1.106006e+14	2.663687e+14	1.069268e+14	7.435629e+03	3.290749e+03	1.934955e+03	0	5.926153e-04
1.040000e+09	5.032651e+12	0.000000e+00	5.524475e-01	1.093726e+14	2.641604e+14	1.064519e+14	7.421978e+03	3.288049e+03	1.933368e+03	0	5.899339e-04
1.050000e+09	4.965055e+12	0.000000e+00	5.524475e-01	1.081682e+14	2.619888e+14	1.059802e+14	7.408477e+03	3.285377e+03	1.931797e+03	0	5.872807e-04
1.060000e+09	4.898761e+12	0.000000e+00	5.524475e-01	1.069866e+14	2.598529e+14	1.055117e+14	7.395124e+03	3.282732e+03	1.930242e+03	0	5.846552e-04
1.070000e+09	4.833736e+12	0.000000e+00	5.524475e-01	1.058273e+14	2.577519e+14	1.050464e+14	7.381916e+03	3.280114e+03	1.928702e+03	0	5.820568e-04
1.080000e+09	4.769946e+12	0.000000e+00	5.524475e-01	1.046897e+14	2.556848e+14	1.045842e+14	7.368852e+03	3.277521e+03	1.927178e+03	0	5.794850e-04
1.090000e+09	4.707356e+12	0.000000e+00	5.524475e-01	1.035732e+14	2.536509e+14	1.041250e+14	7.355927e+03	3.274955e+03	1.925668e+03	0	5.769392e-04
1.100000e+09	4.645937e+12	0.000000e+00	5.524475e-01	1.024772e+14	2.516492e+14	1.036690e+14	7.343139e+03	3.272413e+03	1.924174e+03	0	5.744191e-04
1.110000e+09	4.585658e+12	0.000000e+00	5.524475e-01	1.014012e+14	2.496791e+14	1.032160e+14	7.330486e+03	3.269896e+03	1.922694e+03	0	5.719239e-04
1.120000e+09	4.526488e+12	0.000000e+00	5.524475e-01	1.003448e+14	2.477398e+14	1.027661e+14	7.317966e+03	3.267403e+03	1.921228e+03	0	5.694534e-04
1.130000e+09	4.468400e+12	0.000000e+00	5.524475e-01	9.930733e+13	2.458305e+14	1.023192e+14	7.305575e+03	3.264934e+03	1.919776e+03	0	5.670070e-04
1.140000e+09	4.411365e+12	0.000000e+00	5.524475e-01	9.828841e+13	2.439505e+14	1.018752e+14	7.293313e+03	3.262488e+03	1.918338e+03	0	5.645842e-04
1.150000e+09	4.355358e+12	0.000000e+00	5.524475e-01	9.728754e+13	2.420991e+14	1.014342e+14	7.281175e+03	3.260065e+03	1.916913e+03	0	5.621847e-04
1.160000e+09	4.300352e+12	0.000000e+00	5.524475e-01	9.630428e+13	2.402756e+14	1.009962e+14	7.269161e+03	3.257664e+03	1.915502e+03	0	5.598079e-04
1.170000e+09	4.246322e+12	0.000000e+00	5.524475e-01	9.533819e+13	2.384795e+14	1.005611e+14	7.257268e+03	3.255285e+03	1.914103e+03	0	5.574536e-04
1.180000e+09	4.193244e+12	0.000000e+00	5.524475e-01	9.438884e+13	2.367100e+14	1.001289e+14	7.245494e+03	3.252928e+03	1.912717e+03	0	5.551211e-04
1.190000e+09	4.141095e+12	0.000000e+00	5.524475e-01	9.345582e+13	2.349665e+14	9.969953e+13	7.233836e+03	3.250593e+03	1.911344e+03	0	5.528103e-04
1.200000e+09	4.089852e+12	0.000000e+00	5.524475e-01	9.253875e+13	2.332486e+14	9.927303e+13	7.222293e+03	3.248278e+03	1.909982e+03	0	5.505206e-04
1.210000e+09	4.039493e+12	0.000000e+00	5.524475e-01	9.163723e+13	2.315555e+14	9.884936e+13	7.210864e+03	3.245983e+03	1.908633e+03	0	5.482517e-04
1.220000e+09	3.989996e+12	0.000000e+00	5.524475e-01	9.075090e+13	2.298868e+14	9.842850e+13	7.199545e+03	3.243709e+03	1.907296e+03	0	5.460032e-04
1.230000e+09	3.941342e+12	0.000000e+00	5.524475e-01	8.987938e+13	2.282419e+14	9.801042e+13	7.188335e+03	3.241455e+03	1.905971e+03	0	5.437748e-04
1.240000e+09	3.893509e+12	0.000000e+00	5.524475e-01	8.902234e+13	2.266202e+14	9.759510e+13	7.177233e+03	3.239220e+03	1.904656e+03	0	5.415661e-04
1.250000e+09	3.846479e+12	0.000000e+00	5.524475e-01	8.817943e+13	2.250213e+14	9.718253e+13	7.166236e+03	3.237004e+03	1.903354e+03	0	5.393767e-04
1.260000e+09	3.800233e+12	0.000000e+00	5.524475e-01	8.735033e+13	2.234447e+14	9.677268e+13	7.155343e+03	3.234807e+03	1.902062e+03	0	5.372063e-04
1.270000e+09	3.754752e+12	0.000000e+00	5.524475e-01	8.653471e+13	2.218899e+14	9.636552e+13	7.144552e+03	3.232629e+03	1.900781e+03	0	5.350547e-04
1.280000e+09	3.710020e+12	0.000000e+00	5.524475e-01	8.573226e+13	2.203565e+14	9.596105e+13	7.133861e+03	3.230469e+03	1.899511e+03	0	5.329214e-04
1.290000e+09	3.666018e+12	0.000000e+00	5.524475e-01	8.494269e+13	2.188439e+14	9.555923e+13	7.123270e+03	3.228326e+03	1.898251e+03	0	5.308061e-04
1.300000e+09	3.622729e+12	0.000000e+00	5.524475e-01	8.416570e+13	2.173517e+14	9.516005e+13	7.112775e+03	3.226202e+03	1.897002e+03	0	5.287086e-04
1.310000e+09	3.580139e+12	0.000000e+00	5.524475e-01	8.340101e+13	2.158796e+14	9.476349e+13	7.102376e+03	3.224095e+03	1.895763e+03	0	5.266285e-04
1.320000e+09	3.538231e+12	0.000000e+00	5.524475e-01	8.264835e+13	2.144271e+14	9.436953e+13	7.092072e+03	3.222004e+03	1.894534e+03	0	5.245656e-04
1.330000e+09	3.496990e+12	0.000000e+00	5.524475e-01	8.190744e+13	2.129938e+14	9.397814e+13	7.081860e+03	3.219931e+03	1.893315e+03	0	5.225195e-04
1.340000e+09	3.456400e+12	0.000000e+00	5.524475e-01	8.117803e+13	2.115793e+14	9.358931e+13	7.071739e+03	3.217874e+03	1.892105e+03	0	5.204900e-04
1.350000e+09	3.416448e+12	0.000000e+00	5.524475e-01	8.045987e+13	2.101833e+14	9.320301e+13	7.061708e+03	3.215833e+03	1.890905e+03	0	5.184768e-04
1.360000e+09	3.377120e+12	0.000000e+00	5.524475e-01	7.975270e+13	2.088053e+14	9.281923e+13	7.051766e+03	3.213809e+03	1.889715e+03	0	5.164797e-04
