#t		Qconv[W]	Ri[Rp]		R*[Rp]		Qc[W]		Qm[W]		Qr[W]		Tcmb[K]		Tl[K]		Tup[K]		RiFlag		Bs[T]
0.000000e+00	2.801621e+13	0.000000e+00	5.454545e-01	4.690353e+14	1.757774e+15	2.348759e+14	1.065536e+04	4.086268e+03	2.562315e+03	0	1.044839e-03
1.000000e+07	2.709928e+13	0.000000e+00	5.454545e-01	4.552721e+14	1.643354e+15	2.335745e+14	1.061132e+04	4.044551e+03	2.536156e+03	0	1.033314e-03
2.000000e+07	2.624115e+13	0.000000e+00	5.454545e-01	4.423835e+14	1.543757e+15	2.322828e+14	1.056857e+04	4.006677e+03	2.512407e+03	0	1.022289e-03
3.000000e+07	2.543568e+13	0.000000e+00	5.454545e-01	4.302784e+14	1.456362e+15	2.310008e+14	1.052701e+04	3.972120e+03	2.490738e+03	0	1.011721e-03
4.000000e+07	2.467763e+13	0.000000e+00	5.454545e-01	4.188790e+14	1.379119e+15	2.297284e+14	1.048659e+04	3.940446e+03	2.470876e+03	0	1.001569e-03
5.000000e+07	2.396245e+13	0.000000e+00	5.454545e-01	4.081180e+14	1.310399e+15	2.284655e+14	1.044723e+04	3.911294e+03	2.452596e+03	0	9.917983e-04
6.000000e+07	2.328621e+13	0.000000e+00	5.454545e-01	3.979370e+14	1.248898e+15	2.272119e+14	1.040887e+04	3.884362e+03	2.435708e+03	0	9.823794e-04
7.000000e+07	2.264548e+13	0.000000e+00	5.454545e-01	3.882850e+14	1.193560e+15	2.259677e+14	1.037146e+04	3.859395e+03	2.420053e+03	0	9.732853e-04
8.000000e+07	2.203725e+13	0.000000e+00	5.454545e-01	3.791173e+14	1.143518e+15	2.247328e+14	1.033495e+04	3.836177e+03	2.405494e+03	0	9.644923e-04
9.000000e+07	2.145885e+13	0.000000e+00	5.454545e-01	3.703945e+14	1.098059e+15	2.235071e+14	1.029930e+04	3.814521e+03	2.391914e+03	0	9.559792e-04
1.000000e+08	2.090793e+13	0.000000e+00	5.454545e-01	3.620814e+14	1.056589e+15	2.222904e+14	1.026447e+04	3.794267e+03	2.379214e+03	0	9.477270e-04
1.100000e+08	2.038239e+13	0.000000e+00	5.454545e-01	3.541471e+14	1.018611e+15	2.210828e+14	1.023041e+04	3.775276e+03	2.367306e+03	0	9.397189e-04
1.200000e+08	1.988036e+13	0.000000e+00	5.454545e-01	3.465636e+14	9.837044e+14	2.198841e+14	1.019710e+04	3.757428e+03	2.356114e+03	0	9.319394e-04
1.300000e+08	1.940016e+13	0.000000e+00	5.454545e-01	3.393060e+14	9.515132e+14	2.186943e+14	1.016449e+04	3.740616e+03	2.345572e+03	0	9.243747e-04
1.400000e+08	1.894028e+13	0.000000e+00	5.454545e-01	3.323519e+14	9.217327e+14	2.175133e+14	1.013256e+04	3.724747e+03	2.335621e+03	0	9.170121e-04
1.500000e+08	1.849934e+13	0.000000e+00	5.454545e-01	3.256808e+14	8.941016e+14	2.163411e+14	1.010128e+04	3.709739e+03	2.326210e+03	0	9.098401e-04
1.600000e+08	1.807612e+13	0.000000e+00	5.454545e-01	3.192744e+14	8.683942e+14	2.151775e+14	1.007063e+04	3.695518e+03	2.317293e+03	0	9.028482e-04
1.700000e+08	1.766949e+13	0.000000e+00	5.454545e-01	3.131160e+14	8.444149e+14	2.140224e+14	1.004057e+04	3.682021e+03	2.308829e+03	0	8.960268e-04
1.800000e+08	1.727843e+13	0.000000e+00	5.454545e-01	3.071903e+14	8.219930e+14	2.128759e+14	1.001109e+04	3.669188e+03	2.300783e+03	0	8.893670e-04
1.900000e+08	1.690198e+13	0.000000e+00	5.454545e-01	3.014834e+14	8.009796e+14	2.117379e+14	9.982171e+03	3.656968e+03	2.293120e+03	0	8.828607e-04
2.000000e+08	1.653931e+13	0.000000e+00	5.454545e-01	2.959824e+14	7.812435e+14	2.106082e+14	9.953781e+03	3.645315e+03	2.285813e+03	0	8.765003e-04
2.100000e+08	1.618962e+13	0.000000e+00	5.454545e-01	2.906758e+14	7.626693e+14	2.094868e+14	9.925907e+03	3.634185e+03	2.278834e+03	0	8.702789e-04
2.200000e+08	1.585218e+13	0.000000e+00	5.454545e-01	2.855526e+14	7.451548e+14	2.083737e+14	9.898530e+03	3.623542e+03	2.272160e+03	0	8.641900e-04
2.300000e+08	1.552632e+13	0.000000e+00	5.454545e-01	2.806029e+14	7.286092e+14	2.072687e+14	9.871633e+03	3.613351e+03	2.265770e+03	0	8.582277e-04
2.400000e+08	1.521144e+13	0.000000e+00	5.454545e-01	2.758175e+14	7.129520e+14	2.061718e+14	9.845200e+03	3.603581e+03	2.259643e+03	0	8.523862e-04
2.500000e+08	1.490695e+13	0.000000e+00	5.454545e-01	2.711879e+14	6.981107e+14	2.050830e+14	9.819215e+03	3.594202e+03	2.253762e+03	0	8.466604e-04
2.600000e+08	1.461233e+13	0.000000e+00	5.454545e-01	2.667061e+14	6.840209e+14	2.040021e+14	9.793664e+03	3.585190e+03	2.248111e+03	0	8.410453e-04
2.700000e+08	1.432708e+13	0.000000e+00	5.454545e-01	2.623649e+14	6.706245e+14	2.029292e+14	9.768533e+03	3.576520e+03	2.242675e+03	0	8.355366e-04
2.800000e+08	1.405074e+13	0.000000e+00	5.454545e-01	2.581574e+14	6.578691e+14	2.018641e+14	9.743809e+03	3.568171e+03	2.237440e+03	0	8.301298e-04
2.900000e+08	1.378289e+13	0.000000e+00	5.454545e-01	2.540772e+14	6.457076e+14	2.008067e+14	9.719479e+03	3.560123e+03	2.232393e+03	0	8.248209e-04
3.000000e+08	1.352312e+13	0.000000e+00	5.454545e-01	2.501183e+14	6.340972e+14	1.997571e+14	9.695533e+03	3.552358e+03	2.227524e+03	0	8.196062e-04
3.100000e+08	1.327107e+13	0.000000e+00	5.454545e-01	2.462752e+14	6.229993e+14	1.987151e+14	9.671957e+03	3.544858e+03	2.222821e+03	0	8.144821e-04
3.200000e+08	1.302638e+13	0.000000e+00	5.454545e-01	2.425426e+14	6.123785e+14	1.976806e+14	9.648742e+03	3.537609e+03	2.218275e+03	0	8.094453e-04
3.300000e+08	1.278872e+13	0.000000e+00	5.454545e-01	2.389157e+14	6.022029e+14	1.966537e+14	9.625877e+03	3.530595e+03	2.213877e+03	0	8.044925e-04
3.400000e+08	1.255779e+13	0.000000e+00	5.454545e-01	2.353899e+14	5.924431e+14	1.956343e+14	9.603353e+03	3.523804e+03	2.209619e+03	0	7.996208e-04
3.500000e+08	1.233331e+13	0.000000e+00	5.454545e-01	2.319609e+14	5.830723e+14	1.946223e+14	9.581159e+03	3.517223e+03	2.205492e+03	0	7.948273e-04
3.600000e+08	1.211499e+13	0.000000e+00	5.454545e-01	2.286245e+14	5.740661e+14	1.936176e+14	9.559287e+03	3.510841e+03	2.201490e+03	0	7.901094e-04
3.700000e+08	1.190258e+13	0.000000e+00	5.454545e-01	2.253770e+14	5.654019e+14	1.926201e+14	9.537728e+03	3.504647e+03	2.197607e+03	0	7.854646e-04
3.800000e+08	1.169583e+13	0.000000e+00	5.454545e-01	2.222148e+14	5.570591e+14	1.916299e+14	9.516474e+03	3.498632e+03	2.193835e+03	0	7.808903e-04
3.900000e+08	1.149454e+13	0.000000e+00	5.454545e-01	2.191345e+14	5.490186e+14	1.906469e+14	9.495517e+03	3.492786e+03	2.190169e+03	0	7.763843e-04
4.000000e+08	1.129846e+13	0.000000e+00	5.454545e-01	2.161328e+14	5.412628e+14	1.896709e+14	9.474849e+03	3.487101e+03	2.186604e+03	0	7.719445e-04
4.100000e+08	1.110741e+13	0.000000e+00	5.454545e-01	2.132067e+14	5.337755e+14	1.887020e+14	9.454463e+03	3.481568e+03	2.183135e+03	0	7.675686e-04
4.200000e+08	1.092119e+13	0.000000e+00	5.454545e-01	2.103533e+14	5.265417e+14	1.877401e+14	9.434352e+03	3.476181e+03	2.179756e+03	0	7.632549e-04
4.300000e+08	1.073961e+13	0.000000e+00	5.454545e-01	2.075698e+14	5.195475e+14	1.867851e+14	9.414509e+03	3.470932e+03	2.176465e+03	0	7.590013e-04
4.400000e+08	1.056251e+13	0.000000e+00	5.454545e-01	2.048538e+14	5.127800e+14	1.858369e+14	9.394927e+03	3.465814e+03	2.173256e+03	0	7.548060e-04
4.500000e+08	1.038972e+13	0.000000e+00	5.454545e-01	2.022027e+14	5.062272e+14	1.848956e+14	9.375600e+03	3.460822e+03	2.170126e+03	0	7.506673e-04
4.600000e+08	1.022108e+13	0.000000e+00	5.454545e-01	1.996142e+14	4.998781e+14	1.839610e+14	9.356522e+03	3.455950e+03	2.167071e+03	0	7.465837e-04
4.700000e+08	1.005644e+13	0.000000e+00	5.454545e-01	1.970860e+14	4.937222e+14	1.830332e+14	9.337688e+03	3.451192e+03	2.164087e+03	0	7.425534e-04
4.800000e+08	9.895665e+12	0.000000e+00	5.454545e-01	1.946161e+14	4.877498e+14	1.821120e+14	9.319091e+03	3.446544e+03	2.161173e+03	0	7.385750e-04
4.900000e+08	9.738619e+12	0.000000e+00	5.454545e-01	1.922024e+14	4.819520e+14	1.811973e+14	9.300726e+03	3.442000e+03	2.158323e+03	0	7.346471e-04
5.000000e+08	9.585173e+12	0.000000e+00	5.454545e-01	1.898431e+14	4.763203e+14	1.802893e+14	9.282589e+03	3.437557e+03	2.155537e+03	0	7.307681e-04
5.100000e+08	9.435205e+12	0.000000e+00	5.454545e-01	1.875362e+14	4.708468e+14	1.793877e+14	9.264672e+03	3.433209e+03	2.152811e+03	0	7.269369e-04
5.200000e+08	9.288598e+12	0.000000e+00	5.454545e-01	1.852801e+14	4.655242e+14	1.784925e+14	9.246973e+03	3.428953e+03	2.150142e+03	0	7.231521e-04
5.300000e+08	9.145242e+12	0.000000e+00	5.454545e-01	1.830731e+14	4.603455e+14	1.776038e+14	9.229486e+03	3.424785e+03	2.147528e+03	0	7.194126e-04
5.400000e+08	9.005029e+12	0.000000e+00	5.454545e-01	1.809135e+14	4.553043e+14	1.767213e+14	9.212206e+03	3.420701e+03	2.144968e+03	0	7.157170e-04
5.500000e+08	8.867859e+12	0.000000e+00	5.454545e-01	1.787999e+14	4.503944e+14	1.758452e+14	9.195129e+03	3.416699e+03	2.142458e+03	0	7.120643e-04
5.600000e+08	8.733634e+12	0.000000e+00	5.454545e-01	1.767309e+14	4.456101e+14	1.749752e+14	9.178251e+03	3.412774e+03	2.139997e+03	0	7.084534e-04
5.700000e+08	8.602261e+12	0.000000e+00	5.454545e-01	1.747049e+14	4.409460e+14	1.741115e+14	9.161568e+03	3.408924e+03	2.137583e+03	0	7.048832e-04
5.800000e+08	8.473652e+12	0.000000e+00	5.454545e-01	1.727207e+14	4.363971e+14	1.732538e+14	9.145075e+03	3.405147e+03	2.135214e+03	0	7.013527e-04
5.900000e+08	8.347720e+12	0.000000e+00	5.454545e-01	1.707770e+14	4.319586e+14	1.724023e+14	9.128769e+03	3.401438e+03	2.132889e+03	0	6.978610e-04
6.000000e+08	8.224385e+12	0.000000e+00	5.454545e-01	1.688726e+14	4.276258e+14	1.715568e+14	9.112645e+03	3.397797e+03	2.130605e+03	0	6.944070e-04
6.100000e+08	8.103568e+12	0.000000e+00	5.454545e-01	1.670063e+14	4.233947e+14	1.707172e+14	9.096701e+03	3.394219e+03	2.128362e+03	0	6.909899e-04
6.200000e+08	7.985194e+12	0.000000e+00	5.454545e-01	1.651769e+14	4.192610e+14	1.698836e+14	9.080932e+03	3.390704e+03	2.126158e+03	0	6.876088e-04
6.300000e+08	7.869191e+12	0.000000e+00	5.454545e-01	1.633835e+14	4.152212e+14	1.690559e+14	9.065336e+03	3.387249e+03	2.123991e+03	0	6.842629e-04
6.400000e+08	7.755489e+12	0.000000e+00	5.454545e-01	1.616248e+14	4.112714e+14	1.682340e+14	9.049908e+03	3.383851e+03	2.121860e+03	0	6.809512e-04
6.500000e+08	7.644022e+12	0.000000e+00	5.454545e-01	1.599001e+14	4.074083e+14	1.674179e+14	9.034645e+03	3.380508e+03	2.119765e+03	0	6.776731e-04
6.600000e+08	7.534726e+12	0.000000e+00	5.454545e-01	1.582082e+14	4.036288e+14	1.666076e+14	9.019545e+03	3.377220e+03	2.117703e+03	0	6.744278e-04
6.700000e+08	7.427539e+12	0.000000e+00	5.454545e-01	1.565483e+14	3.999296e+14	1.658029e+14	9.004604e+03	3.373983e+03	2.115673e+03	0	6.712144e-04
6.800000e+08	7.322403e+12	0.000000e+00	5.454545e-01	1.549195e+14	3.963079e+14	1.650039e+14	8.989820e+03	3.370797e+03	2.113675e+03	0	6.680323e-04
6.900000e+08	7.219260e+12	0.000000e+00	5.454545e-01	1.533208e+14	3.927609e+14	1.642105e+14	8.975188e+03	3.367659e+03	2.111707e+03	0	6.648809e-04
7.000000e+08	7.118055e+12	0.000000e+00	5.454545e-01	1.517516e+14	3.892860e+14	1.634227e+14	8.960707e+03	3.364568e+03	2.109769e+03	0	6.617593e-04
7.100000e+08	7.018736e+12	0.000000e+00	5.454545e-01	1.502110e+14	3.858807e+14	1.626404e+14	8.946374e+03	3.361523e+03	2.107860e+03	0	6.586670e-04
7.200000e+08	6.921252e+12	0.000000e+00	5.454545e-01	1.486982e+14	3.825425e+14	1.618635e+14	8.932186e+03	3.358522e+03	2.105978e+03	0	6.556034e-04
7.300000e+08	6.825553e+12	0.000000e+00	5.454545e-01	1.472125e+14	3.792693e+14	1.610921e+14	8.918140e+03	3.355563e+03	2.104122e+03	0	6.525677e-04
7.400000e+08	6.731593e+12	0.000000e+00	5.454545e-01	1.457532e+14	3.760589e+14	1.603261e+14	8.904234e+03	3.352646e+03	2.102293e+03	0	6.495594e-04
7.500000e+08	6.639325e+12	0.000000e+00	5.454545e-01	1.443196e+14	3.729092e+14	1.595654e+14	8.890465e+03	3.349769e+03	2.100489e+03	0	6.465780e-04
7.600000e+08	6.548706e+12	0.000000e+00	5.454545e-01	1.429111e+14	3.698182e+14	1.588100e+14	8.876831e+03	3.346930e+03	2.098709e+03	0	6.436228e-04
7.700000e+08	6.459693e+12	0.000000e+00	5.454545e-01	1.415269e+14	3.667841e+14	1.580598e+14	8.863330e+03	3.344130e+03	2.096953e+03	0	6.406934e-04
7.800000e+08	6.372245e+12	0.000000e+00	5.454545e-01	1.401665e+14	3.638050e+14	1.573149e+14	8.849960e+03	3.341366e+03	2.095220e+03	0	6.377891e-04
7.900000e+08	6.286322e+12	0.000000e+00	5.454545e-01	1.388293e+14	3.608793e+14	1.565751e+14	8.836717e+03	3.338638e+03	2.093509e+03	0	6.349095e-04
8.000000e+08	6.201887e+12	0.000000e+00	5.454545e-01	1.375147e+14	3.580053e+14	1.558405e+14	8.823601e+03	3.335944e+03	2.091820e+03	0	6.320541e-04
8.100000e+08	6.118902e+12	0.000000e+00	5.454545e-01	1.362222e+14	3.551815e+14	1.551110e+14	8.810608e+03	3.333284e+03	2.090152e+03	0	6.292223e-04
8.200000e+08	6.037331e+12	0.000000e+00	5.454545e-01	1.349511e+14	3.524063e+14	1.543865e+14	8.797737e+03	3.330657e+03	2.088505e+03	0	6.264137e-04
8.300000e+08	5.957139e+12	0.000000e+00	5.454545e-01	1.337011e+14	3.496784e+14	1.536670e+14	8.784985e+03	3.328061e+03	2.086877e+03	0	6.236279e-04
8.400000e+08	5.878294e+12	0.000000e+00	5.454545e-01	1.324715e+14	3.469962e+14	1.529525e+14	8.772352e+03	3.325496e+03	2.085269e+03	0	6.208643e-04
8.500000e+08	5.800762e+12	0.000000e+00	5.454545e-01	1.312619e+14	3.443586e+14	1.522429e+14	8.759834e+03	3.322962e+03	2.083680e+03	0	6.181226e-04
8.600000e+08	5.724512e+12	0.000000e+00	5.454545e-01	1.300719e+14	3.417642e+14	1.515383e+14	8.747430e+03	3.320456e+03	2.082109e+03	0	6.154023e-04
8.700000e+08	5.649515e+12	0.000000e+00	5.454545e-01	1.289009e+14	3.392119e+14	1.508384e+14	8.735138e+03	3.317980e+03	2.080556e+03	0	6.127030e-04
8.800000e+08	5.575739e+12	0.000000e+00	5.454545e-01	1.277485e+14	3.367004e+14	1.501434e+14	8.722957e+03	3.315531e+03	2.079020e+03	0	6.100243e-04
8.900000e+08	5.503158e+12	0.000000e+00	5.454545e-01	1.266143e+14	3.342287e+14	1.494532e+14	8.710884e+03	3.313109e+03	2.077501e+03	0	6.073657e-04
9.000000e+08	5.431742e+12	0.000000e+00	5.454545e-01	1.254978e+14	3.317957e+14	1.487677e+14	8.698918e+03	3.310713e+03	2.075999e+03	0	6.047270e-04
9.100000e+08	5.361467e+12	0.000000e+00	5.454545e-01	1.243988e+14	3.294003e+14	1.480868e+14	8.687057e+03	3.308344e+03	2.074513e+03	0	6.021077e-04
9.200000e+08	5.292304e+12	0.000000e+00	5.454545e-01	1.233167e+14	3.270415e+14	1.474107e+14	8.675300e+03	3.305999e+03	2.073043e+03	0	5.995074e-04
9.300000e+08	5.224230e+12	0.000000e+00	5.454545e-01	1.222512e+14	3.247184e+14	1.467392e+14	8.663645e+03	3.303679e+03	2.071588e+03	0	5.969258e-04
9.400000e+08	5.157219e+12	0.000000e+00	5.454545e-01	1.212019e+14	3.224301e+14	1.460722e+14	8.652090e+03	3.301383e+03	2.070148e+03	0	5.943626e-04
9.500000e+08	5.091249e+12	0.000000e+00	5.454545e-01	1.201685e+14	3.201757e+14	1.454099e+14	8.640634e+03	3.299110e+03	2.068723e+03	0	5.918174e-04
9.600000e+08	5.026295e+12	0.000000e+00	5.454545e-01	1.191506e+14	3.179543e+14	1.447520e+14	8.629276e+03	3.296860e+03	2.067312e+03	0	5.892898e-04
9.700000e+08	4.962336e+12	0.000000e+00	5.454545e-01	1.181479e+14	3.157651e+14	1.440986e+14	8.618013e+03	3.294632e+03	2.065915e+03	0	5.867796e-04
9.800000e+08	4.899350e+12	0.000000e+00	5.454545e-01	1.171601e+14	3.136073e+14	1.434497e+14	8.606845e+03	3.292426e+03	2.064532e+03	0	5.842864e-04
9.900000e+08	4.837316e+12	0.000000e+00	5.454545e-01	1.161867e+14	3.114802e+14	1.428052e+14	8.595770e+03	3.290241e+03	2.063162e+03	0	5.818099e-04
1.000000e+09	4.776214e+12	0.000000e+00	5.454545e-01	1.152276e+14	3.093829e+14	1.421650e+14	8.584787e+03	3.288077e+03	2.061805e+03	0	5.793498e-04
1.010000e+09	4.716022e+12	0.000000e+00	5.454545e-01	1.142825e+14	3.073149e+14	1.415292e+14	8.573894e+03	3.285934e+03	2.060461e+03	0	5.769058e-04
1.020000e+09	4.656723e+12	0.000000e+00	5.454545e-01	1.133509e+14	3.052753e+14	1.408977e+14	8.563090e+03	3.283810e+03	2.059130e+03	0	5.744776e-04
1.030000e+09	4.598298e+12	0.000000e+00	5.454545e-01	1.124327e+14	3.032636e+14	1.402705e+14	8.552374e+03	3.281706e+03	2.057810e+03	0	5.720649e-04
1.040000e+09	4.540727e+12	0.000000e+00	5.454545e-01	1.115276e+14	3.012791e+14	1.396475e+14	8.541745e+03	3.279621e+03	2.056503e+03	0	5.696675e-04
1.050000e+09	4.483993e+12	0.000000e+00	5.454545e-01	1.106353e+14	2.993211e+14	1.390287e+14	8.531201e+03	3.277554e+03	2.055207e+03	0	5.672850e-04
1.060000e+09	4.428080e+12	0.000000e+00	5.454545e-01	1.097555e+14	2.973891e+14	1.384141e+14	8.520741e+03	3.275506e+03	2.053923e+03	0	5.649172e-04
1.070000e+09	4.372970e+12	0.000000e+00	5.454545e-01	1.088880e+14	2.954826e+14	1.378036e+14	8.510364e+03	3.273476e+03	2.052649e+03	0	5.625638e-04
1.080000e+09	4.318646e+12	0.000000e+00	5.454545e-01	1.080326e+14	2.936008e+14	1.371973e+14	8.500069e+03	3.271463e+03	2.051387e+03	0	5.602246e-04
1.090000e+09	4.265094e+12	0.000000e+00	5.454545e-01	1.071889e+14	2.917434e+14	1.365950e+14	8.489854e+03	3.269468e+03	2.050136e+03	0	5.578993e-04
1.100000e+09	4.212296e+12	0.000000e+00	5.454545e-01	1.063568e+14	2.899097e+14	1.359968e+14	8.479719e+03	3.267489e+03	2.048895e+03	0	5.555877e-04
1.110000e+09	4.160239e+12	0.000000e+00	5.454545e-01	1.055361e+14	2.880992e+14	1.354025e+14	8.469663e+03	3.265526e+03	2.047665e+03	0	5.532895e-04
1.120000e+09	4.108908e+12	0.000000e+00	5.454545e-01	1.047265e+14	2.863115e+14	1.348123e+14	8.459684e+03	3.263580e+03	2.046444e+03	0	5.510044e-04
1.130000e+09	4.058288e+12	0.000000e+00	5.454545e-01	1.039277e+14	2.845461e+14	1.342260e+14	8.449781e+03	3.261650e+03	2.045234e+03	0	5.487324e-04
1.140000e+09	4.008365e+12	0.000000e+00	5.454545e-01	1.031397e+14	2.828026e+14	1.336436e+14	8.439954e+03	3.259735e+03	2.044033e+03	0	5.464730e-04
1.150000e+09	3.959126e+12	0.000000e+00	5.454545e-01	1.023621e+14	2.810803e+14	1.330651e+14	8.430201e+03	3.257836e+03	2.042842e+03	0	5.442261e-04
1.160000e+09	3.910557e+12	0.000000e+00	5.454545e-01	1.015948e+14	2.793790e+14	1.324905e+14	8.420521e+03	3.255951e+03	2.041661e+03	0	5.419915e-04
1.170000e+09	3.862646e+12	0.000000e+00	5.454545e-01	1.008375e+14	2.776983e+14	1.319197e+14	8.410914e+03	3.254082e+03	2.040488e+03	0	5.397690e-04
1.180000e+09	3.815380e+12	0.000000e+00	5.454545e-01	1.000902e+14	2.760376e+14	1.313527e+14	8.401378e+03	3.252226e+03	2.039325e+03	0	5.375583e-04
1.190000e+09	3.768747e+12	0.000000e+00	5.454545e-01	9.935260e+13	2.743966e+14	1.307894e+14	8.391912e+03	3.250385e+03	2.038170e+03	0	5.353592e-04
1.200000e+09	3.722734e+12	0.000000e+00	5.454545e-01	9.862450e+13	2.727749e+14	1.302300e+14	8.382516e+03	3.248558e+03	2.037025e+03	0	5.331715e-04
1.210000e+09	3.677331e+12	0.000000e+00	5.454545e-01	9.790575e+13	2.711722e+14	1.296742e+14	8.373189e+03	3.246745e+03	2.035887e+03	0	5.309951e-04
1.220000e+09	3.632525e+12	0.000000e+00	5.454545e-01	9.719618e+13	2.695880e+14	1.291221e+14	8.363930e+03	3.244944e+03	2.034759e+03	0	5.288297e-04
1.230000e+09	3.588306e+12	0.000000e+00	5.454545e-01	9.649562e+13	2.680220e+14	1.285736e+14	8.354738e+03	3.243158e+03	2.033638e+03	0	5.266751e-04
1.240000e+09	3.544663e+12	0.000000e+00	5.454545e-01	9.580389e+13	2.664739e+14	1.280288e+14	8.345611e+03	3.241384e+03	2.032526e+03	0	5.245311e-04
1.250000e+09	3.501584e+12	0.000000e+00	5.454545e-01	9.512085e+13	2.649434e+14	1.274876e+14	8.336550e+03	3.239622e+03	2.031421e+03	0	5.223976e-04
1.260000e+09	3.459061e+12	0.000000e+00	5.454545e-01	9.444634e+13	2.634301e+14	1.269499e+14	8.327554e+03	3.237874e+03	2.030325e+03	0	5.202743e-04
1.270000e+09	3.417083e+12	0.000000e+00	5.454545e-01	9.378020e+13	2.619336e+14	1.264158e+14	8.318621e+03	3.236138e+03	2.029236e+03	0	5.181611e-04
1.280000e+09	3.375639e+12	0.000000e+00	5.454545e-01	9.312228e+13	2.604537e+14	1.258852e+14	8.309751e+03	3.234413e+03	2.028155e+03	0	5.160578e-04
1.290000e+09	3.334722e+12	0.000000e+00	5.454545e-01	9.247245e+13	2.589901e+14	1.253581e+14	8.300942e+03	3.232701e+03	2.027081e+03	0	5.139641e-04
1.300000e+09	3.294320e+12	0.000000e+00	5.454545e-01	9.183055e+13	2.575425e+14	1.248344e+14	8.292196e+03	3.231001e+03	2.026015e+03	0	5.118800e-04
1.310000e+09	3.254425e+12	0.000000e+00	5.454545e-01	9.119644e+13	2.561106e+14	1.243142e+14	8.283510e+03	3.229312e+03	2.024956e+03	0	5.098053e-04
1.320000e+09	3.215028e+12	0.000000e+00	5.454545e-01	9.057000e+13	2.546942e+14	1.237974e+14	8.274883e+03	3.227634e+03	2.023904e+03	0	5.077398e-04
1.330000e+09	3.176120e+12	0.000000e+00	5.454545e-01	8.995109e+13	2.532929e+14	1.232839e+14	8.266316e+03	3.225968e+03	2.022859e+03	0	5.056833e-04
1.340000e+09	3.137693e+12	0.000000e+00	5.454545e-01	8.933957e+13	2.519065e+14	1.227738e+14	8.257807e+03	3.224313e+03	2.021821e+03	0	5.036356e-04
1.350000e+09	3.099738e+12	0.000000e+00	5.454545e-01	8.873533e+13	2.505347e+14	1.222671e+14	8.249356e+03	3.222668e+03	2.020790e+03	0	5.015966e-04
1.360000e+09	3.062247e+12	0.000000e+00	5.454545e-01	8.813823e+13	2.491773e+14	1.217636e+14	8.240962e+03	3.221034e+03	2.019766e+03	0	4.995662e-04
