#t		Qconv[W]	Ri[Rp]		R*[Rp]		Qc[W]		Qm[W]		Qr[W]		Tcmb[K]		Tl[K]		Tup[K]		RiFlag		Bs[T]
0.000000e+00	9.253317e+14	0.000000e+00	5.384614e-01	1.278247e+16	4.231882e+15	2.747970e+14	2.305350e+04	5.772219e+03	2.614167e+03	0	3.344260e-03
1.000000e+07	8.025965e+14	0.000000e+00	5.384614e-01	1.110147e+16	5.572813e+15	2.732744e+14	2.208884e+04	6.101724e+03	2.763396e+03	0	3.189334e-03
2.000000e+07	7.010221e+14	0.000000e+00	5.384614e-01	9.709978e+15	6.460887e+15	2.717632e+14	2.124589e+04	6.315382e+03	2.860158e+03	0	3.048677e-03
3.000000e+07	6.167555e+14	0.000000e+00	5.384614e-01	8.555303e+15	6.919432e+15	2.702633e+14	2.050463e+04	6.444127e+03	2.918466e+03	0	2.921271e-03
4.000000e+07	5.465132e+14	0.000000e+00	5.384614e-01	7.592531e+15	7.051839e+15	2.687746e+14	1.984842e+04	6.513671e+03	2.949961e+03	0	2.805871e-03
5.000000e+07	4.875845e+14	0.000000e+00	5.384614e-01	6.784593e+15	6.966882e+15	2.672970e+14	1.926363e+04	6.543222e+03	2.963344e+03	0	2.701163e-03
6.000000e+07	4.377883e+14	0.000000e+00	5.384614e-01	6.101655e+15	6.750727e+15	2.658305e+14	1.873913e+04	6.546318e+03	2.964746e+03	0	2.605887e-03
7.000000e+07	3.953933e+14	0.000000e+00	5.384614e-01	5.520039e+15	6.463453e+15	2.643748e+14	1.826588e+04	6.532204e+03	2.958354e+03	0	2.518898e-03
8.000000e+07	3.590329e+14	0.000000e+00	5.384614e-01	5.021047e+15	6.144019e+15	2.629300e+14	1.783647e+04	6.507101e+03	2.946986e+03	0	2.439190e-03
9.000000e+07	3.276270e+14	0.000000e+00	5.384614e-01	4.589907e+15	5.816438e+15	2.614959e+14	1.744484e+04	6.475167e+03	2.932523e+03	0	2.365888e-03
1.000000e+08	3.003191e+14	0.000000e+00	5.384614e-01	4.214897e+15	5.494836e+15	2.600724e+14	1.708599e+04	6.439175e+03	2.916223e+03	0	2.298239e-03
1.100000e+08	2.764257e+14	0.000000e+00	5.384614e-01	3.886665e+15	5.187040e+15	2.586596e+14	1.675574e+04	6.400972e+03	2.898921e+03	0	2.235598e-03
1.200000e+08	2.553978e+14	0.000000e+00	5.384614e-01	3.597697e+15	4.896977e+15	2.572571e+14	1.645061e+04	6.361789e+03	2.881176e+03	0	2.177409e-03
1.300000e+08	2.367911e+14	0.000000e+00	5.384614e-01	3.341912e+15	4.626207e+15	2.558651e+14	1.616765e+04	6.322441e+03	2.863356e+03	0	2.123192e-03
1.400000e+08	2.202435e+14	0.000000e+00	5.384614e-01	3.114353e+15	4.374897e+15	2.544834e+14	1.590439e+04	6.283464e+03	2.845703e+03	0	2.072535e-03
1.500000e+08	2.054580e+14	0.000000e+00	5.384614e-01	2.910954e+15	4.142420e+15	2.531119e+14	1.565867e+04	6.245202e+03	2.828375e+03	0	2.025079e-03
1.600000e+08	1.921891e+14	0.000000e+00	5.384614e-01	2.728353e+15	3.927732e+15	2.517505e+14	1.542869e+04	6.207875e+03	2.811470e+03	0	1.980510e-03
1.700000e+08	1.802327e+14	0.000000e+00	5.384614e-01	2.563754e+15	3.729591e+15	2.503992e+14	1.521285e+04	6.171611e+03	2.795046e+03	0	1.938558e-03
1.800000e+08	1.694178e+14	0.000000e+00	5.384614e-01	2.414817e+15	3.546697e+15	2.490578e+14	1.500979e+04	6.136481e+03	2.779136e+03	0	1.898981e-03
1.900000e+08	1.596007e+14	0.000000e+00	5.384614e-01	2.279570e+15	3.377767e+15	2.477263e+14	1.481832e+04	6.102514e+03	2.763753e+03	0	1.861569e-03
2.000000e+08	1.506595e+14	0.000000e+00	5.384614e-01	2.156346e+15	3.221580e+15	2.464046e+14	1.463739e+04	6.069711e+03	2.748897e+03	0	1.826136e-03
2.100000e+08	1.424907e+14	0.000000e+00	5.384614e-01	2.043725e+15	3.076996e+15	2.450927e+14	1.446607e+04	6.038057e+03	2.734561e+03	0	1.792516e-03
2.200000e+08	1.350056e+14	0.000000e+00	5.384614e-01	1.940492e+15	2.942967e+15	2.437903e+14	1.430356e+04	6.007523e+03	2.720733e+03	0	1.760563e-03
2.300000e+08	1.281281e+14	0.000000e+00	5.384614e-01	1.845603e+15	2.818538e+15	2.424976e+14	1.414912e+04	5.978072e+03	2.707395e+03	0	1.730144e-03
2.400000e+08	1.217924e+14	0.000000e+00	5.384614e-01	1.758157e+15	2.702845e+15	2.412143e+14	1.400212e+04	5.949665e+03	2.694530e+03	0	1.701143e-03
2.500000e+08	1.159415e+14	0.000000e+00	5.384614e-01	1.677372e+15	2.595105e+15	2.399404e+14	1.386198e+04	5.922258e+03	2.682117e+03	0	1.673454e-03
2.600000e+08	1.105258e+14	0.000000e+00	5.384614e-01	1.602567e+15	2.494615e+15	2.386758e+14	1.372819e+04	5.895808e+03	2.670138e+03	0	1.646981e-03
2.700000e+08	1.055018e+14	0.000000e+00	5.384614e-01	1.533148e+15	2.400740e+15	2.374204e+14	1.360027e+04	5.870270e+03	2.658573e+03	0	1.621639e-03
2.800000e+08	1.008317e+14	0.000000e+00	5.384614e-01	1.468593e+15	2.312911e+15	2.361743e+14	1.347783e+04	5.845603e+03	2.647401e+03	0	1.597349e-03
2.900000e+08	9.648189e+13	0.000000e+00	5.384614e-01	1.408443e+15	2.230615e+15	2.349372e+14	1.336047e+04	5.821765e+03	2.636605e+03	0	1.574041e-03
3.000000e+08	9.242286e+13	0.000000e+00	5.384614e-01	1.352292e+15	2.153389e+15	2.337092e+14	1.324785e+04	5.798716e+03	2.626167e+03	0	1.551651e-03
3.100000e+08	8.862843e+13	0.000000e+00	5.384614e-01	1.299782e+15	2.080817e+15	2.324901e+14	1.313967e+04	5.776419e+03	2.616069e+03	0	1.530119e-03
3.200000e+08	8.507537e+13	0.000000e+00	5.384614e-01	1.250593e+15	2.012525e+15	2.312798e+14	1.303564e+04	5.754836e+03	2.606294e+03	0	1.509392e-03
3.300000e+08	8.174294e+13	0.000000e+00	5.384614e-01	1.204441e+15	1.948172e+15	2.300784e+14	1.293549e+04	5.733934e+03	2.596828e+03	0	1.489421e-03
3.400000e+08	7.861264e+13	0.000000e+00	5.384614e-01	1.161071e+15	1.887453e+15	2.288857e+14	1.283900e+04	5.713679e+03	2.587655e+03	0	1.470161e-03
3.500000e+08	7.566790e+13	0.000000e+00	5.384614e-01	1.120257e+15	1.830090e+15	2.277016e+14	1.274594e+04	5.694042e+03	2.578761e+03	0	1.451570e-03
3.600000e+08	7.289384e+13	0.000000e+00	5.384614e-01	1.081793e+15	1.775830e+15	2.265261e+14	1.265612e+04	5.674993e+03	2.570134e+03	0	1.433610e-03
3.700000e+08	7.027704e+13	0.000000e+00	5.384614e-01	1.045496e+15	1.724445e+15	2.253592e+14	1.256934e+04	5.656504e+03	2.561761e+03	0	1.416246e-03
3.800000e+08	6.780544e+13	0.000000e+00	5.384614e-01	1.011199e+15	1.675727e+15	2.242007e+14	1.248545e+04	5.638551e+03	2.553630e+03	0	1.399445e-03
3.900000e+08	6.546810e+13	0.000000e+00	5.384614e-01	9.787532e+14	1.629486e+15	2.230505e+14	1.240428e+04	5.621107e+03	2.545730e+03	0	1.383176e-03
4.000000e+08	6.325512e+13	0.000000e+00	5.384614e-01	9.480213e+14	1.585550e+15	2.219087e+14	1.232568e+04	5.604150e+03	2.538050e+03	0	1.367412e-03
4.100000e+08	6.115751e+13	0.000000e+00	5.384614e-01	9.188800e+14	1.543760e+15	2.207751e+14	1.224953e+04	5.587659e+03	2.530582e+03	0	1.352127e-03
4.200000e+08	5.916709e+13	0.000000e+00	5.384614e-01	8.912171e+14	1.503972e+15	2.196497e+14	1.217570e+04	5.571614e+03	2.523315e+03	0	1.337296e-03
4.300000e+08	5.727642e+13	0.000000e+00	5.384614e-01	8.649301e+14	1.466053e+15	2.185323e+14	1.210406e+04	5.555993e+03	2.516241e+03	0	1.322897e-03
4.400000e+08	5.547868e+13	0.000000e+00	5.384614e-01	8.399253e+14	1.429882e+15	2.174231e+14	1.203452e+04	5.540781e+03	2.509351e+03	0	1.308909e-03
4.500000e+08	5.376765e+13	0.000000e+00	5.384614e-01	8.161173e+14	1.395347e+15	2.163217e+14	1.196697e+04	5.525958e+03	2.502638e+03	0	1.295313e-03
4.600000e+08	5.213764e+13	0.000000e+00	5.384614e-01	7.934275e+14	1.362344e+15	2.152283e+14	1.190132e+04	5.511509e+03	2.496094e+03	0	1.282088e-03
4.700000e+08	5.058341e+13	0.000000e+00	5.384614e-01	7.717840e+14	1.330780e+15	2.141428e+14	1.183748e+04	5.497419e+03	2.489713e+03	0	1.269220e-03
4.800000e+08	4.910016e+13	0.000000e+00	5.384614e-01	7.511207e+14	1.300566e+15	2.130650e+14	1.177536e+04	5.483673e+03	2.483488e+03	0	1.256691e-03
4.900000e+08	4.768345e+13	0.000000e+00	5.384614e-01	7.313767e+14	1.271623e+15	2.119949e+14	1.171489e+04	5.470257e+03	2.477412e+03	0	1.244486e-03
5.000000e+08	4.632922e+13	0.000000e+00	5.384614e-01	7.124957e+14	1.243875e+15	2.109325e+14	1.165600e+04	5.457158e+03	2.471480e+03	0	1.232592e-03
5.100000e+08	4.503370e+13	0.000000e+00	5.384614e-01	6.944260e+14	1.217253e+15	2.098777e+14	1.159861e+04	5.444364e+03	2.465685e+03	0	1.220994e-03
5.200000e+08	4.379340e+13	0.000000e+00	5.384614e-01	6.771197e+14	1.191693e+15	2.088304e+14	1.154267e+04	5.431863e+03	2.460024e+03	0	1.209680e-03
5.300000e+08	4.260511e+13	0.000000e+00	5.384614e-01	6.605325e+14	1.167135e+15	2.077905e+14	1.148811e+04	5.419644e+03	2.454490e+03	0	1.198638e-03
5.400000e+08	4.146584e+13	0.000000e+00	5.384614e-01	6.446231e+14	1.143524e+15	2.067581e+14	1.143488e+04	5.407696e+03	2.449079e+03	0	1.187858e-03
5.500000e+08	4.037283e+13	0.000000e+00	5.384614e-01	6.293536e+14	1.120809e+15	2.057330e+14	1.138291e+04	5.396010e+03	2.443786e+03	0	1.177327e-03
5.600000e+08	3.932349e+13	0.000000e+00	5.384614e-01	6.146883e+14	1.098941e+15	2.047152e+14	1.133217e+04	5.384576e+03	2.438608e+03	0	1.167038e-03
5.700000e+08	3.831545e+13	0.000000e+00	5.384614e-01	6.005945e+14	1.077876e+15	2.037047e+14	1.128260e+04	5.373384e+03	2.433539e+03	0	1.156979e-03
5.800000e+08	3.734648e+13	0.000000e+00	5.384614e-01	5.870413e+14	1.057572e+15	2.027013e+14	1.123416e+04	5.362426e+03	2.428576e+03	0	1.147143e-03
5.900000e+08	3.641449e+13	0.000000e+00	5.384614e-01	5.740002e+14	1.037991e+15	2.017050e+14	1.118681e+04	5.351694e+03	2.423716e+03	0	1.137520e-03
6.000000e+08	3.551755e+13	0.000000e+00	5.384614e-01	5.614445e+14	1.019094e+15	2.007158e+14	1.114050e+04	5.341181e+03	2.418955e+03	0	1.128102e-03
6.100000e+08	3.465385e+13	0.000000e+00	5.384614e-01	5.493492e+14	1.000850e+15	1.997335e+14	1.109519e+04	5.330877e+03	2.414289e+03	0	1.118883e-03
6.200000e+08	3.382171e+13	0.000000e+00	5.384614e-01	5.376911e+14	9.832249e+14	1.987582e+14	1.105086e+04	5.320778e+03	2.409715e+03	0	1.109854e-03
6.300000e+08	3.301953e+13	0.000000e+00	5.384614e-01	5.264482e+14	9.661895e+14	1.977898e+14	1.100746e+04	5.310875e+03	2.405230e+03	0	1.101010e-03
6.400000e+08	3.224584e+13	0.000000e+00	5.384614e-01	5.156001e+14	9.497155e+14	1.968282e+14	1.096496e+04	5.301162e+03	2.400831e+03	0	1.092342e-03
6.500000e+08	3.149924e+13	0.000000e+00	5.384614e-01	5.051277e+14	9.337766e+14	1.958734e+14	1.092333e+04	5.291634e+03	2.396516e+03	0	1.083846e-03
6.600000e+08	3.077844e+13	0.000000e+00	5.384614e-01	4.950129e+14	9.183478e+14	1.949254e+14	1.088253e+04	5.282284e+03	2.392281e+03	0	1.075515e-03
6.700000e+08	3.008221e+13	0.000000e+00	5.384614e-01	4.852389e+14	9.034058e+14	1.939839e+14	1.084255e+04	5.273106e+03	2.388124e+03	0	1.067343e-03
6.800000e+08	2.940939e+13	0.000000e+00	5.384614e-01	4.757898e+14	8.889286e+14	1.930491e+14	1.080336e+04	5.264095e+03	2.384043e+03	0	1.059326e-03
6.900000e+08	2.875890e+13	0.000000e+00	5.384614e-01	4.666505e+14	8.748954e+14	1.921209e+14	1.076492e+04	5.255246e+03	2.380036e+03	0	1.051457e-03
7.000000e+08	2.812973e+13	0.000000e+00	5.384614e-01	4.578071e+14	8.612868e+14	1.911991e+14	1.072722e+04	5.246554e+03	2.376099e+03	0	1.043733e-03
7.100000e+08	2.752091e+13	0.000000e+00	5.384614e-01	4.492462e+14	8.480842e+14	1.902839e+14	1.069023e+04	5.238014e+03	2.372232e+03	0	1.036148e-03
7.200000e+08	2.693153e+13	0.000000e+00	5.384614e-01	4.409553e+14	8.352701e+14	1.893750e+14	1.065392e+04	5.229621e+03	2.368431e+03	0	1.028698e-03
7.300000e+08	2.636075e+13	0.000000e+00	5.384614e-01	4.329226e+14	8.228282e+14	1.884724e+14	1.061828e+04	5.221372e+03	2.364695e+03	0	1.021379e-03
7.400000e+08	2.580775e+13	0.000000e+00	5.384614e-01	4.251370e+14	8.107429e+14	1.875762e+14	1.058328e+04	5.213262e+03	2.361022e+03	0	1.014186e-03
7.500000e+08	2.527177e+13	0.000000e+00	5.384614e-01	4.175879e+14	7.989993e+14	1.866862e+14	1.054891e+04	5.205287e+03	2.357410e+03	0	1.007116e-03
7.600000e+08	2.475208e+13	0.000000e+00	5.384614e-01	4.102653e+14	7.875835e+14	1.858024e+14	1.051515e+04	5.197443e+03	2.353858e+03	0	1.000165e-03
7.700000e+08	2.424801e+13	0.000000e+00	5.384614e-01	4.031598e+14	7.764824e+14	1.849248e+14	1.048198e+04	5.189726e+03	2.350363e+03	0	9.933286e-04
7.800000e+08	2.375891e+13	0.000000e+00	5.384614e-01	3.962624e+14	7.656832e+14	1.840532e+14	1.044938e+04	5.182133e+03	2.346924e+03	0	9.866044e-04
7.900000e+08	2.328417e+13	0.000000e+00	5.384614e-01	3.895647e+14	7.551742e+14	1.831877e+14	1.041733e+04	5.174661e+03	2.343540e+03	0	9.799888e-04
8.000000e+08	2.282320e+13	0.000000e+00	5.384614e-01	3.830587e+14	7.449440e+14	1.823283e+14	1.038582e+04	5.167306e+03	2.340209e+03	0	9.734785e-04
8.100000e+08	2.237545e+13	0.000000e+00	5.384614e-01	3.767366e+14	7.349820e+14	1.814747e+14	1.035483e+04	5.160064e+03	2.336929e+03	0	9.670706e-04
8.200000e+08	2.194041e+13	0.000000e+00	5.384614e-01	3.705913e+14	7.252778e+14	1.806271e+14	1.032435e+04	5.152933e+03	2.333700e+03	0	9.607619e-04
8.300000e+08	2.151757e+13	0.000000e+00	5.384614e-01	3.646159e+14	7.158217e+14	1.797853e+14	1.029437e+04	5.145911e+03	2.330519e+03	0	9.545498e-04
8.400000e+08	2.110646e+13	0.000000e+00	5.384614e-01	3.588039e+14	7.066046e+14	1.789494e+14	1.026487e+04	5.138993e+03	2.327386e+03	0	9.484315e-04
8.500000e+08	2.070663e+13	0.000000e+00	5.384614e-01	3.531490e+14	6.976177e+14	1.781192e+14	1.023583e+04	5.132177e+03	2.324300e+03	0	9.424045e-04
8.600000e+08	2.031765e+13	0.000000e+00	5.384614e-01	3.476453e+14	6.888525e+14	1.772948e+14	1.020725e+04	5.125462e+03	2.321258e+03	0	9.364661e-04
8.700000e+08	1.993913e+13	0.000000e+00	5.384614e-01	3.422872e+14	6.803010e+14	1.764760e+14	1.017912e+04	5.118843e+03	2.318261e+03	0	9.306140e-04
8.800000e+08	1.957066e+13	0.000000e+00	5.384614e-01	3.370693e+14	6.719558e+14	1.756628e+14	1.015141e+04	5.112319e+03	2.315306e+03	0	9.248459e-04
8.900000e+08	1.921189e+13	0.000000e+00	5.384614e-01	3.319866e+14	6.638094e+14	1.748553e+14	1.012412e+04	5.105887e+03	2.312393e+03	0	9.191595e-04
9.000000e+08	1.886245e+13	0.000000e+00	5.384614e-01	3.270341e+14	6.558550e+14	1.740532e+14	1.009725e+04	5.099545e+03	2.309521e+03	0	9.135526e-04
9.100000e+08	1.852202e+13	0.000000e+00	5.384614e-01	3.222071e+14	6.480860e+14	1.732567e+14	1.007077e+04	5.093291e+03	2.306689e+03	0	9.080233e-04
9.200000e+08	1.819027e+13	0.000000e+00	5.384614e-01	3.175013e+14	6.404960e+14	1.724657e+14	1.004468e+04	5.087123e+03	2.303895e+03	0	9.025693e-04
9.300000e+08	1.786690e+13	0.000000e+00	5.384614e-01	3.129124e+14	6.330789e+14	1.716800e+14	1.001897e+04	5.081038e+03	2.301139e+03	0	8.971889e-04
9.400000e+08	1.755161e+13	0.000000e+00	5.384614e-01	3.084363e+14	6.258290e+14	1.708997e+14	9.993636e+03	5.075034e+03	2.298420e+03	0	8.918802e-04
9.500000e+08	1.724413e+13	0.000000e+00	5.384614e-01	3.040692e+14	6.187408e+14	1.701247e+14	9.968657e+03	5.069111e+03	2.295738e+03	0	8.866413e-04
9.600000e+08	1.694418e+13	0.000000e+00	5.384614e-01	2.998073e+14	6.118090e+14	1.693551e+14	9.944031e+03	5.063265e+03	2.293090e+03	0	8.814704e-04
9.700000e+08	1.665152e+13	0.000000e+00	5.384614e-01	2.956472e+14	6.050284e+14	1.685906e+14	9.919748e+03	5.057495e+03	2.290477e+03	0	8.763660e-04
9.800000e+08	1.636590e+13	0.000000e+00	5.384614e-01	2.915854e+14	5.983943e+14	1.678314e+14	9.895800e+03	5.051799e+03	2.287897e+03	0	8.713263e-04
9.900000e+08	1.608708e+13	0.000000e+00	5.384614e-01	2.876187e+14	5.919019e+14	1.670773e+14	9.872180e+03	5.046175e+03	2.285350e+03	0	8.663498e-04
1.000000e+09	1.581484e+13	0.000000e+00	5.384614e-01	2.837440e+14	5.855469e+14	1.663284e+14	9.848880e+03	5.040623e+03	2.282836e+03	0	8.614349e-04
1.010000e+09	1.554897e+13	0.000000e+00	5.384614e-01	2.799583e+14	5.793248e+14	1.655845e+14	9.825892e+03	5.035139e+03	2.280352e+03	0	8.565803e-04
1.020000e+09	1.528926e+13	0.000000e+00	5.384614e-01	2.762587e+14	5.732318e+14	1.648457e+14	9.803209e+03	5.029724e+03	2.277900e+03	0	8.517844e-04
1.030000e+09	1.503551e+13	0.000000e+00	5.384614e-01	2.726425e+14	5.672636e+14	1.641118e+14	9.780825e+03	5.024374e+03	2.275477e+03	0	8.470458e-04
1.040000e+09	1.478753e+13	0.000000e+00	5.384614e-01	2.691071e+14	5.614167e+14	1.633830e+14	9.758733e+03	5.019090e+03	2.273084e+03	0	8.423632e-04
1.050000e+09	1.454514e+13	0.000000e+00	5.384614e-01	2.656499e+14	5.556873e+14	1.626590e+14	9.736925e+03	5.013869e+03	2.270719e+03	0	8.377354e-04
1.060000e+09	1.430817e+13	0.000000e+00	5.384614e-01	2.622686e+14	5.500720e+14	1.619399e+14	9.715397e+03	5.008709e+03	2.268383e+03	0	8.331610e-04
1.070000e+09	1.407645e+13	0.000000e+00	5.384614e-01	2.589607e+14	5.445674e+14	1.612257e+14	9.694142e+03	5.003611e+03	2.266074e+03	0	8.286389e-04
1.080000e+09	1.384982e+13	0.000000e+00	5.384614e-01	2.557241e+14	5.391703e+14	1.605163e+14	9.673153e+03	4.998572e+03	2.263791e+03	0	8.241678e-04
1.090000e+09	1.362813e+13	0.000000e+00	5.384614e-01	2.525566e+14	5.338775e+14	1.598116e+14	9.652426e+03	4.993591e+03	2.261536e+03	0	8.197466e-04
1.100000e+09	1.341122e+13	0.000000e+00	5.384614e-01	2.494562e+14	5.286861e+14	1.591117e+14	9.631954e+03	4.988667e+03	2.259305e+03	0	8.153741e-04
1.110000e+09	1.319895e+13	0.000000e+00	5.384614e-01	2.464208e+14	5.235932e+14	1.584165e+14	9.611733e+03	4.983798e+03	2.257101e+03	0	8.110494e-04
1.120000e+09	1.299118e+13	0.000000e+00	5.384614e-01	2.434486e+14	5.185960e+14	1.577259e+14	9.591756e+03	4.978985e+03	2.254921e+03	0	8.067713e-04
1.130000e+09	1.278779e+13	0.000000e+00	5.384614e-01	2.405377e+14	5.136919e+14	1.570400e+14	9.572020e+03	4.974225e+03	2.252765e+03	0	8.025388e-04
1.140000e+09	1.258865e+13	0.000000e+00	5.384614e-01	2.376863e+14	5.088783e+14	1.563586e+14	9.552518e+03	4.969517e+03	2.250633e+03	0	7.983510e-04
1.150000e+09	1.239362e+13	0.000000e+00	5.384614e-01	2.348928e+14	5.041526e+14	1.556818e+14	9.533247e+03	4.964861e+03	2.248524e+03	0	7.942069e-04
1.160000e+09	1.220260e+13	0.000000e+00	5.384614e-01	2.321554e+14	4.995125e+14	1.550095e+14	9.514202e+03	4.960255e+03	2.246438e+03	0	7.901054e-04
1.170000e+09	1.201548e+13	0.000000e+00	5.384614e-01	2.294727e+14	4.949558e+14	1.543417e+14	9.495377e+03	4.955698e+03	2.244374e+03	0	7.860458e-04
1.180000e+09	1.183213e+13	0.000000e+00	5.384614e-01	2.268430e+14	4.904801e+14	1.536783e+14	9.476769e+03	4.951190e+03	2.242333e+03	0	7.820272e-04
1.190000e+09	1.165246e+13	0.000000e+00	5.384614e-01	2.242649e+14	4.860834e+14	1.530193e+14	9.458374e+03	4.946730e+03	2.240313e+03	0	7.780486e-04
1.200000e+09	1.147636e+13	0.000000e+00	5.384614e-01	2.217370e+14	4.817635e+14	1.523647e+14	9.440187e+03	4.942315e+03	2.238314e+03	0	7.741092e-04
1.210000e+09	1.130374e+13	0.000000e+00	5.384614e-01	2.192579e+14	4.775184e+14	1.517145e+14	9.422204e+03	4.937947e+03	2.236335e+03	0	7.702083e-04
1.220000e+09	1.113449e+13	0.000000e+00	5.384614e-01	2.168263e+14	4.733463e+14	1.510686e+14	9.404421e+03	4.933624e+03	2.234377e+03	0	7.663450e-04
1.230000e+09	1.096854e+13	0.000000e+00	5.384614e-01	2.144410e+14	4.692452e+14	1.504269e+14	9.386835e+03	4.929344e+03	2.232439e+03	0	7.625186e-04
1.240000e+09	1.080578e+13	0.000000e+00	5.384614e-01	2.121006e+14	4.652134e+14	1.497895e+14	9.369441e+03	4.925108e+03	2.230520e+03	0	7.587282e-04
1.250000e+09	1.064614e+13	0.000000e+00	5.384614e-01	2.098040e+14	4.612491e+14	1.491562e+14	9.352237e+03	4.920914e+03	2.228621e+03	0	7.549733e-04
1.260000e+09	1.048953e+13	0.000000e+00	5.384614e-01	2.075500e+14	4.573506e+14	1.485272e+14	9.335218e+03	4.916761e+03	2.226740e+03	0	7.512530e-04
1.270000e+09	1.033587e+13	0.000000e+00	5.384614e-01	2.053376e+14	4.535163e+14	1.479023e+14	9.318381e+03	4.912650e+03	2.224878e+03	0	7.475667e-04
1.280000e+09	1.018509e+13	0.000000e+00	5.384614e-01	2.031657e+14	4.497445e+14	1.472815e+14	9.301724e+03	4.908578e+03	2.223034e+03	0	7.439136e-04
1.290000e+09	1.003711e+13	0.000000e+00	5.384614e-01	2.010331e+14	4.460339e+14	1.466648e+14	9.285241e+03	4.904546e+03	2.221208e+03	0	7.402932e-04
1.300000e+09	9.891859e+12	0.000000e+00	5.384614e-01	1.989390e+14	4.423829e+14	1.460521e+14	9.268931e+03	4.900552e+03	2.219400e+03	0	7.367048e-04
1.310000e+09	9.749265e+12	0.000000e+00	5.384614e-01	1.968823e+14	4.387900e+14	1.454435e+14	9.252791e+03	4.896597e+03	2.217608e+03	0	7.331477e-04
1.320000e+09	9.609264e+12	0.000000e+00	5.384614e-01	1.948621e+14	4.352539e+14	1.448388e+14	9.236817e+03	4.892679e+03	2.215834e+03	0	7.296214e-04
1.330000e+09	9.471788e+12	0.000000e+00	5.384614e-01	1.928775e+14	4.317733e+14	1.442381e+14	9.221006e+03	4.888797e+03	2.214076e+03	0	7.261252e-04
1.340000e+09	9.336776e+12	0.000000e+00	5.384614e-01	1.909276e+14	4.283468e+14	1.436413e+14	9.205355e+03	4.884952e+03	2.212334e+03	0	7.226586e-04
1.350000e+09	9.204166e+12	0.000000e+00	5.384614e-01	1.890116e+14	4.249732e+14	1.430484e+14	9.189862e+03	4.881142e+03	2.210609e+03	0	7.192210e-04
1.360000e+09	9.073899e+12	0.000000e+00	5.384614e-01	1.871286e+14	4.216512e+14	1.424594e+14	9.174524e+03	4.877367e+03	2.208899e+03	0	7.158118e-04
