#t		Qconv[W]	Ri[Rp]		R*[Rp]		Qc[W]		Qm[W]		Qr[W]		Tcmb[K]		Tl[K]		Tup[K]		RiFlag		Bs[T]
0.000000e+00	4.795768e+13	0.000000e+00	5.352114e-01	7.385362e+14	1.905937e+15	2.992230e+14	1.293348e+04	4.514346e+03	2.684211e+03	0	1.255828e-03
1.000000e+07	4.650328e+13	0.000000e+00	5.352114e-01	7.189040e+14	1.822468e+15	2.975651e+14	1.287836e+04	4.486397e+03	2.667593e+03	0	1.243002e-03
2.000000e+07	4.512543e+13	0.000000e+00	5.352114e-01	7.002931e+14	1.746945e+15	2.959196e+14	1.282469e+04	4.460415e+03	2.652144e+03	0	1.230603e-03
3.000000e+07	4.381779e+13	0.000000e+00	5.352114e-01	6.826195e+14	1.678287e+15	2.942864e+14	1.277240e+04	4.436183e+03	2.637736e+03	0	1.218599e-03
4.000000e+07	4.257475e+13	0.000000e+00	5.352114e-01	6.658087e+14	1.615598e+15	2.926654e+14	1.272142e+04	4.413517e+03	2.624259e+03	0	1.206965e-03
5.000000e+07	4.139135e+13	0.000000e+00	5.352114e-01	6.497944e+14	1.558129e+15	2.910564e+14	1.267169e+04	4.392258e+03	2.611618e+03	0	1.195677e-03
6.000000e+07	4.026311e+13	0.000000e+00	5.352114e-01	6.345175e+14	1.505248e+15	2.894595e+14	1.262315e+04	4.372267e+03	2.599732e+03	0	1.184713e-03
7.000000e+07	3.918607e+13	0.000000e+00	5.352114e-01	6.199249e+14	1.456422e+15	2.878744e+14	1.257574e+04	4.353425e+03	2.588528e+03	0	1.174054e-03
8.000000e+07	3.815662e+13	0.000000e+00	5.352114e-01	6.059689e+14	1.411193e+15	2.863012e+14	1.252941e+04	4.335624e+03	2.577944e+03	0	1.163681e-03
9.000000e+07	3.717154e+13	0.000000e+00	5.352114e-01	5.926065e+14	1.369172e+15	2.847396e+14	1.248411e+04	4.318773e+03	2.567925e+03	0	1.153580e-03
1.000000e+08	3.622788e+13	0.000000e+00	5.352114e-01	5.797985e+14	1.330022e+15	2.831896e+14	1.243981e+04	4.302789e+03	2.558421e+03	0	1.143734e-03
1.100000e+08	3.532298e+13	0.000000e+00	5.352114e-01	5.675094e+14	1.293450e+15	2.816512e+14	1.239646e+04	4.287600e+03	2.549389e+03	0	1.134131e-03
1.200000e+08	3.445441e+13	0.000000e+00	5.352114e-01	5.557069e+14	1.259204e+15	2.801241e+14	1.235403e+04	4.273140e+03	2.540791e+03	0	1.124758e-03
1.300000e+08	3.361995e+13	0.000000e+00	5.352114e-01	5.443615e+14	1.227060e+15	2.786083e+14	1.231247e+04	4.259351e+03	2.532592e+03	0	1.115603e-03
1.400000e+08	3.281758e+13	0.000000e+00	5.352114e-01	5.334460e+14	1.196826e+15	2.771038e+14	1.227175e+04	4.246182e+03	2.524762e+03	0	1.106657e-03
1.500000e+08	3.204541e+13	0.000000e+00	5.352114e-01	5.229357e+14	1.168328e+15	2.756104e+14	1.223185e+04	4.233585e+03	2.517272e+03	0	1.097908e-03
1.600000e+08	3.130174e+13	0.000000e+00	5.352114e-01	5.128075e+14	1.141415e+15	2.741280e+14	1.219272e+04	4.221519e+03	2.510098e+03	0	1.089349e-03
1.700000e+08	3.058498e+13	0.000000e+00	5.352114e-01	5.030405e+14	1.115952e+15	2.726566e+14	1.215435e+04	4.209947e+03	2.503217e+03	0	1.080970e-03
1.800000e+08	2.989368e+13	0.000000e+00	5.352114e-01	4.936150e+14	1.091821e+15	2.711960e+14	1.211671e+04	4.198832e+03	2.496608e+03	0	1.072763e-03
1.900000e+08	2.922647e+13	0.000000e+00	5.352114e-01	4.845130e+14	1.068913e+15	2.697461e+14	1.207976e+04	4.188145e+03	2.490254e+03	0	1.064722e-03
2.000000e+08	2.858210e+13	0.000000e+00	5.352114e-01	4.757179e+14	1.047134e+15	2.683070e+14	1.204350e+04	4.177856e+03	2.484136e+03	0	1.056839e-03
2.100000e+08	2.795940e+13	0.000000e+00	5.352114e-01	4.672139e+14	1.026396e+15	2.668784e+14	1.200789e+04	4.167940e+03	2.478240e+03	0	1.049108e-03
2.200000e+08	2.735730e+13	0.000000e+00	5.352114e-01	4.589866e+14	1.006623e+15	2.654603e+14	1.197291e+04	4.158374e+03	2.472552e+03	0	1.041522e-03
2.300000e+08	2.677477e+13	0.000000e+00	5.352114e-01	4.510226e+14	9.877438e+14	2.640526e+14	1.193854e+04	4.149135e+03	2.467058e+03	0	1.034076e-03
2.400000e+08	2.621088e+13	0.000000e+00	5.352114e-01	4.433091e+14	9.696960e+14	2.626552e+14	1.190477e+04	4.140203e+03	2.461747e+03	0	1.026765e-03
2.500000e+08	2.566473e+13	0.000000e+00	5.352114e-01	4.358345e+14	9.524219e+14	2.612681e+14	1.187157e+04	4.131560e+03	2.456609e+03	0	1.019584e-03
2.600000e+08	2.513552e+13	0.000000e+00	5.352114e-01	4.285876e+14	9.358692e+14	2.598911e+14	1.183893e+04	4.123190e+03	2.451632e+03	0	1.012527e-03
2.700000e+08	2.462246e+13	0.000000e+00	5.352114e-01	4.215582e+14	9.199904e+14	2.585242e+14	1.180683e+04	4.115077e+03	2.446808e+03	0	1.005591e-03
2.800000e+08	2.412482e+13	0.000000e+00	5.352114e-01	4.147366e+14	9.047419e+14	2.571672e+14	1.177525e+04	4.107206e+03	2.442128e+03	0	9.987698e-04
2.900000e+08	2.364193e+13	0.000000e+00	5.352114e-01	4.081135e+14	8.900841e+14	2.558202e+14	1.174418e+04	4.099564e+03	2.437584e+03	0	9.920609e-04
3.000000e+08	2.317314e+13	0.000000e+00	5.352114e-01	4.016805e+14	8.759805e+14	2.544830e+14	1.171361e+04	4.092140e+03	2.433169e+03	0	9.854600e-04
3.100000e+08	2.271786e+13	0.000000e+00	5.352114e-01	3.954295e+14	8.623976e+14	2.531555e+14	1.168351e+04	4.084921e+03	2.428877e+03	0	9.789635e-04
3.200000e+08	2.227550e+13	0.000000e+00	5.352114e-01	3.893528e+14	8.493047e+14	2.518377e+14	1.165388e+04	4.077896e+03	2.424700e+03	0	9.725678e-04
3.300000e+08	2.184554e+13	0.000000e+00	5.352114e-01	3.834434e+14	8.366735e+14	2.505295e+14	1.162470e+04	4.071057e+03	2.420634e+03	0	9.662696e-04
3.400000e+08	2.142747e+13	0.000000e+00	5.352114e-01	3.776943e+14	8.244777e+14	2.492308e+14	1.159596e+04	4.064394e+03	2.416672e+03	0	9.600658e-04
3.500000e+08	2.102080e+13	0.000000e+00	5.352114e-01	3.720991e+14	8.126932e+14	2.479415e+14	1.156766e+04	4.057898e+03	2.412809e+03	0	9.539534e-04
3.600000e+08	2.062510e+13	0.000000e+00	5.352114e-01	3.666519e+14	8.012976e+14	2.466615e+14	1.153977e+04	4.051561e+03	2.409041e+03	0	9.479295e-04
3.700000e+08	2.023992e+13	0.000000e+00	5.352114e-01	3.613468e+14	7.902702e+14	2.453908e+14	1.151228e+04	4.045376e+03	2.405364e+03	0	9.419914e-04
3.800000e+08	1.986486e+13	0.000000e+00	5.352114e-01	3.561785e+14	7.795916e+14	2.441293e+14	1.148519e+04	4.039336e+03	2.401772e+03	0	9.361365e-04
3.900000e+08	1.949953e+13	0.000000e+00	5.352114e-01	3.511417e+14	7.692439e+14	2.428769e+14	1.145849e+04	4.033434e+03	2.398263e+03	0	9.303623e-04
4.000000e+08	1.914357e+13	0.000000e+00	5.352114e-01	3.462315e+14	7.592106e+14	2.416336e+14	1.143216e+04	4.027664e+03	2.394832e+03	0	9.246664e-04
4.100000e+08	1.879664e+13	0.000000e+00	5.352114e-01	3.414433e+14	7.494760e+14	2.403993e+14	1.140620e+04	4.022020e+03	2.391477e+03	0	9.190464e-04
4.200000e+08	1.845839e+13	0.000000e+00	5.352114e-01	3.367726e+14	7.400256e+14	2.391738e+14	1.138060e+04	4.016498e+03	2.388193e+03	0	9.135003e-04
4.300000e+08	1.812853e+13	0.000000e+00	5.352114e-01	3.322153e+14	7.308459e+14	2.379572e+14	1.135535e+04	4.011091e+03	2.384978e+03	0	9.080258e-04
4.400000e+08	1.780673e+13	0.000000e+00	5.352114e-01	3.277673e+14	7.219242e+14	2.367493e+14	1.133043e+04	4.005795e+03	2.381829e+03	0	9.026211e-04
4.500000e+08	1.749273e+13	0.000000e+00	5.352114e-01	3.234247e+14	7.132487e+14	2.355501e+14	1.130585e+04	4.000605e+03	2.378743e+03	0	8.972840e-04
4.600000e+08	1.718626e+13	0.000000e+00	5.352114e-01	3.191840e+14	7.048082e+14	2.343595e+14	1.128159e+04	3.995518e+03	2.375719e+03	0	8.920129e-04
4.700000e+08	1.688704e+13	0.000000e+00	5.352114e-01	3.150416e+14	6.965922e+14	2.331774e+14	1.125765e+04	3.990529e+03	2.372752e+03	0	8.868058e-04
4.800000e+08	1.659483e+13	0.000000e+00	5.352114e-01	3.109943e+14	6.885910e+14	2.320038e+14	1.123402e+04	3.985634e+03	2.369842e+03	0	8.816611e-04
4.900000e+08	1.630941e+13	0.000000e+00	5.352114e-01	3.070389e+14	6.807954e+14	2.308386e+14	1.121069e+04	3.980830e+03	2.366985e+03	0	8.765770e-04
5.000000e+08	1.603053e+13	0.000000e+00	5.352114e-01	3.031722e+14	6.731966e+14	2.296818e+14	1.118765e+04	3.976113e+03	2.364181e+03	0	8.715521e-04
5.100000e+08	1.575799e+13	0.000000e+00	5.352114e-01	2.993915e+14	6.657865e+14	2.285332e+14	1.116491e+04	3.971481e+03	2.361426e+03	0	8.665847e-04
5.200000e+08	1.549159e+13	0.000000e+00	5.352114e-01	2.956940e+14	6.585573e+14	2.273928e+14	1.114245e+04	3.966929e+03	2.358719e+03	0	8.616734e-04
5.300000e+08	1.523111e+13	0.000000e+00	5.352114e-01	2.920770e+14	6.515018e+14	2.262605e+14	1.112026e+04	3.962455e+03	2.356059e+03	0	8.568167e-04
5.400000e+08	1.497638e+13	0.000000e+00	5.352114e-01	2.885379e+14	6.446131e+14	2.251363e+14	1.109834e+04	3.958057e+03	2.353444e+03	0	8.520132e-04
5.500000e+08	1.472721e+13	0.000000e+00	5.352114e-01	2.850743e+14	6.378847e+14	2.240201e+14	1.107669e+04	3.953731e+03	2.350872e+03	0	8.472617e-04
5.600000e+08	1.448343e+13	0.000000e+00	5.352114e-01	2.816840e+14	6.313105e+14	2.229119e+14	1.105530e+04	3.949476e+03	2.348342e+03	0	8.425607e-04
5.700000e+08	1.424488e+13	0.000000e+00	5.352114e-01	2.783646e+14	6.248845e+14	2.218115e+14	1.103416e+04	3.945288e+03	2.345852e+03	0	8.379092e-04
5.800000e+08	1.401138e+13	0.000000e+00	5.352114e-01	2.751140e+14	6.186013e+14	2.207189e+14	1.101327e+04	3.941166e+03	2.343401e+03	0	8.333058e-04
5.900000e+08	1.378280e+13	0.000000e+00	5.352114e-01	2.719302e+14	6.124556e+14	2.196341e+14	1.099262e+04	3.937108e+03	2.340988e+03	0	8.287494e-04
6.000000e+08	1.355898e+13	0.000000e+00	5.352114e-01	2.688111e+14	6.064425e+14	2.185569e+14	1.097221e+04	3.933111e+03	2.338611e+03	0	8.242388e-04
6.100000e+08	1.333978e+13	0.000000e+00	5.352114e-01	2.657549e+14	6.005573e+14	2.174874e+14	1.095203e+04	3.929173e+03	2.336270e+03	0	8.197730e-04
6.200000e+08	1.312507e+13	0.000000e+00	5.352114e-01	2.627597e+14	5.947953e+14	2.164254e+14	1.093208e+04	3.925293e+03	2.333963e+03	0	8.153509e-04
6.300000e+08	1.291471e+13	0.000000e+00	5.352114e-01	2.598238e+14	5.891525e+14	2.153709e+14	1.091236e+04	3.921468e+03	2.331689e+03	0	8.109715e-04
6.400000e+08	1.270858e+13	0.000000e+00	5.352114e-01	2.569454e+14	5.836247e+14	2.143238e+14	1.089285e+04	3.917698e+03	2.329447e+03	0	8.066338e-04
6.500000e+08	1.250656e+13	0.000000e+00	5.352114e-01	2.541231e+14	5.782080e+14	2.132842e+14	1.087357e+04	3.913980e+03	2.327236e+03	0	8.023368e-04
6.600000e+08	1.230854e+13	0.000000e+00	5.352114e-01	2.513551e+14	5.728987e+14	2.122518e+14	1.085449e+04	3.910313e+03	2.325056e+03	0	7.980795e-04
6.700000e+08	1.211439e+13	0.000000e+00	5.352114e-01	2.486399e+14	5.676933e+14	2.112267e+14	1.083562e+04	3.906696e+03	2.322905e+03	0	7.938611e-04
6.800000e+08	1.192401e+13	0.000000e+00	5.352114e-01	2.459762e+14	5.625886e+14	2.102088e+14	1.081695e+04	3.903126e+03	2.320783e+03	0	7.896807e-04
6.900000e+08	1.173731e+13	0.000000e+00	5.352114e-01	2.433625e+14	5.575811e+14	2.091980e+14	1.079848e+04	3.899603e+03	2.318688e+03	0	7.855374e-04
7.000000e+08	1.155417e+13	0.000000e+00	5.352114e-01	2.407975e+14	5.526680e+14	2.081944e+14	1.078020e+04	3.896126e+03	2.316620e+03	0	7.814304e-04
7.100000e+08	1.137451e+13	0.000000e+00	5.352114e-01	2.382798e+14	5.478461e+14	2.071977e+14	1.076212e+04	3.892692e+03	2.314578e+03	0	7.773589e-04
7.200000e+08	1.119822e+13	0.000000e+00	5.352114e-01	2.358082e+14	5.431129e+14	2.062080e+14	1.074423e+04	3.889301e+03	2.312562e+03	0	7.733220e-04
7.300000e+08	1.102522e+13	0.000000e+00	5.352114e-01	2.333815e+14	5.384655e+14	2.052253e+14	1.072652e+04	3.885952e+03	2.310571e+03	0	7.693190e-04
7.400000e+08	1.085542e+13	0.000000e+00	5.352114e-01	2.309985e+14	5.339014e+14	2.042494e+14	1.070899e+04	3.882644e+03	2.308604e+03	0	7.653492e-04
7.500000e+08	1.068875e+13	0.000000e+00	5.352114e-01	2.286581e+14	5.294182e+14	2.032803e+14	1.069165e+04	3.879375e+03	2.306660e+03	0	7.614119e-04
7.600000e+08	1.052511e+13	0.000000e+00	5.352114e-01	2.263592e+14	5.250134e+14	2.023179e+14	1.067447e+04	3.876144e+03	2.304739e+03	0	7.575062e-04
7.700000e+08	1.036442e+13	0.000000e+00	5.352114e-01	2.241008e+14	5.206848e+14	2.013623e+14	1.065747e+04	3.872951e+03	2.302841e+03	0	7.536316e-04
7.800000e+08	1.020663e+13	0.000000e+00	5.352114e-01	2.218817e+14	5.164303e+14	2.004133e+14	1.064064e+04	3.869795e+03	2.300964e+03	0	7.497873e-04
7.900000e+08	1.005164e+13	0.000000e+00	5.352114e-01	2.197011e+14	5.122478e+14	1.994709e+14	1.062397e+04	3.866674e+03	2.299109e+03	0	7.459728e-04
8.000000e+08	9.899389e+12	0.000000e+00	5.352114e-01	2.175579e+14	5.081352e+14	1.985350e+14	1.060747e+04	3.863588e+03	2.297274e+03	0	7.421873e-04
8.100000e+08	9.749813e+12	0.000000e+00	5.352114e-01	2.154513e+14	5.040906e+14	1.976056e+14	1.059113e+04	3.860536e+03	2.295459e+03	0	7.384302e-04
8.200000e+08	9.602842e+12	0.000000e+00	5.352114e-01	2.133804e+14	5.001123e+14	1.966826e+14	1.057494e+04	3.857517e+03	2.293664e+03	0	7.347010e-04
8.300000e+08	9.458412e+12	0.000000e+00	5.352114e-01	2.113442e+14	4.961983e+14	1.957660e+14	1.055891e+04	3.854531e+03	2.291888e+03	0	7.309990e-04
8.400000e+08	9.316462e+12	0.000000e+00	5.352114e-01	2.093420e+14	4.923471e+14	1.948558e+14	1.054304e+04	3.851576e+03	2.290131e+03	0	7.273237e-04
8.500000e+08	9.176932e+12	0.000000e+00	5.352114e-01	2.073729e+14	4.885569e+14	1.939518e+14	1.052731e+04	3.848651e+03	2.288392e+03	0	7.236744e-04
8.600000e+08	9.039763e+12	0.000000e+00	5.352114e-01	2.054362e+14	4.848262e+14	1.930541e+14	1.051173e+04	3.845757e+03	2.286671e+03	0	7.200507e-04
8.700000e+08	8.904899e+12	0.000000e+00	5.352114e-01	2.035310e+14	4.811534e+14	1.921625e+14	1.049630e+04	3.842893e+03	2.284968e+03	0	7.164519e-04
8.800000e+08	8.772286e+12	0.000000e+00	5.352114e-01	2.016568e+14	4.775371e+14	1.912771e+14	1.048100e+04	3.840057e+03	2.283282e+03	0	7.128776e-04
8.900000e+08	8.641871e+12	0.000000e+00	5.352114e-01	1.998126e+14	4.739759e+14	1.903977e+14	1.046585e+04	3.837249e+03	2.281612e+03	0	7.093272e-04
9.000000e+08	8.513603e+12	0.000000e+00	5.352114e-01	1.979979e+14	4.704683e+14	1.895244e+14	1.045084e+04	3.834469e+03	2.279959e+03	0	7.058003e-04
9.100000e+08	8.387432e+12	0.000000e+00	5.352114e-01	1.962120e+14	4.670131e+14	1.886571e+14	1.043596e+04	3.831715e+03	2.278322e+03	0	7.022963e-04
9.200000e+08	8.263310e+12	0.000000e+00	5.352114e-01	1.944542e+14	4.636090e+14	1.877957e+14	1.042122e+04	3.828988e+03	2.276701e+03	0	6.988147e-04
9.300000e+08	8.141190e+12	0.000000e+00	5.352114e-01	1.927238e+14	4.602548e+14	1.869402e+14	1.040661e+04	3.826287e+03	2.275095e+03	0	6.953551e-04
9.400000e+08	8.021026e+12	0.000000e+00	5.352114e-01	1.910204e+14	4.569492e+14	1.860906e+14	1.039212e+04	3.823611e+03	2.273504e+03	0	6.919170e-04
9.500000e+08	7.902776e+12	0.000000e+00	5.352114e-01	1.893432e+14	4.536911e+14	1.852467e+14	1.037777e+04	3.820960e+03	2.271927e+03	0	6.885000e-04
9.600000e+08	7.786396e+12	0.000000e+00	5.352114e-01	1.876917e+14	4.504795e+14	1.844086e+14	1.036354e+04	3.818333e+03	2.270365e+03	0	6.851035e-04
9.700000e+08	7.671844e+12	0.000000e+00	5.352114e-01	1.860653e+14	4.473132e+14	1.835762e+14	1.034943e+04	3.815730e+03	2.268817e+03	0	6.817272e-04
9.800000e+08	7.559081e+12	0.000000e+00	5.352114e-01	1.844635e+14	4.441912e+14	1.827495e+14	1.033545e+04	3.813150e+03	2.267283e+03	0	6.783706e-04
9.900000e+08	7.448067e+12	0.000000e+00	5.352114e-01	1.828858e+14	4.411125e+14	1.819284e+14	1.032159e+04	3.810593e+03	2.265763e+03	0	6.750334e-04
1.000000e+09	7.338764e+12	0.000000e+00	5.352114e-01	1.813316e+14	4.380762e+14	1.811129e+14	1.030784e+04	3.808059e+03	2.264256e+03	0	6.717149e-04
1.010000e+09	7.231135e+12	0.000000e+00	5.352114e-01	1.798005e+14	4.350812e+14	1.803029e+14	1.029421e+04	3.805546e+03	2.262762e+03	0	6.684150e-04
1.020000e+09	7.125144e+12	0.000000e+00	5.352114e-01	1.782918e+14	4.321267e+14	1.794984e+14	1.028070e+04	3.803055e+03	2.261281e+03	0	6.651332e-04
1.030000e+09	7.020757e+12	0.000000e+00	5.352114e-01	1.768053e+14	4.292118e+14	1.786993e+14	1.026730e+04	3.800584e+03	2.259812e+03	0	6.618690e-04
1.040000e+09	6.917939e+12	0.000000e+00	5.352114e-01	1.753404e+14	4.263356e+14	1.779057e+14	1.025401e+04	3.798135e+03	2.258355e+03	0	6.586221e-04
1.050000e+09	6.816658e+12	0.000000e+00	5.352114e-01	1.738966e+14	4.234973e+14	1.771174e+14	1.024083e+04	3.795706e+03	2.256911e+03	0	6.553921e-04
1.060000e+09	6.716881e+12	0.000000e+00	5.352114e-01	1.724736e+14	4.206961e+14	1.763344e+14	1.022776e+04	3.793297e+03	2.255479e+03	0	6.521787e-04
1.070000e+09	6.618577e+12	0.000000e+00	5.352114e-01	1.710708e+14	4.179313e+14	1.755567e+14	1.021479e+04	3.790907e+03	2.254058e+03	0	6.489814e-04
1.080000e+09	6.521715e+12	0.000000e+00	5.352114e-01	1.696880e+14	4.152020e+14	1.747842e+14	1.020193e+04	3.788537e+03	2.252648e+03	0	6.457999e-04
1.090000e+09	6.426267e+12	0.000000e+00	5.352114e-01	1.683246e+14	4.125076e+14	1.740169e+14	1.018918e+04	3.786186e+03	2.251250e+03	0	6.426339e-04
1.100000e+09	6.332203e+12	0.000000e+00	5.352114e-01	1.669803e+14	4.098472e+14	1.732548e+14	1.017652e+04	3.783853e+03	2.249863e+03	0	6.394830e-04
1.110000e+09	6.239495e+12	0.000000e+00	5.352114e-01	1.656547e+14	4.072203e+14	1.724977e+14	1.016397e+04	3.781538e+03	2.248487e+03	0	6.363468e-04
1.120000e+09	6.148115e+12	0.000000e+00	5.352114e-01	1.643475e+14	4.046262e+14	1.717458e+14	1.015152e+04	3.779242e+03	2.247121e+03	0	6.332250e-04
1.130000e+09	6.058039e+12	0.000000e+00	5.352114e-01	1.630583e+14	4.020642e+14	1.709989e+14	1.013916e+04	3.776963e+03	2.245766e+03	0	6.301173e-04
1.140000e+09	5.969238e+12	0.000000e+00	5.352114e-01	1.617866e+14	3.995336e+14	1.702569e+14	1.012690e+04	3.774701e+03	2.244422e+03	0	6.270233e-04
1.150000e+09	5.881688e+12	0.000000e+00	5.352114e-01	1.605323e+14	3.970339e+14	1.695200e+14	1.011474e+04	3.772456e+03	2.243087e+03	0	6.239427e-04
1.160000e+09	5.795365e+12	0.000000e+00	5.352114e-01	1.592949e+14	3.945644e+14	1.687879e+14	1.010267e+04	3.770228e+03	2.241762e+03	0	6.208752e-04
1.170000e+09	5.710245e+12	0.000000e+00	5.352114e-01	1.580741e+14	3.921246e+14	1.680607e+14	1.009069e+04	3.768017e+03	2.240447e+03	0	6.178205e-04
1.180000e+09	5.626303e+12	0.000000e+00	5.352114e-01	1.568696e+14	3.897139e+14	1.673384e+14	1.007881e+04	3.765822e+03	2.239142e+03	0	6.147782e-04
1.190000e+09	5.543518e+12	0.000000e+00	5.352114e-01	1.556811e+14	3.873318e+14	1.666209e+14	1.006701e+04	3.763643e+03	2.237846e+03	0	6.117480e-04
1.200000e+09	5.461867e+12	0.000000e+00	5.352114e-01	1.545083e+14	3.849777e+14	1.659081e+14	1.005531e+04	3.761479e+03	2.236560e+03	0	6.087296e-04
1.210000e+09	5.381329e+12	0.000000e+00	5.352114e-01	1.533509e+14	3.826510e+14	1.652000e+14	1.004369e+04	3.759331e+03	2.235283e+03	0	6.057228e-04
1.220000e+09	5.301882e+12	0.000000e+00	5.352114e-01	1.522086e+14	3.803514e+14	1.644967e+14	1.003216e+04	3.757198e+03	2.234014e+03	0	6.027271e-04
1.230000e+09	5.223506e+12	0.000000e+00	5.352114e-01	1.510812e+14	3.780783e+14	1.637980e+14	1.002071e+04	3.755080e+03	2.232755e+03	0	5.997424e-04
1.240000e+09	5.146180e+12	0.000000e+00	5.352114e-01	1.499682e+14	3.758311e+14	1.631039e+14	1.000935e+04	3.752977e+03	2.231505e+03	0	5.967683e-04
1.250000e+09	5.069886e+12	0.000000e+00	5.352114e-01	1.488696e+14	3.736095e+14	1.624144e+14	9.998073e+03	3.750889e+03	2.230263e+03	0	5.938044e-04
1.260000e+09	4.994603e+12	0.000000e+00	5.352114e-01	1.477850e+14	3.714130e+14	1.617294e+14	9.986878e+03	3.748814e+03	2.229029e+03	0	5.908506e-04
1.270000e+09	4.920314e+12	0.000000e+00	5.352114e-01	1.467141e+14	3.692411e+14	1.610490e+14	9.975765e+03	3.746754e+03	2.227804e+03	0	5.879066e-04
1.280000e+09	4.847000e+12	0.000000e+00	5.352114e-01	1.456568e+14	3.670934e+14	1.603730e+14	9.964732e+03	3.744708e+03	2.226588e+03	0	5.849720e-04
1.290000e+09	4.774643e+12	0.000000e+00	5.352114e-01	1.446127e+14	3.649695e+14	1.597015e+14	9.953778e+03	3.742675e+03	2.225379e+03	0	5.820465e-04
1.300000e+09	4.703226e+12	0.000000e+00	5.352114e-01	1.435817e+14	3.628690e+14	1.590343e+14	9.942902e+03	3.740656e+03	2.224178e+03	0	5.791299e-04
1.310000e+09	4.632731e+12	0.000000e+00	5.352114e-01	1.425634e+14	3.607914e+14	1.583716e+14	9.932104e+03	3.738650e+03	2.222986e+03	0	5.762219e-04
1.320000e+09	4.563143e+12	0.000000e+00	5.352114e-01	1.415578e+14	3.587364e+14	1.577132e+14	9.921382e+03	3.736657e+03	2.221801e+03	0	5.733222e-04
1.330000e+09	4.494445e+12	0.000000e+00	5.352114e-01	1.405645e+14	3.567036e+14	1.570591e+14	9.910736e+03	3.734677e+03	2.220624e+03	0	5.704305e-04
1.340000e+09	4.426621e+12	0.000000e+00	5.352114e-01	1.395833e+14	3.546925e+14	1.564093e+14	9.900164e+03	3.732710e+03	2.219454e+03	0	5.675466e-04
1.350000e+09	4.359656e+12	0.000000e+00	5.352114e-01	1.386141e+14	3.527030e+14	1.557637e+14	9.889666e+03	3.730755e+03	2.218292e+03	0	5.646701e-04
1.360000e+09	4.293535e+12	0.000000e+00	5.352114e-01	1.376566e+14	3.507345e+14	1.551223e+14	9.879240e+03	3.728813e+03	2.217137e+03	0	5.618008e-04
