#t		Qconv[W]	Ri[Rp]		R*[Rp]		Qc[W]		Qm[W]		Qr[W]		Tcmb[K]		Tl[K]		Tup[K]		RiFlag		Bs[T]
0.000000e+00	3.406478e+14	0.000000e+00	5.460992e-01	4.141527e+15	2.934404e+15	3.389553e+14	1.876189e+04	5.284653e+03	2.727311e+03	0	2.356736e-03
1.000000e+07	3.229100e+14	0.000000e+00	5.460992e-01	3.934374e+15	3.046039e+15	3.370773e+14	1.852049e+04	5.330535e+03	2.750990e+03	0	2.315099e-03
2.000000e+07	3.063643e+14	0.000000e+00	5.460992e-01	3.741092e+15	3.126179e+15	3.352133e+14	1.829096e+04	5.366861e+03	2.769737e+03	0	2.274863e-03
3.000000e+07	2.909334e+14	0.000000e+00	5.460992e-01	3.560781e+15	3.178486e+15	3.333632e+14	1.807251e+04	5.395006e+03	2.784262e+03	0	2.236009e-03
4.000000e+07	2.765416e+14	0.000000e+00	5.460992e-01	3.392563e+15	3.206820e+15	3.315269e+14	1.786441e+04	5.416195e+03	2.795198e+03	0	2.198514e-03
5.000000e+07	2.631157e+14	0.000000e+00	5.460992e-01	3.235586e+15	3.214949e+15	3.297043e+14	1.766599e+04	5.431506e+03	2.803099e+03	0	2.162344e-03
6.000000e+07	2.505858e+14	0.000000e+00	5.460992e-01	3.089035e+15	3.206376e+15	3.278953e+14	1.747660e+04	5.441872e+03	2.808449e+03	0	2.127459e-03
7.000000e+07	2.388853e+14	0.000000e+00	5.460992e-01	2.952138e+15	3.184242e+15	3.260998e+14	1.729566e+04	5.448097e+03	2.811662e+03	0	2.093818e-03
8.000000e+07	2.279517e+14	0.000000e+00	5.460992e-01	2.824169e+15	3.151291e+15	3.243176e+14	1.712262e+04	5.450868e+03	2.813092e+03	0	2.061374e-03
9.000000e+07	2.177268e+14	0.000000e+00	5.460992e-01	2.704449e+15	3.109879e+15	3.225487e+14	1.695698e+04	5.450767e+03	2.813040e+03	0	2.030080e-03
1.000000e+08	2.081562e+14	0.000000e+00	5.460992e-01	2.592348e+15	3.061991e+15	3.207929e+14	1.679826e+04	5.448287e+03	2.811760e+03	0	1.999887e-03
1.100000e+08	1.991896e+14	0.000000e+00	5.460992e-01	2.487281e+15	3.009283e+15	3.190502e+14	1.664603e+04	5.443843e+03	2.809467e+03	0	1.970749e-03
1.200000e+08	1.907808e+14	0.000000e+00	5.460992e-01	2.388711e+15	2.953119e+15	3.173204e+14	1.649988e+04	5.437786e+03	2.806341e+03	0	1.942618e-03
1.300000e+08	1.828871e+14	0.000000e+00	5.460992e-01	2.296142e+15	2.894613e+15	3.156033e+14	1.635946e+04	5.430410e+03	2.802534e+03	0	1.915447e-03
1.400000e+08	1.754693e+14	0.000000e+00	5.460992e-01	2.209118e+15	2.834667e+15	3.138990e+14	1.622440e+04	5.421960e+03	2.798173e+03	0	1.889192e-03
1.500000e+08	1.684915e+14	0.000000e+00	5.460992e-01	2.127222e+15	2.774003e+15	3.122073e+14	1.609440e+04	5.412645e+03	2.793366e+03	0	1.863811e-03
1.600000e+08	1.619208e+14	0.000000e+00	5.460992e-01	2.050071e+15	2.713198e+15	3.105281e+14	1.596916e+04	5.402636e+03	2.788200e+03	0	1.839261e-03
1.700000e+08	1.557269e+14	0.000000e+00	5.460992e-01	1.977314e+15	2.652704e+15	3.088612e+14	1.584841e+04	5.392080e+03	2.782753e+03	0	1.815503e-03
1.800000e+08	1.498823e+14	0.000000e+00	5.460992e-01	1.908630e+15	2.592874e+15	3.072067e+14	1.573190e+04	5.381099e+03	2.777085e+03	0	1.792500e-03
1.900000e+08	1.443617e+14	0.000000e+00	5.460992e-01	1.843724e+15	2.533979e+15	3.055643e+14	1.561939e+04	5.369793e+03	2.771250e+03	0	1.770217e-03
2.000000e+08	1.391417e+14	0.000000e+00	5.460992e-01	1.782327e+15	2.476222e+15	3.039341e+14	1.551066e+04	5.358248e+03	2.765292e+03	0	1.748618e-03
2.100000e+08	1.342013e+14	0.000000e+00	5.460992e-01	1.724191e+15	2.419756e+15	3.023158e+14	1.540551e+04	5.346536e+03	2.759248e+03	0	1.727672e-03
2.200000e+08	1.295208e+14	0.000000e+00	5.460992e-01	1.669090e+15	2.364685e+15	3.007094e+14	1.530376e+04	5.334716e+03	2.753148e+03	0	1.707349e-03
2.300000e+08	1.250825e+14	0.000000e+00	5.460992e-01	1.616815e+15	2.311084e+15	2.991148e+14	1.520523e+04	5.322837e+03	2.747017e+03	0	1.687620e-03
2.400000e+08	1.208698e+14	0.000000e+00	5.460992e-01	1.567176e+15	2.258995e+15	2.975318e+14	1.510974e+04	5.310941e+03	2.740878e+03	0	1.668457e-03
2.500000e+08	1.168677e+14	0.000000e+00	5.460992e-01	1.519996e+15	2.208442e+15	2.959605e+14	1.501717e+04	5.299063e+03	2.734748e+03	0	1.649835e-03
2.600000e+08	1.130623e+14	0.000000e+00	5.460992e-01	1.475114e+15	2.159429e+15	2.944007e+14	1.492735e+04	5.287230e+03	2.728641e+03	0	1.631730e-03
2.700000e+08	1.094407e+14	0.000000e+00	5.460992e-01	1.432382e+15	2.111948e+15	2.928523e+14	1.484016e+04	5.275466e+03	2.722570e+03	0	1.614119e-03
2.800000e+08	1.059913e+14	0.000000e+00	5.460992e-01	1.391661e+15	2.065980e+15	2.913152e+14	1.475547e+04	5.263791e+03	2.716545e+03	0	1.596979e-03
2.900000e+08	1.027031e+14	0.000000e+00	5.460992e-01	1.352825e+15	2.021498e+15	2.897893e+14	1.467316e+04	5.252220e+03	2.710573e+03	0	1.580291e-03
3.000000e+08	9.956614e+13	0.000000e+00	5.460992e-01	1.315758e+15	1.978469e+15	2.882745e+14	1.459313e+04	5.240765e+03	2.704662e+03	0	1.564035e-03
3.100000e+08	9.657108e+13	0.000000e+00	5.460992e-01	1.280351e+15	1.936855e+15	2.867708e+14	1.451528e+04	5.229439e+03	2.698816e+03	0	1.548192e-03
3.200000e+08	9.370936e+13	0.000000e+00	5.460992e-01	1.246505e+15	1.896617e+15	2.852780e+14	1.443950e+04	5.218247e+03	2.693040e+03	0	1.532746e-03
3.300000e+08	9.097303e+13	0.000000e+00	5.460992e-01	1.214126e+15	1.857711e+15	2.837960e+14	1.436570e+04	5.207197e+03	2.687338e+03	0	1.517679e-03
3.400000e+08	8.835474e+13	0.000000e+00	5.460992e-01	1.183129e+15	1.820094e+15	2.823248e+14	1.429381e+04	5.196294e+03	2.681711e+03	0	1.502977e-03
3.500000e+08	8.584763e+13	0.000000e+00	5.460992e-01	1.153434e+15	1.783722e+15	2.808643e+14	1.422374e+04	5.185540e+03	2.676161e+03	0	1.488625e-03
3.600000e+08	8.344537e+13	0.000000e+00	5.460992e-01	1.124967e+15	1.748550e+15	2.794144e+14	1.415541e+04	5.174939e+03	2.670690e+03	0	1.474608e-03
3.700000e+08	8.114204e+13	0.000000e+00	5.460992e-01	1.097659e+15	1.714534e+15	2.779750e+14	1.408876e+04	5.164491e+03	2.665298e+03	0	1.460913e-03
3.800000e+08	7.893216e+13	0.000000e+00	5.460992e-01	1.071446e+15	1.681631e+15	2.765460e+14	1.402371e+04	5.154198e+03	2.659986e+03	0	1.447528e-03
3.900000e+08	7.681061e+13	0.000000e+00	5.460992e-01	1.046269e+15	1.649798e+15	2.751273e+14	1.396020e+04	5.144060e+03	2.654754e+03	0	1.434442e-03
4.000000e+08	7.477263e+13	0.000000e+00	5.460992e-01	1.022072e+15	1.618995e+15	2.737189e+14	1.389817e+04	5.134076e+03	2.649601e+03	0	1.421641e-03
4.100000e+08	7.281375e+13	0.000000e+00	5.460992e-01	9.988028e+14	1.589180e+15	2.723206e+14	1.383756e+04	5.124245e+03	2.644528e+03	0	1.409117e-03
4.200000e+08	7.092983e+13	0.000000e+00	5.460992e-01	9.764130e+14	1.560315e+15	2.709325e+14	1.377833e+04	5.114566e+03	2.639533e+03	0	1.396857e-03
4.300000e+08	6.911698e+13	0.000000e+00	5.460992e-01	9.548572e+14	1.532362e+15	2.695543e+14	1.372041e+04	5.105038e+03	2.634615e+03	0	1.384854e-03
4.400000e+08	6.737157e+13	0.000000e+00	5.460992e-01	9.340930e+14	1.505286e+15	2.681860e+14	1.366376e+04	5.095658e+03	2.629775e+03	0	1.373097e-03
4.500000e+08	6.569019e+13	0.000000e+00	5.460992e-01	9.140807e+14	1.479050e+15	2.668275e+14	1.360834e+04	5.086425e+03	2.625010e+03	0	1.361578e-03
4.600000e+08	6.406965e+13	0.000000e+00	5.460992e-01	8.947830e+14	1.453622e+15	2.654789e+14	1.355409e+04	5.077336e+03	2.620319e+03	0	1.350288e-03
4.700000e+08	6.250695e+13	0.000000e+00	5.460992e-01	8.761650e+14	1.428970e+15	2.641398e+14	1.350099e+04	5.068390e+03	2.615702e+03	0	1.339220e-03
4.800000e+08	6.099931e+13	0.000000e+00	5.460992e-01	8.581938e+14	1.405062e+15	2.628104e+14	1.344898e+04	5.059583e+03	2.611157e+03	0	1.328365e-03
4.900000e+08	5.954406e+13	0.000000e+00	5.460992e-01	8.408386e+14	1.381870e+15	2.614905e+14	1.339802e+04	5.050913e+03	2.606683e+03	0	1.317716e-03
5.000000e+08	5.813874e+13	0.000000e+00	5.460992e-01	8.240704e+14	1.359364e+15	2.601800e+14	1.334810e+04	5.042378e+03	2.602278e+03	0	1.307267e-03
5.100000e+08	5.678101e+13	0.000000e+00	5.460992e-01	8.078620e+14	1.337518e+15	2.588789e+14	1.329916e+04	5.033975e+03	2.597941e+03	0	1.297010e-03
5.200000e+08	5.546867e+13	0.000000e+00	5.460992e-01	7.921876e+14	1.316307e+15	2.575871e+14	1.325118e+04	5.025702e+03	2.593671e+03	0	1.286940e-03
5.300000e+08	5.419966e+13	0.000000e+00	5.460992e-01	7.770231e+14	1.295704e+15	2.563045e+14	1.320412e+04	5.017555e+03	2.589467e+03	0	1.277050e-03
5.400000e+08	5.297202e+13	0.000000e+00	5.460992e-01	7.623456e+14	1.275688e+15	2.550310e+14	1.315796e+04	5.009533e+03	2.585327e+03	0	1.267335e-03
5.500000e+08	5.178392e+13	0.000000e+00	5.460992e-01	7.481335e+14	1.256235e+15	2.537666e+14	1.311266e+04	5.001632e+03	2.581250e+03	0	1.257788e-03
5.600000e+08	5.063360e+13	0.000000e+00	5.460992e-01	7.343666e+14	1.237323e+15	2.525112e+14	1.306820e+04	4.993851e+03	2.577234e+03	0	1.248405e-03
5.700000e+08	4.951944e+13	0.000000e+00	5.460992e-01	7.210256e+14	1.218933e+15	2.512647e+14	1.302456e+04	4.986186e+03	2.573278e+03	0	1.239180e-03
5.800000e+08	4.843987e+13	0.000000e+00	5.460992e-01	7.080923e+14	1.201044e+15	2.500270e+14	1.298171e+04	4.978635e+03	2.569381e+03	0	1.230109e-03
5.900000e+08	4.739343e+13	0.000000e+00	5.460992e-01	6.955495e+14	1.183638e+15	2.487981e+14	1.293962e+04	4.971195e+03	2.565542e+03	0	1.221186e-03
6.000000e+08	4.637872e+13	0.000000e+00	5.460992e-01	6.833809e+14	1.166696e+15	2.475779e+14	1.289827e+04	4.963865e+03	2.561759e+03	0	1.212408e-03
6.100000e+08	4.539444e+13	0.000000e+00	5.460992e-01	6.715711e+14	1.150202e+15	2.463664e+14	1.285763e+04	4.956641e+03	2.558031e+03	0	1.203770e-03
6.200000e+08	4.443933e+13	0.000000e+00	5.460992e-01	6.601054e+14	1.134139e+15	2.451634e+14	1.281770e+04	4.949522e+03	2.554357e+03	0	1.195267e-03
6.300000e+08	4.351220e+13	0.000000e+00	5.460992e-01	6.489701e+14	1.118492e+15	2.439689e+14	1.277845e+04	4.942505e+03	2.550735e+03	0	1.186896e-03
6.400000e+08	4.261194e+13	0.000000e+00	5.460992e-01	6.381518e+14	1.103245e+15	2.427828e+14	1.273985e+04	4.935588e+03	2.547165e+03	0	1.178654e-03
6.500000e+08	4.173748e+13	0.000000e+00	5.460992e-01	6.276382e+14	1.088384e+15	2.416051e+14	1.270190e+04	4.928768e+03	2.543646e+03	0	1.170535e-03
6.600000e+08	4.088779e+13	0.000000e+00	5.460992e-01	6.174173e+14	1.073896e+15	2.404356e+14	1.266456e+04	4.922044e+03	2.540176e+03	0	1.162538e-03
6.700000e+08	4.006193e+13	0.000000e+00	5.460992e-01	6.074778e+14	1.059767e+15	2.392744e+14	1.262783e+04	4.915414e+03	2.536754e+03	0	1.154657e-03
6.800000e+08	3.925898e+13	0.000000e+00	5.460992e-01	5.978090e+14	1.045984e+15	2.381214e+14	1.259169e+04	4.908874e+03	2.533379e+03	0	1.146891e-03
6.900000e+08	3.847805e+13	0.000000e+00	5.460992e-01	5.884006e+14	1.032537e+15	2.369764e+14	1.255612e+04	4.902424e+03	2.530050e+03	0	1.139235e-03
7.000000e+08	3.771833e+13	0.000000e+00	5.460992e-01	5.792430e+14	1.019413e+15	2.358394e+14	1.252111e+04	4.896062e+03	2.526767e+03	0	1.131688e-03
7.100000e+08	3.697902e+13	0.000000e+00	5.460992e-01	5.703269e+14	1.006602e+15	2.347104e+14	1.248664e+04	4.889784e+03	2.523527e+03	0	1.124245e-03
7.200000e+08	3.625937e+13	0.000000e+00	5.460992e-01	5.616433e+14	9.940917e+14	2.335894e+14	1.245269e+04	4.883591e+03	2.520331e+03	0	1.116904e-03
7.300000e+08	3.555866e+13	0.000000e+00	5.460992e-01	5.531839e+14	9.818735e+14	2.324761e+14	1.241927e+04	4.877479e+03	2.517176e+03	0	1.109663e-03
7.400000e+08	3.487621e+13	0.000000e+00	5.460992e-01	5.449407e+14	9.699374e+14	2.313706e+14	1.238634e+04	4.871447e+03	2.514063e+03	0	1.102518e-03
7.500000e+08	3.421137e+13	0.000000e+00	5.460992e-01	5.369059e+14	9.582740e+14	2.302728e+14	1.235390e+04	4.865493e+03	2.510991e+03	0	1.095467e-03
7.600000e+08	3.356350e+13	0.000000e+00	5.460992e-01	5.290722e+14	9.468745e+14	2.291827e+14	1.232194e+04	4.859616e+03	2.507958e+03	0	1.088508e-03
7.700000e+08	3.293201e+13	0.000000e+00	5.460992e-01	5.214326e+14	9.357303e+14	2.281002e+14	1.229044e+04	4.853814e+03	2.504963e+03	0	1.081638e-03
7.800000e+08	3.231634e+13	0.000000e+00	5.460992e-01	5.139805e+14	9.248332e+14	2.270251e+14	1.225939e+04	4.848085e+03	2.502007e+03	0	1.074855e-03
7.900000e+08	3.171594e+13	0.000000e+00	5.460992e-01	5.067094e+14	9.141754e+14	2.259576e+14	1.222878e+04	4.842428e+03	2.499087e+03	0	1.068157e-03
8.000000e+08	3.113028e+13	0.000000e+00	5.460992e-01	4.996132e+14	9.037494e+14	2.248974e+14	1.219861e+04	4.836842e+03	2.496204e+03	0	1.061541e-03
8.100000e+08	3.055888e+13	0.000000e+00	5.460992e-01	4.926860e+14	8.935479e+14	2.238446e+14	1.216886e+04	4.831324e+03	2.493357e+03	0	1.055006e-03
8.200000e+08	3.000125e+13	0.000000e+00	5.460992e-01	4.859223e+14	8.835639e+14	2.227991e+14	1.213951e+04	4.825873e+03	2.490544e+03	0	1.048549e-03
8.300000e+08	2.945694e+13	0.000000e+00	5.460992e-01	4.793166e+14	8.737908e+14	2.217608e+14	1.211057e+04	4.820489e+03	2.487765e+03	0	1.042169e-03
8.400000e+08	2.892550e+13	0.000000e+00	5.460992e-01	4.728638e+14	8.642221e+14	2.207297e+14	1.208202e+04	4.815169e+03	2.485019e+03	0	1.035864e-03
8.500000e+08	2.840652e+13	0.000000e+00	5.460992e-01	4.665590e+14	8.548518e+14	2.197057e+14	1.205385e+04	4.809912e+03	2.482306e+03	0	1.029631e-03
8.600000e+08	2.789960e+13	0.000000e+00	5.460992e-01	4.603975e+14	8.456737e+14	2.186887e+14	1.202606e+04	4.804718e+03	2.479626e+03	0	1.023470e-03
8.700000e+08	2.740436e+13	0.000000e+00	5.460992e-01	4.543746e+14	8.366823e+14	2.176788e+14	1.199863e+04	4.799584e+03	2.476976e+03	0	1.017378e-03
8.800000e+08	2.692041e+13	0.000000e+00	5.460992e-01	4.484861e+14	8.278719e+14	2.166758e+14	1.197156e+04	4.794509e+03	2.474357e+03	0	1.011354e-03
8.900000e+08	2.644741e+13	0.000000e+00	5.460992e-01	4.427277e+14	8.192375e+14	2.156797e+14	1.194484e+04	4.789493e+03	2.471769e+03	0	1.005395e-03
9.000000e+08	2.598502e+13	0.000000e+00	5.460992e-01	4.370955e+14	8.107737e+14	2.146904e+14	1.191846e+04	4.784534e+03	2.469209e+03	0	9.995015e-04
9.100000e+08	2.553290e+13	0.000000e+00	5.460992e-01	4.315855e+14	8.024758e+14	2.137079e+14	1.189241e+04	4.779632e+03	2.466679e+03	0	9.936708e-04
9.200000e+08	2.509075e+13	0.000000e+00	5.460992e-01	4.261941e+14	7.943391e+14	2.127321e+14	1.186669e+04	4.774784e+03	2.464177e+03	0	9.879016e-04
9.300000e+08	2.465826e+13	0.000000e+00	5.460992e-01	4.209177e+14	7.863588e+14	2.117630e+14	1.184130e+04	4.769989e+03	2.461703e+03	0	9.821925e-04
9.400000e+08	2.423514e+13	0.000000e+00	5.460992e-01	4.157529e+14	7.785308e+14	2.108006e+14	1.181621e+04	4.765248e+03	2.459256e+03	0	9.765421e-04
9.500000e+08	2.382111e+13	0.000000e+00	5.460992e-01	4.106964e+14	7.708507e+14	2.098447e+14	1.179143e+04	4.760559e+03	2.456836e+03	0	9.709490e-04
9.600000e+08	2.341590e+13	0.000000e+00	5.460992e-01	4.057450e+14	7.633145e+14	2.088953e+14	1.176695e+04	4.755920e+03	2.454442e+03	0	9.654121e-04
9.700000e+08	2.301925e+13	0.000000e+00	5.460992e-01	4.008956e+14	7.559182e+14	2.079524e+14	1.174276e+04	4.751331e+03	2.452074e+03	0	9.599299e-04
9.800000e+08	2.263092e+13	0.000000e+00	5.460992e-01	3.961453e+14	7.486580e+14	2.070159e+14	1.171887e+04	4.746791e+03	2.449731e+03	0	9.545013e-04
9.900000e+08	2.225066e+13	0.000000e+00	5.460992e-01	3.914913e+14	7.415303e+14	2.060858e+14	1.169525e+04	4.742299e+03	2.447412e+03	0	9.491250e-04
1.000000e+09	2.187824e+13	0.000000e+00	5.460992e-01	3.869308e+14	7.345316e+14	2.051620e+14	1.167191e+04	4.737854e+03	2.445118e+03	0	9.437999e-04
1.010000e+09	2.151344e+13	0.000000e+00	5.460992e-01	3.824613e+14	7.276583e+14	2.042444e+14	1.164884e+04	4.733455e+03	2.442848e+03	0	9.385248e-04
1.020000e+09	2.115604e+13	0.000000e+00	5.460992e-01	3.780801e+14	7.209073e+14	2.033331e+14	1.162604e+04	4.729101e+03	2.440601e+03	0	9.332986e-04
1.030000e+09	2.080584e+13	0.000000e+00	5.460992e-01	3.737849e+14	7.142753e+14	2.024279e+14	1.160350e+04	4.724792e+03	2.438378e+03	0	9.281202e-04
1.040000e+09	2.046264e+13	0.000000e+00	5.460992e-01	3.695732e+14	7.077593e+14	2.015289e+14	1.158121e+04	4.720527e+03	2.436176e+03	0	9.229886e-04
1.050000e+09	2.012624e+13	0.000000e+00	5.460992e-01	3.654427e+14	7.013563e+14	2.006359e+14	1.155917e+04	4.716304e+03	2.433997e+03	0	9.179028e-04
1.060000e+09	1.979646e+13	0.000000e+00	5.460992e-01	3.613914e+14	6.950633e+14	1.997489e+14	1.153738e+04	4.712124e+03	2.431840e+03	0	9.128617e-04
1.070000e+09	1.947312e+13	0.000000e+00	5.460992e-01	3.574171e+14	6.888777e+14	1.988679e+14	1.151583e+04	4.707985e+03	2.429704e+03	0	9.078644e-04
1.080000e+09	1.915605e+13	0.000000e+00	5.460992e-01	3.535176e+14	6.827967e+14	1.979929e+14	1.149452e+04	4.703886e+03	2.427588e+03	0	9.029099e-04
1.090000e+09	1.884507e+13	0.000000e+00	5.460992e-01	3.496911e+14	6.768178e+14	1.971237e+14	1.147343e+04	4.699828e+03	2.425494e+03	0	8.979973e-04
1.100000e+09	1.854003e+13	0.000000e+00	5.460992e-01	3.459356e+14	6.709383e+14	1.962604e+14	1.145258e+04	4.695808e+03	2.423420e+03	0	8.931257e-04
1.110000e+09	1.824077e+13	0.000000e+00	5.460992e-01	3.422493e+14	6.651559e+14	1.954028e+14	1.143194e+04	4.691828e+03	2.421365e+03	0	8.882942e-04
1.120000e+09	1.794714e+13	0.000000e+00	5.460992e-01	3.386304e+14	6.594683e+14	1.945510e+14	1.141153e+04	4.687885e+03	2.419330e+03	0	8.835020e-04
1.130000e+09	1.765899e+13	0.000000e+00	5.460992e-01	3.350772e+14	6.538730e+14	1.937049e+14	1.139133e+04	4.683979e+03	2.417315e+03	0	8.787481e-04
1.140000e+09	1.737618e+13	0.000000e+00	5.460992e-01	3.315879e+14	6.483679e+14	1.928645e+14	1.137134e+04	4.680110e+03	2.415318e+03	0	8.740318e-04
1.150000e+09	1.709858e+13	0.000000e+00	5.460992e-01	3.281610e+14	6.429509e+14	1.920297e+14	1.135156e+04	4.676276e+03	2.413340e+03	0	8.693523e-04
1.160000e+09	1.682606e+13	0.000000e+00	5.460992e-01	3.247949e+14	6.376199e+14	1.912004e+14	1.133199e+04	4.672479e+03	2.411379e+03	0	8.647088e-04
1.170000e+09	1.655847e+13	0.000000e+00	5.460992e-01	3.214881e+14	6.323729e+14	1.903767e+14	1.131261e+04	4.668715e+03	2.409437e+03	0	8.601005e-04
1.180000e+09	1.629571e+13	0.000000e+00	5.460992e-01	3.182391e+14	6.272078e+14	1.895584e+14	1.129343e+04	4.664986e+03	2.407513e+03	0	8.555267e-04
1.190000e+09	1.603766e+13	0.000000e+00	5.460992e-01	3.150465e+14	6.221229e+14	1.887456e+14	1.127444e+04	4.661291e+03	2.405606e+03	0	8.509866e-04
1.200000e+09	1.578418e+13	0.000000e+00	5.460992e-01	3.119090e+14	6.171162e+14	1.879382e+14	1.125565e+04	4.657628e+03	2.403716e+03	0	8.464796e-04
1.210000e+09	1.553518e+13	0.000000e+00	5.460992e-01	3.088251e+14	6.121861e+14	1.871361e+14	1.123704e+04	4.653999e+03	2.401842e+03	0	8.420048e-04
1.220000e+09	1.529055e+13	0.000000e+00	5.460992e-01	3.057937e+14	6.073307e+14	1.863393e+14	1.121861e+04	4.650401e+03	2.399986e+03	0	8.375617e-04
1.230000e+09	1.505018e+13	0.000000e+00	5.460992e-01	3.028134e+14	6.025484e+14	1.855479e+14	1.120036e+04	4.646834e+03	2.398145e+03	0	8.331496e-04
1.240000e+09	1.481396e+13	0.000000e+00	5.460992e-01	2.998831e+14	5.978376e+14	1.847616e+14	1.118229e+04	4.643299e+03	2.396320e+03	0	8.287677e-04
1.250000e+09	1.458180e+13	0.000000e+00	5.460992e-01	2.970015e+14	5.931966e+14	1.839805e+14	1.116440e+04	4.639794e+03	2.394511e+03	0	8.244155e-04
1.260000e+09	1.435360e+13	0.000000e+00	5.460992e-01	2.941675e+14	5.886240e+14	1.832046e+14	1.114667e+04	4.636319e+03	2.392718e+03	0	8.200923e-04
1.270000e+09	1.412927e+13	0.000000e+00	5.460992e-01	2.913801e+14	5.841182e+14	1.824338e+14	1.112912e+04	4.632873e+03	2.390940e+03	0	8.157975e-04
1.280000e+09	1.390872e+13	0.000000e+00	5.460992e-01	2.886381e+14	5.796779e+14	1.816681e+14	1.111173e+04	4.629456e+03	2.389177e+03	0	8.115304e-04
1.290000e+09	1.369186e+13	0.000000e+00	5.460992e-01	2.859405e+14	5.753015e+14	1.809074e+14	1.109450e+04	4.626068e+03	2.387428e+03	0	8.072906e-04
1.300000e+09	1.347860e+13	0.000000e+00	5.460992e-01	2.832863e+14	5.709878e+14	1.801517e+14	1.107744e+04	4.622709e+03	2.385694e+03	0	8.030773e-04
1.310000e+09	1.326887e+13	0.000000e+00	5.460992e-01	2.806745e+14	5.667354e+14	1.794010e+14	1.106053e+04	4.619377e+03	2.383975e+03	0	7.988901e-04
1.320000e+09	1.306257e+13	0.000000e+00	5.460992e-01	2.781042e+14	5.625430e+14	1.786551e+14	1.104378e+04	4.616072e+03	2.382269e+03	0	7.947284e-04
1.330000e+09	1.285965e+13	0.000000e+00	5.460992e-01	2.755744e+14	5.584093e+14	1.779142e+14	1.102718e+04	4.612794e+03	2.380577e+03	0	7.905915e-04
1.340000e+09	1.266001e+13	0.000000e+00	5.460992e-01	2.730842e+14	5.543332e+14	1.771781e+14	1.101073e+04	4.609542e+03	2.378899e+03	0	7.864790e-04
1.350000e+09	1.246359e+13	0.000000e+00	5.460992e-01	2.706328e+14	5.503134e+14	1.764467e+14	1.099443e+04	4.606317e+03	2.377235e+03	0	7.823903e-04
1.360000e+09	1.227031e+13	0.000000e+00	5.460992e-01	2.682193e+14	5.463488e+14	1.757202e+14	1.097827e+04	4.603117e+03	2.375583e+03	0	7.783250e-04
