#t		Qconv[W]	Ri[Rp]		R*[Rp]		Qc[W]		Qm[W]		Qr[W]		Tcmb[K]		Tl[K]		Tup[K]		RiFlag		Bs[T]
0.000000e+00	1.294872e+14	0.000000e+00	5.352111e-01	1.665549e+15	2.203741e+15	3.929922e+14	1.662450e+04	5.144244e+03	2.804346e+03	0	1.725780e-03
1.000000e+07	1.256246e+14	0.000000e+00	5.352111e-01	1.621842e+15	2.177162e+15	3.908147e+14	1.653580e+04	5.140515e+03	2.802313e+03	0	1.708446e-03
2.000000e+07	1.219211e+14	0.000000e+00	5.352111e-01	1.579916e+15	2.149850e+15	3.886535e+14	1.644940e+04	5.136291e+03	2.800011e+03	0	1.691490e-03
3.000000e+07	1.183686e+14	0.000000e+00	5.352111e-01	1.539680e+15	2.121999e+15	3.865085e+14	1.636522e+04	5.131637e+03	2.797473e+03	0	1.674899e-03
4.000000e+07	1.149595e+14	0.000000e+00	5.352111e-01	1.501050e+15	2.093775e+15	3.843795e+14	1.628316e+04	5.126609e+03	2.794733e+03	0	1.658663e-03
5.000000e+07	1.116866e+14	0.000000e+00	5.352111e-01	1.463945e+15	2.065324e+15	3.822664e+14	1.620315e+04	5.121259e+03	2.791816e+03	0	1.642770e-03
6.000000e+07	1.085431e+14	0.000000e+00	5.352111e-01	1.428289e+15	2.036768e+15	3.801690e+14	1.612509e+04	5.115631e+03	2.788748e+03	0	1.627211e-03
7.000000e+07	1.055226e+14	0.000000e+00	5.352111e-01	1.394011e+15	2.008214e+15	3.780872e+14	1.604893e+04	5.109765e+03	2.785550e+03	0	1.611975e-03
8.000000e+07	1.026189e+14	0.000000e+00	5.352111e-01	1.361042e+15	1.979750e+15	3.760209e+14	1.597457e+04	5.103698e+03	2.782242e+03	0	1.597051e-03
9.000000e+07	9.982623e+13	0.000000e+00	5.352111e-01	1.329318e+15	1.951453e+15	3.739700e+14	1.590196e+04	5.097459e+03	2.778841e+03	0	1.582431e-03
1.000000e+08	9.713924e+13	0.000000e+00	5.352111e-01	1.298778e+15	1.923387e+15	3.719343e+14	1.583103e+04	5.091078e+03	2.775363e+03	0	1.568103e-03
1.100000e+08	9.455277e+13	0.000000e+00	5.352111e-01	1.269366e+15	1.895605e+15	3.699137e+14	1.576171e+04	5.084578e+03	2.771820e+03	0	1.554060e-03
1.200000e+08	9.206195e+13	0.000000e+00	5.352111e-01	1.241026e+15	1.868152e+15	3.679081e+14	1.569396e+04	5.077983e+03	2.768224e+03	0	1.540292e-03
1.300000e+08	8.966222e+13	0.000000e+00	5.352111e-01	1.213709e+15	1.841063e+15	3.659174e+14	1.562770e+04	5.071311e+03	2.764587e+03	0	1.526791e-03
1.400000e+08	8.734924e+13	0.000000e+00	5.352111e-01	1.187365e+15	1.814368e+15	3.639413e+14	1.556289e+04	5.064580e+03	2.760918e+03	0	1.513548e-03
1.500000e+08	8.511894e+13	0.000000e+00	5.352111e-01	1.161949e+15	1.788090e+15	3.619799e+14	1.549948e+04	5.057804e+03	2.757224e+03	0	1.500555e-03
1.600000e+08	8.296744e+13	0.000000e+00	5.352111e-01	1.137419e+15	1.762249e+15	3.600330e+14	1.543742e+04	5.050998e+03	2.753514e+03	0	1.487804e-03
1.700000e+08	8.089111e+13	0.000000e+00	5.352111e-01	1.113732e+15	1.736857e+15	3.581004e+14	1.537666e+04	5.044174e+03	2.749793e+03	0	1.475288e-03
1.800000e+08	7.888649e+13	0.000000e+00	5.352111e-01	1.090852e+15	1.711924e+15	3.561821e+14	1.531715e+04	5.037341e+03	2.746069e+03	0	1.462999e-03
1.900000e+08	7.695033e+13	0.000000e+00	5.352111e-01	1.068740e+15	1.687458e+15	3.542779e+14	1.525886e+04	5.030510e+03	2.742345e+03	0	1.450931e-03
2.000000e+08	7.507953e+13	0.000000e+00	5.352111e-01	1.047364e+15	1.663463e+15	3.523878e+14	1.520174e+04	5.023688e+03	2.738626e+03	0	1.439076e-03
2.100000e+08	7.327119e+13	0.000000e+00	5.352111e-01	1.026690e+15	1.639940e+15	3.505115e+14	1.514576e+04	5.016882e+03	2.734916e+03	0	1.427428e-03
2.200000e+08	7.152253e+13	0.000000e+00	5.352111e-01	1.006687e+15	1.616889e+15	3.486490e+14	1.509087e+04	5.010100e+03	2.731218e+03	0	1.415981e-03
2.300000e+08	6.983095e+13	0.000000e+00	5.352111e-01	9.873262e+14	1.594308e+15	3.468002e+14	1.503705e+04	5.003346e+03	2.727536e+03	0	1.404729e-03
2.400000e+08	6.819397e+13	0.000000e+00	5.352111e-01	9.685801e+14	1.572194e+15	3.449649e+14	1.498425e+04	4.996625e+03	2.723873e+03	0	1.393665e-03
2.500000e+08	6.660924e+13	0.000000e+00	5.352111e-01	9.504222e+14	1.550540e+15	3.431431e+14	1.493245e+04	4.989942e+03	2.720229e+03	0	1.382785e-03
2.600000e+08	6.507454e+13	0.000000e+00	5.352111e-01	9.328276e+14	1.529343e+15	3.413346e+14	1.488162e+04	4.983300e+03	2.716609e+03	0	1.372082e-03
2.700000e+08	6.358776e+13	0.000000e+00	5.352111e-01	9.157729e+14	1.508596e+15	3.395393e+14	1.483172e+04	4.976703e+03	2.713012e+03	0	1.361552e-03
2.800000e+08	6.214689e+13	0.000000e+00	5.352111e-01	8.992356e+14	1.488291e+15	3.377571e+14	1.478273e+04	4.970153e+03	2.709441e+03	0	1.351189e-03
2.900000e+08	6.075004e+13	0.000000e+00	5.352111e-01	8.831944e+14	1.468420e+15	3.359880e+14	1.473462e+04	4.963652e+03	2.705898e+03	0	1.340989e-03
3.000000e+08	5.939540e+13	0.000000e+00	5.352111e-01	8.676291e+14	1.448976e+15	3.342317e+14	1.468736e+04	4.957203e+03	2.702382e+03	0	1.330947e-03
3.100000e+08	5.808126e+13	0.000000e+00	5.352111e-01	8.525207e+14	1.429950e+15	3.324883e+14	1.464092e+04	4.950807e+03	2.698895e+03	0	1.321058e-03
3.200000e+08	5.680600e+13	0.000000e+00	5.352111e-01	8.378508e+14	1.411334e+15	3.307575e+14	1.459530e+04	4.944465e+03	2.695438e+03	0	1.311318e-03
3.300000e+08	5.556807e+13	0.000000e+00	5.352111e-01	8.236022e+14	1.393118e+15	3.290393e+14	1.455045e+04	4.938179e+03	2.692011e+03	0	1.301722e-03
3.400000e+08	5.436599e+13	0.000000e+00	5.352111e-01	8.097583e+14	1.375293e+15	3.273336e+14	1.450636e+04	4.931950e+03	2.688616e+03	0	1.292267e-03
3.500000e+08	5.319837e+13	0.000000e+00	5.352111e-01	7.963035e+14	1.357852e+15	3.256402e+14	1.446301e+04	4.925778e+03	2.685251e+03	0	1.282948e-03
3.600000e+08	5.206387e+13	0.000000e+00	5.352111e-01	7.832229e+14	1.340783e+15	3.239592e+14	1.442037e+04	4.919664e+03	2.681918e+03	0	1.273763e-03
3.700000e+08	5.096122e+13	0.000000e+00	5.352111e-01	7.705021e+14	1.324080e+15	3.222903e+14	1.437843e+04	4.913609e+03	2.678617e+03	0	1.264706e-03
3.800000e+08	4.988922e+13	0.000000e+00	5.352111e-01	7.581278e+14	1.307732e+15	3.206335e+14	1.433717e+04	4.907612e+03	2.675348e+03	0	1.255776e-03
3.900000e+08	4.884671e+13	0.000000e+00	5.352111e-01	7.460869e+14	1.291732e+15	3.189886e+14	1.429657e+04	4.901673e+03	2.672110e+03	0	1.246967e-03
4.000000e+08	4.783260e+13	0.000000e+00	5.352111e-01	7.343672e+14	1.276069e+15	3.173557e+14	1.425661e+04	4.895793e+03	2.668905e+03	0	1.238277e-03
4.100000e+08	4.684583e+13	0.000000e+00	5.352111e-01	7.229568e+14	1.260736e+15	3.157345e+14	1.421727e+04	4.889972e+03	2.665731e+03	0	1.229703e-03
4.200000e+08	4.588542e+13	0.000000e+00	5.352111e-01	7.118447e+14	1.245724e+15	3.141250e+14	1.417854e+04	4.884209e+03	2.662590e+03	0	1.221241e-03
4.300000e+08	4.495039e+13	0.000000e+00	5.352111e-01	7.010200e+14	1.231025e+15	3.125271e+14	1.414041e+04	4.878504e+03	2.659480e+03	0	1.212889e-03
4.400000e+08	4.403985e+13	0.000000e+00	5.352111e-01	6.904725e+14	1.216631e+15	3.109407e+14	1.410285e+04	4.872857e+03	2.656401e+03	0	1.204643e-03
4.500000e+08	4.315292e+13	0.000000e+00	5.352111e-01	6.801926e+14	1.202534e+15	3.093657e+14	1.406585e+04	4.867268e+03	2.653354e+03	0	1.196501e-03
4.600000e+08	4.228878e+13	0.000000e+00	5.352111e-01	6.701707e+14	1.188726e+15	3.078020e+14	1.402940e+04	4.861735e+03	2.650338e+03	0	1.188461e-03
4.700000e+08	4.144661e+13	0.000000e+00	5.352111e-01	6.603981e+14	1.175199e+15	3.062495e+14	1.399349e+04	4.856259e+03	2.647353e+03	0	1.180519e-03
4.800000e+08	4.062567e+13	0.000000e+00	5.352111e-01	6.508661e+14	1.161946e+15	3.047081e+14	1.395809e+04	4.850840e+03	2.644399e+03	0	1.172672e-03
4.900000e+08	3.982523e+13	0.000000e+00	5.352111e-01	6.415665e+14	1.148960e+15	3.031778e+14	1.392321e+04	4.845476e+03	2.641475e+03	0	1.164919e-03
5.000000e+08	3.904458e+13	0.000000e+00	5.352111e-01	6.324916e+14	1.136234e+15	3.016584e+14	1.388882e+04	4.840167e+03	2.638580e+03	0	1.157258e-03
5.100000e+08	3.828307e+13	0.000000e+00	5.352111e-01	6.236339e+14	1.123761e+15	3.001499e+14	1.385491e+04	4.834912e+03	2.635716e+03	0	1.149685e-03
5.200000e+08	3.754005e+13	0.000000e+00	5.352111e-01	6.149861e+14	1.111534e+15	2.986521e+14	1.382148e+04	4.829711e+03	2.632881e+03	0	1.142198e-03
5.300000e+08	3.681492e+13	0.000000e+00	5.352111e-01	6.065415e+14	1.099547e+15	2.971650e+14	1.378851e+04	4.824563e+03	2.630074e+03	0	1.134796e-03
5.400000e+08	3.610707e+13	0.000000e+00	5.352111e-01	5.982932e+14	1.087793e+15	2.956885e+14	1.375599e+04	4.819468e+03	2.627297e+03	0	1.127476e-03
5.500000e+08	3.541596e+13	0.000000e+00	5.352111e-01	5.902352e+14	1.076267e+15	2.942225e+14	1.372391e+04	4.814424e+03	2.624547e+03	0	1.120236e-03
5.600000e+08	3.474104e+13	0.000000e+00	5.352111e-01	5.823612e+14	1.064962e+15	2.927670e+14	1.369226e+04	4.809432e+03	2.621826e+03	0	1.113074e-03
5.700000e+08	3.408180e+13	0.000000e+00	5.352111e-01	5.746655e+14	1.053873e+15	2.913217e+14	1.366103e+04	4.804490e+03	2.619132e+03	0	1.105989e-03
5.800000e+08	3.343773e+13	0.000000e+00	5.352111e-01	5.671424e+14	1.042995e+15	2.898868e+14	1.363021e+04	4.799599e+03	2.616465e+03	0	1.098977e-03
5.900000e+08	3.280837e+13	0.000000e+00	5.352111e-01	5.597866e+14	1.032320e+15	2.884620e+14	1.359979e+04	4.794756e+03	2.613825e+03	0	1.092039e-03
6.000000e+08	3.219324e+13	0.000000e+00	5.352111e-01	5.525929e+14	1.021845e+15	2.870473e+14	1.356977e+04	4.789962e+03	2.611212e+03	0	1.085171e-03
6.100000e+08	3.159192e+13	0.000000e+00	5.352111e-01	5.455563e+14	1.011564e+15	2.856426e+14	1.354013e+04	4.785216e+03	2.608624e+03	0	1.078372e-03
6.200000e+08	3.100397e+13	0.000000e+00	5.352111e-01	5.386722e+14	1.001473e+15	2.842478e+14	1.351086e+04	4.780516e+03	2.606063e+03	0	1.071640e-03
6.300000e+08	3.042900e+13	0.000000e+00	5.352111e-01	5.319358e+14	9.915657e+14	2.828628e+14	1.348197e+04	4.775864e+03	2.603526e+03	0	1.064974e-03
6.400000e+08	2.986660e+13	0.000000e+00	5.352111e-01	5.253428e+14	9.818382e+14	2.814877e+14	1.345343e+04	4.771257e+03	2.601015e+03	0	1.058372e-03
6.500000e+08	2.931641e+13	0.000000e+00	5.352111e-01	5.188890e+14	9.722859e+14	2.801222e+14	1.342524e+04	4.766695e+03	2.598528e+03	0	1.051833e-03
6.600000e+08	2.877806e+13	0.000000e+00	5.352111e-01	5.125702e+14	9.629044e+14	2.787663e+14	1.339740e+04	4.762178e+03	2.596066e+03	0	1.045355e-03
6.700000e+08	2.825120e+13	0.000000e+00	5.352111e-01	5.063825e+14	9.536893e+14	2.774200e+14	1.336990e+04	4.757705e+03	2.593627e+03	0	1.038936e-03
6.800000e+08	2.773549e+13	0.000000e+00	5.352111e-01	5.003221e+14	9.446365e+14	2.760831e+14	1.334273e+04	4.753275e+03	2.591212e+03	0	1.032575e-03
6.900000e+08	2.723062e+13	0.000000e+00	5.352111e-01	4.943855e+14	9.357420e+14	2.747556e+14	1.331588e+04	4.748887e+03	2.588820e+03	0	1.026272e-03
7.000000e+08	2.673627e+13	0.000000e+00	5.352111e-01	4.885689e+14	9.270020e+14	2.734374e+14	1.328935e+04	4.744541e+03	2.586451e+03	0	1.020023e-03
7.100000e+08	2.625214e+13	0.000000e+00	5.352111e-01	4.828692e+14	9.184125e+14	2.721284e+14	1.326313e+04	4.740237e+03	2.584104e+03	0	1.013829e-03
7.200000e+08	2.577794e+13	0.000000e+00	5.352111e-01	4.772830e+14	9.099699e+14	2.708286e+14	1.323722e+04	4.735973e+03	2.581780e+03	0	1.007688e-03
7.300000e+08	2.531340e+13	0.000000e+00	5.352111e-01	4.718071e+14	9.016706e+14	2.695378e+14	1.321160e+04	4.731749e+03	2.579477e+03	0	1.001598e-03
7.400000e+08	2.485824e+13	0.000000e+00	5.352111e-01	4.664385e+14	8.935112e+14	2.682561e+14	1.318628e+04	4.727565e+03	2.577196e+03	0	9.955580e-04
7.500000e+08	2.441220e+13	0.000000e+00	5.352111e-01	4.611743e+14	8.854884e+14	2.669833e+14	1.316124e+04	4.723419e+03	2.574936e+03	0	9.895675e-04
7.600000e+08	2.397503e+13	0.000000e+00	5.352111e-01	4.560116e+14	8.775988e+14	2.657194e+14	1.313649e+04	4.719312e+03	2.572697e+03	0	9.836249e-04
7.700000e+08	2.354650e+13	0.000000e+00	5.352111e-01	4.509478e+14	8.698393e+14	2.644643e+14	1.311201e+04	4.715242e+03	2.570479e+03	0	9.777291e-04
7.800000e+08	2.312636e+13	0.000000e+00	5.352111e-01	4.459800e+14	8.622068e+14	2.632179e+14	1.308780e+04	4.711210e+03	2.568281e+03	0	9.718790e-04
7.900000e+08	2.271439e+13	0.000000e+00	5.352111e-01	4.411059e+14	8.546983e+14	2.619801e+14	1.306386e+04	4.707214e+03	2.566102e+03	0	9.660735e-04
8.000000e+08	2.231038e+13	0.000000e+00	5.352111e-01	4.363230e+14	8.473110e+14	2.607510e+14	1.304018e+04	4.703254e+03	2.563943e+03	0	9.603114e-04
8.100000e+08	2.191411e+13	0.000000e+00	5.352111e-01	4.316288e+14	8.400420e+14	2.595303e+14	1.301675e+04	4.699329e+03	2.561804e+03	0	9.545919e-04
8.200000e+08	2.152538e+13	0.000000e+00	5.352111e-01	4.270211e+14	8.328886e+14	2.583181e+14	1.299357e+04	4.695439e+03	2.559684e+03	0	9.489137e-04
8.300000e+08	2.114399e+13	0.000000e+00	5.352111e-01	4.224976e+14	8.258482e+14	2.571143e+14	1.297065e+04	4.691584e+03	2.557582e+03	0	9.432760e-04
8.400000e+08	2.076976e+13	0.000000e+00	5.352111e-01	4.180561e+14	8.189181e+14	2.559188e+14	1.294796e+04	4.687763e+03	2.555499e+03	0	9.376777e-04
8.500000e+08	2.040249e+13	0.000000e+00	5.352111e-01	4.136947e+14	8.120959e+14	2.547315e+14	1.292551e+04	4.683975e+03	2.553434e+03	0	9.321179e-04
8.600000e+08	2.004201e+13	0.000000e+00	5.352111e-01	4.094112e+14	8.053791e+14	2.535525e+14	1.290330e+04	4.680220e+03	2.551387e+03	0	9.265956e-04
8.700000e+08	1.968816e+13	0.000000e+00	5.352111e-01	4.052038e+14	7.987655e+14	2.523815e+14	1.288131e+04	4.676497e+03	2.549357e+03	0	9.211100e-04
8.800000e+08	1.934075e+13	0.000000e+00	5.352111e-01	4.010705e+14	7.922526e+14	2.512186e+14	1.285955e+04	4.672806e+03	2.547345e+03	0	9.156600e-04
8.900000e+08	1.899964e+13	0.000000e+00	5.352111e-01	3.970095e+14	7.858382e+14	2.500637e+14	1.283801e+04	4.669146e+03	2.545350e+03	0	9.102448e-04
9.000000e+08	1.866465e+13	0.000000e+00	5.352111e-01	3.930190e+14	7.795202e+14	2.489167e+14	1.281669e+04	4.665518e+03	2.543372e+03	0	9.048636e-04
9.100000e+08	1.833566e+13	0.000000e+00	5.352111e-01	3.890973e+14	7.732966e+14	2.477776e+14	1.279558e+04	4.661920e+03	2.541411e+03	0	8.995154e-04
9.200000e+08	1.801249e+13	0.000000e+00	5.352111e-01	3.852428e+14	7.671651e+14	2.466463e+14	1.277468e+04	4.658352e+03	2.539465e+03	0	8.941995e-04
9.300000e+08	1.769502e+13	0.000000e+00	5.352111e-01	3.814539e+14	7.611239e+14	2.455227e+14	1.275399e+04	4.654813e+03	2.537536e+03	0	8.889149e-04
9.400000e+08	1.738311e+13	0.000000e+00	5.352111e-01	3.777289e+14	7.551710e+14	2.444068e+14	1.273350e+04	4.651304e+03	2.535623e+03	0	8.836609e-04
9.500000e+08	1.707662e+13	0.000000e+00	5.352111e-01	3.740663e+14	7.493046e+14	2.432985e+14	1.271321e+04	4.647823e+03	2.533726e+03	0	8.784367e-04
9.600000e+08	1.677543e+13	0.000000e+00	5.352111e-01	3.704648e+14	7.435227e+14	2.421978e+14	1.269311e+04	4.644371e+03	2.531844e+03	0	8.732414e-04
9.700000e+08	1.647940e+13	0.000000e+00	5.352111e-01	3.669228e+14	7.378236e+14	2.411045e+14	1.267321e+04	4.640947e+03	2.529977e+03	0	8.680743e-04
9.800000e+08	1.618842e+13	0.000000e+00	5.352111e-01	3.634390e+14	7.322056e+14	2.400187e+14	1.265350e+04	4.637550e+03	2.528126e+03	0	8.629347e-04
9.900000e+08	1.590236e+13	0.000000e+00	5.352111e-01	3.600121e+14	7.266670e+14	2.389403e+14	1.263398e+04	4.634181e+03	2.526289e+03	0	8.578217e-04
1.000000e+09	1.562112e+13	0.000000e+00	5.352111e-01	3.566407e+14	7.212062e+14	2.378692e+14	1.261463e+04	4.630838e+03	2.524466e+03	0	8.527346e-04
1.010000e+09	1.534459e+13	0.000000e+00	5.352111e-01	3.533235e+14	7.158215e+14	2.368054e+14	1.259547e+04	4.627521e+03	2.522658e+03	0	8.476727e-04
1.020000e+09	1.507264e+13	0.000000e+00	5.352111e-01	3.500594e+14	7.105114e+14	2.357488e+14	1.257649e+04	4.624231e+03	2.520865e+03	0	8.426352e-04
1.030000e+09	1.480519e+13	0.000000e+00	5.352111e-01	3.468472e+14	7.052743e+14	2.346993e+14	1.255768e+04	4.620966e+03	2.519085e+03	0	8.376215e-04
1.040000e+09	1.454213e+13	0.000000e+00	5.352111e-01	3.436857e+14	7.001089e+14	2.336569e+14	1.253904e+04	4.617726e+03	2.517319e+03	0	8.326308e-04
1.050000e+09	1.428335e+13	0.000000e+00	5.352111e-01	3.405737e+14	6.950136e+14	2.326216e+14	1.252058e+04	4.614511e+03	2.515566e+03	0	8.276623e-04
1.060000e+09	1.402877e+13	0.000000e+00	5.352111e-01	3.375103e+14	6.899871e+14	2.315932e+14	1.250228e+04	4.611321e+03	2.513827e+03	0	8.227155e-04
1.070000e+09	1.377829e+13	0.000000e+00	5.352111e-01	3.344942e+14	6.850280e+14	2.305718e+14	1.248414e+04	4.608155e+03	2.512101e+03	0	8.177896e-04
1.080000e+09	1.353182e+13	0.000000e+00	5.352111e-01	3.315246e+14	6.801350e+14	2.295573e+14	1.246617e+04	4.605013e+03	2.510388e+03	0	8.128839e-04
1.090000e+09	1.328927e+13	0.000000e+00	5.352111e-01	3.286003e+14	6.753068e+14	2.285495e+14	1.244835e+04	4.601894e+03	2.508688e+03	0	8.079978e-04
1.100000e+09	1.305056e+13	0.000000e+00	5.352111e-01	3.257205e+14	6.705420e+14	2.275486e+14	1.243069e+04	4.598799e+03	2.507001e+03	0	8.031305e-04
1.110000e+09	1.281560e+13	0.000000e+00	5.352111e-01	3.228841e+14	6.658396e+14	2.265543e+14	1.241319e+04	4.595726e+03	2.505326e+03	0	7.982815e-04
1.120000e+09	1.258431e+13	0.000000e+00	5.352111e-01	3.200902e+14	6.611983e+14	2.255667e+14	1.239583e+04	4.592676e+03	2.503663e+03	0	7.934500e-04
1.130000e+09	1.235661e+13	0.000000e+00	5.352111e-01	3.173380e+14	6.566169e+14	2.245857e+14	1.237863e+04	4.589649e+03	2.502012e+03	0	7.886353e-04
1.140000e+09	1.213243e+13	0.000000e+00	5.352111e-01	3.146266e+14	6.520942e+14	2.236113e+14	1.236158e+04	4.586643e+03	2.500374e+03	0	7.838369e-04
1.150000e+09	1.191169e+13	0.000000e+00	5.352111e-01	3.119551e+14	6.476293e+14	2.226434e+14	1.234467e+04	4.583659e+03	2.498747e+03	0	7.790541e-04
1.160000e+09	1.169432e+13	0.000000e+00	5.352111e-01	3.093226e+14	6.432209e+14	2.216819e+14	1.232790e+04	4.580697e+03	2.497132e+03	0	7.742862e-04
1.170000e+09	1.148025e+13	0.000000e+00	5.352111e-01	3.067285e+14	6.388681e+14	2.207268e+14	1.231127e+04	4.577755e+03	2.495529e+03	0	7.695325e-04
1.180000e+09	1.126942e+13	0.000000e+00	5.352111e-01	3.041719e+14	6.345698e+14	2.197781e+14	1.229479e+04	4.574835e+03	2.493937e+03	0	7.647925e-04
1.190000e+09	1.106174e+13	0.000000e+00	5.352111e-01	3.016520e+14	6.303250e+14	2.188357e+14	1.227844e+04	4.571935e+03	2.492356e+03	0	7.600654e-04
1.200000e+09	1.085716e+13	0.000000e+00	5.352111e-01	2.991681e+14	6.261327e+14	2.178996e+14	1.226222e+04	4.569055e+03	2.490786e+03	0	7.553506e-04
1.210000e+09	1.065562e+13	0.000000e+00	5.352111e-01	2.967195e+14	6.219919e+14	2.169697e+14	1.224614e+04	4.566195e+03	2.489227e+03	0	7.506475e-04
1.220000e+09	1.045705e+13	0.000000e+00	5.352111e-01	2.943054e+14	6.179018e+14	2.160459e+14	1.223019e+04	4.563356e+03	2.487679e+03	0	7.459555e-04
1.230000e+09	1.026140e+13	0.000000e+00	5.352111e-01	2.919252e+14	6.138614e+14	2.151282e+14	1.221437e+04	4.560535e+03	2.486142e+03	0	7.412738e-04
1.240000e+09	1.006860e+13	0.000000e+00	5.352111e-01	2.895783e+14	6.098698e+14	2.142166e+14	1.219867e+04	4.557734e+03	2.484615e+03	0	7.366018e-04
1.250000e+09	9.878594e+12	0.000000e+00	5.352111e-01	2.872639e+14	6.059262e+14	2.133110e+14	1.218311e+04	4.554952e+03	2.483098e+03	0	7.319389e-04
1.260000e+09	9.691333e+12	0.000000e+00	5.352111e-01	2.849814e+14	6.020296e+14	2.124114e+14	1.216766e+04	4.552189e+03	2.481592e+03	0	7.272844e-04
1.270000e+09	9.506759e+12	0.000000e+00	5.352111e-01	2.827302e+14	5.981794e+14	2.115178e+14	1.215234e+04	4.549445e+03	2.480096e+03	0	7.226377e-04
1.280000e+09	9.324820e+12	0.000000e+00	5.352111e-01	2.805097e+14	5.943746e+14	2.106300e+14	1.213714e+04	4.546718e+03	2.478609e+03	0	7.179981e-04
1.290000e+09	9.145464e+12	0.000000e+00	5.352111e-01	2.783194e+14	5.906144e+14	2.097480e+14	1.212206e+04	4.544010e+03	2.477133e+03	0	7.133648e-04
1.300000e+09	8.968641e+12	0.000000e+00	5.352111e-01	2.761585e+14	5.868982e+14	2.088718e+14	1.210710e+04	4.541320e+03	2.475666e+03	0	7.087374e-04
1.310000e+09	8.794302e+12	0.000000e+00	5.352111e-01	2.740267e+14	5.832251e+14	2.080014e+14	1.209225e+04	4.538647e+03	2.474209e+03	0	7.041150e-04
1.320000e+09	8.622400e+12	0.000000e+00	5.352111e-01	2.719232e+14	5.795944e+14	2.071366e+14	1.207751e+04	4.535992e+03	2.472762e+03	0	6.994970e-04
1.330000e+09	8.452887e+12	0.000000e+00	5.352111e-01	2.698477e+14	5.760053e+14	2.062776e+14	1.206289e+04	4.533354e+03	2.471324e+03	0	6.948827e-04
1.340000e+09	8.285718e+12	0.000000e+00	5.352111e-01	2.677995e+14	5.724573e+14	2.054241e+14	1.204838e+04	4.530733e+03	2.469895e+03	0	6.902713e-04
1.350000e+09	8.120849e+12	0.000000e+00	5.352111e-01	2.657781e+14	5.689495e+14	2.045762e+14	1.203398e+04	4.528129e+03	2.468475e+03	0	6.856623e-04
1.360000e+09	7.958236e+12	0.000000e+00	5.352111e-01	2.637832e+14	5.654813e+14	2.037338e+14	1.201969e+04	4.525541e+03	2.467065e+03	0	6.810548e-04
