#t		Qconv[W]	Ri[Rp]		R*[Rp]		Qc[W]		Qm[W]		Qr[W]		Tcmb[K]		Tl[K]		Tup[K]		RiFlag		Bs[T]
0.000000e+00	2.757923e+15	0.000000e+00	5.352111e-01	2.976315e+16	4.824590e+15	4.105037e+14	3.256602e+04	6.959275e+03	2.814951e+03	0	4.759334e-03
1.000000e+07	2.408932e+15	0.000000e+00	5.352111e-01	2.604079e+16	8.169774e+15	4.082292e+14	3.116706e+04	7.637059e+03	3.089108e+03	0	4.549465e-03
2.000000e+07	2.113034e+15	0.000000e+00	5.352111e-01	2.288400e+16	1.108590e+16	4.059717e+14	2.993592e+04	8.114175e+03	3.282096e+03	0	4.354995e-03
3.000000e+07	1.863174e+15	0.000000e+00	5.352111e-01	2.021759e+16	1.311085e+16	4.037311e+14	2.884846e+04	8.427632e+03	3.408886e+03	0	4.176091e-03
4.000000e+07	1.652442e+15	0.000000e+00	5.352111e-01	1.796796e+16	1.422588e+16	4.015072e+14	2.788332e+04	8.618854e+03	3.486233e+03	0	4.012308e-03
5.000000e+07	1.474338e+15	0.000000e+00	5.352111e-01	1.606591e+16	1.462278e+16	3.992999e+14	2.702210e+04	8.724003e+03	3.528765e+03	0	3.862642e-03
6.000000e+07	1.323140e+15	0.000000e+00	5.352111e-01	1.445054e+16	1.452856e+16	3.971091e+14	2.624927e+04	8.770765e+03	3.547680e+03	0	3.725810e-03
7.000000e+07	1.194046e+15	0.000000e+00	5.352111e-01	1.307071e+16	1.413106e+16	3.949345e+14	2.555189e+04	8.778869e+03	3.550958e+03	0	3.600470e-03
8.000000e+07	1.083131e+15	0.000000e+00	5.352111e-01	1.188465e+16	1.356422e+16	3.927762e+14	2.491927e+04	8.761844e+03	3.544071e+03	0	3.485345e-03
9.000000e+07	9.872262e+14	0.000000e+00	5.352111e-01	1.085862e+16	1.291615e+16	3.906339e+14	2.434254e+04	8.728792e+03	3.530702e+03	0	3.379282e-03
1.000000e+08	9.037848e+14	0.000000e+00	5.352111e-01	9.965506e+15	1.224180e+16	3.885075e+14	2.381436e+04	8.685779e+03	3.513304e+03	0	3.281259e-03
1.100000e+08	8.307550e+14	0.000000e+00	5.352111e-01	9.183452e+15	1.157390e+16	3.863969e+14	2.332857e+04	8.636837e+03	3.493507e+03	0	3.190385e-03
1.200000e+08	7.664791e+14	0.000000e+00	5.352111e-01	8.494801e+15	1.093094e+16	3.843019e+14	2.288002e+04	8.584642e+03	3.472395e+03	0	3.105887e-03
1.300000e+08	7.096097e+14	0.000000e+00	5.352111e-01	7.885201e+15	1.032253e+16	3.822224e+14	2.246437e+04	8.530965e+03	3.450683e+03	0	3.027090e-03
1.400000e+08	6.590454e+14	0.000000e+00	5.352111e-01	7.342914e+15	9.752847e+15	3.801584e+14	2.207790e+04	8.476978e+03	3.428846e+03	0	2.953411e-03
1.500000e+08	6.138800e+14	0.000000e+00	5.352111e-01	6.858283e+15	9.222849e+15	3.781095e+14	2.171747e+04	8.423444e+03	3.407192e+03	0	2.884341e-03
1.600000e+08	5.733635e+14	0.000000e+00	5.352111e-01	6.423314e+15	8.731633e+15	3.760759e+14	2.138036e+04	8.370859e+03	3.385922e+03	0	2.819436e-03
1.700000e+08	5.368712e+14	0.000000e+00	5.352111e-01	6.031344e+15	8.277285e+15	3.740572e+14	2.106422e+04	8.319531e+03	3.365161e+03	0	2.758304e-03
1.800000e+08	5.038797e+14	0.000000e+00	5.352111e-01	5.676794e+15	7.857394e+15	3.720534e+14	2.076701e+04	8.269646e+03	3.344982e+03	0	2.700605e-03
1.900000e+08	4.739480e+14	0.000000e+00	5.352111e-01	5.354959e+15	7.469365e+15	3.700643e+14	2.048697e+04	8.221302e+03	3.325428e+03	0	2.646036e-03
2.000000e+08	4.467027e+14	0.000000e+00	5.352111e-01	5.061855e+15	7.110598e+15	3.680899e+14	2.022252e+04	8.174542e+03	3.306514e+03	0	2.594329e-03
2.100000e+08	4.218257e+14	0.000000e+00	5.352111e-01	4.794087e+15	6.778594e+15	3.661301e+14	1.997231e+04	8.129369e+03	3.288242e+03	0	2.545246e-03
2.200000e+08	3.990448e+14	0.000000e+00	5.352111e-01	4.548752e+15	6.471008e+15	3.641846e+14	1.973512e+04	8.085763e+03	3.270604e+03	0	2.498577e-03
2.300000e+08	3.781261e+14	0.000000e+00	5.352111e-01	4.323351e+15	6.185671e+15	3.622534e+14	1.950987e+04	8.043684e+03	3.253583e+03	0	2.454131e-03
2.400000e+08	3.588676e+14	0.000000e+00	5.352111e-01	4.115727e+15	5.920601e+15	3.603363e+14	1.929562e+04	8.003083e+03	3.237161e+03	0	2.411739e-03
2.500000e+08	3.410941e+14	0.000000e+00	5.352111e-01	3.924012e+15	5.673995e+15	3.584333e+14	1.909150e+04	7.963905e+03	3.221314e+03	0	2.371248e-03
2.600000e+08	3.246533e+14	0.000000e+00	5.352111e-01	3.746575e+15	5.444221e+15	3.565442e+14	1.889675e+04	7.926091e+03	3.206018e+03	0	2.332520e-03
2.700000e+08	3.094120e+14	0.000000e+00	5.352111e-01	3.581994e+15	5.229806e+15	3.546690e+14	1.871068e+04	7.889582e+03	3.191251e+03	0	2.295433e-03
2.800000e+08	2.952532e+14	0.000000e+00	5.352111e-01	3.429020e+15	5.029422e+15	3.528074e+14	1.853268e+04	7.854319e+03	3.176987e+03	0	2.259871e-03
2.900000e+08	2.820743e+14	0.000000e+00	5.352111e-01	3.286554e+15	4.841870e+15	3.509594e+14	1.836217e+04	7.820242e+03	3.163203e+03	0	2.225734e-03
3.000000e+08	2.697844e+14	0.000000e+00	5.352111e-01	3.153627e+15	4.666073e+15	3.491249e+14	1.819866e+04	7.787296e+03	3.149877e+03	0	2.192928e-03
3.100000e+08	2.583033e+14	0.000000e+00	5.352111e-01	3.029378e+15	4.501057e+15	3.473037e+14	1.804167e+04	7.755427e+03	3.136987e+03	0	2.161368e-03
3.200000e+08	2.475594e+14	0.000000e+00	5.352111e-01	2.913045e+15	4.345946e+15	3.454958e+14	1.789080e+04	7.724583e+03	3.124510e+03	0	2.130976e-03
3.300000e+08	2.374893e+14	0.000000e+00	5.352111e-01	2.803946e+15	4.199947e+15	3.437011e+14	1.774564e+04	7.694714e+03	3.112429e+03	0	2.101681e-03
3.400000e+08	2.280362e+14	0.000000e+00	5.352111e-01	2.701475e+15	4.062343e+15	3.419194e+14	1.760586e+04	7.665773e+03	3.100723e+03	0	2.073418e-03
3.500000e+08	2.191492e+14	0.000000e+00	5.352111e-01	2.605087e+15	3.932488e+15	3.401506e+14	1.747113e+04	7.637717e+03	3.089374e+03	0	2.046125e-03
3.600000e+08	2.107826e+14	0.000000e+00	5.352111e-01	2.514293e+15	3.809791e+15	3.383946e+14	1.734115e+04	7.610504e+03	3.078367e+03	0	2.019748e-03
3.700000e+08	2.028955e+14	0.000000e+00	5.352111e-01	2.428654e+15	3.693721e+15	3.366513e+14	1.721565e+04	7.584093e+03	3.067684e+03	0	1.994235e-03
3.800000e+08	1.954506e+14	0.000000e+00	5.352111e-01	2.347772e+15	3.583792e+15	3.349207e+14	1.709438e+04	7.558448e+03	3.057311e+03	0	1.969539e-03
3.900000e+08	1.884146e+14	0.000000e+00	5.352111e-01	2.271289e+15	3.479563e+15	3.332026e+14	1.697710e+04	7.533534e+03	3.047233e+03	0	1.945616e-03
4.000000e+08	1.817572e+14	0.000000e+00	5.352111e-01	2.198880e+15	3.380630e+15	3.314968e+14	1.686361e+04	7.509316e+03	3.037437e+03	0	1.922425e-03
4.100000e+08	1.754507e+14	0.000000e+00	5.352111e-01	2.130250e+15	3.286628e+15	3.298034e+14	1.675369e+04	7.485765e+03	3.027911e+03	0	1.899928e-03
4.200000e+08	1.694702e+14	0.000000e+00	5.352111e-01	2.065130e+15	3.197218e+15	3.281222e+14	1.664717e+04	7.462850e+03	3.018642e+03	0	1.878091e-03
4.300000e+08	1.637929e+14	0.000000e+00	5.352111e-01	2.003276e+15	3.112094e+15	3.264531e+14	1.654388e+04	7.440544e+03	3.009620e+03	0	1.856880e-03
4.400000e+08	1.583979e+14	0.000000e+00	5.352111e-01	1.944465e+15	3.030974e+15	3.247960e+14	1.644365e+04	7.418820e+03	3.000833e+03	0	1.836265e-03
4.500000e+08	1.532663e+14	0.000000e+00	5.352111e-01	1.888493e+15	2.953599e+15	3.231508e+14	1.634633e+04	7.397654e+03	2.992271e+03	0	1.816217e-03
4.600000e+08	1.483805e+14	0.000000e+00	5.352111e-01	1.835172e+15	2.879730e+15	3.215174e+14	1.625179e+04	7.377022e+03	2.983926e+03	0	1.796709e-03
4.700000e+08	1.437247e+14	0.000000e+00	5.352111e-01	1.784331e+15	2.809147e+15	3.198958e+14	1.615990e+04	7.356903e+03	2.975788e+03	0	1.777717e-03
4.800000e+08	1.392841e+14	0.000000e+00	5.352111e-01	1.735813e+15	2.741649e+15	3.182857e+14	1.607053e+04	7.337274e+03	2.967848e+03	0	1.759217e-03
4.900000e+08	1.350452e+14	0.000000e+00	5.352111e-01	1.689472e+15	2.677050e+15	3.166872e+14	1.598356e+04	7.318117e+03	2.960099e+03	0	1.741186e-03
5.000000e+08	1.309956e+14	0.000000e+00	5.352111e-01	1.645175e+15	2.615175e+15	3.151001e+14	1.589890e+04	7.299413e+03	2.952534e+03	0	1.723605e-03
5.100000e+08	1.271237e+14	0.000000e+00	5.352111e-01	1.602798e+15	2.555866e+15	3.135244e+14	1.581644e+04	7.281143e+03	2.945144e+03	0	1.706453e-03
5.200000e+08	1.234191e+14	0.000000e+00	5.352111e-01	1.562227e+15	2.498975e+15	3.119599e+14	1.573608e+04	7.263292e+03	2.937923e+03	0	1.689713e-03
5.300000e+08	1.198717e+14	0.000000e+00	5.352111e-01	1.523357e+15	2.444365e+15	3.104065e+14	1.565774e+04	7.245843e+03	2.930865e+03	0	1.673367e-03
5.400000e+08	1.164727e+14	0.000000e+00	5.352111e-01	1.486090e+15	2.391907e+15	3.088642e+14	1.558134e+04	7.228781e+03	2.923964e+03	0	1.657398e-03
5.500000e+08	1.132134e+14	0.000000e+00	5.352111e-01	1.450335e+15	2.341484e+15	3.073329e+14	1.550679e+04	7.212092e+03	2.917213e+03	0	1.641792e-03
5.600000e+08	1.100862e+14	0.000000e+00	5.352111e-01	1.416008e+15	2.292985e+15	3.058125e+14	1.543402e+04	7.195763e+03	2.910608e+03	0	1.626534e-03
5.700000e+08	1.070836e+14	0.000000e+00	5.352111e-01	1.383030e+15	2.246308e+15	3.043029e+14	1.536296e+04	7.179779e+03	2.904143e+03	0	1.611610e-03
5.800000e+08	1.041990e+14	0.000000e+00	5.352111e-01	1.351330e+15	2.201356e+15	3.028040e+14	1.529354e+04	7.164129e+03	2.897813e+03	0	1.597007e-03
5.900000e+08	1.014260e+14	0.000000e+00	5.352111e-01	1.320838e+15	2.158041e+15	3.013157e+14	1.522570e+04	7.148801e+03	2.891613e+03	0	1.582712e-03
6.000000e+08	9.875872e+13	0.000000e+00	5.352111e-01	1.291491e+15	2.116278e+15	2.998379e+14	1.515937e+04	7.133785e+03	2.885539e+03	0	1.568715e-03
6.100000e+08	9.619166e+13	0.000000e+00	5.352111e-01	1.263230e+15	2.075989e+15	2.983706e+14	1.509452e+04	7.119068e+03	2.879586e+03	0	1.555003e-03
6.200000e+08	9.371969e+13	0.000000e+00	5.352111e-01	1.236000e+15	2.037101e+15	2.969137e+14	1.503107e+04	7.104642e+03	2.873751e+03	0	1.541567e-03
6.300000e+08	9.133799e+13	0.000000e+00	5.352111e-01	1.209750e+15	1.999546e+15	2.954670e+14	1.496898e+04	7.090496e+03	2.868029e+03	0	1.528396e-03
6.400000e+08	8.904207e+13	0.000000e+00	5.352111e-01	1.184429e+15	1.963258e+15	2.940306e+14	1.490819e+04	7.076622e+03	2.862417e+03	0	1.515481e-03
6.500000e+08	8.682770e+13	0.000000e+00	5.352111e-01	1.159994e+15	1.928179e+15	2.926043e+14	1.484868e+04	7.063010e+03	2.856911e+03	0	1.502813e-03
6.600000e+08	8.469094e+13	0.000000e+00	5.352111e-01	1.136401e+15	1.894250e+15	2.911880e+14	1.479038e+04	7.049651e+03	2.851508e+03	0	1.490383e-03
6.700000e+08	8.262806e+13	0.000000e+00	5.352111e-01	1.113610e+15	1.861418e+15	2.897816e+14	1.473326e+04	7.036539e+03	2.846204e+03	0	1.478182e-03
6.800000e+08	8.063557e+13	0.000000e+00	5.352111e-01	1.091584e+15	1.829634e+15	2.883852e+14	1.467727e+04	7.023665e+03	2.840997e+03	0	1.466204e-03
6.900000e+08	7.871018e+13	0.000000e+00	5.352111e-01	1.070287e+15	1.798850e+15	2.869985e+14	1.462239e+04	7.011021e+03	2.835882e+03	0	1.454440e-03
7.000000e+08	7.684882e+13	0.000000e+00	5.352111e-01	1.049686e+15	1.769021e+15	2.856216e+14	1.456857e+04	6.998602e+03	2.830859e+03	0	1.442883e-03
7.100000e+08	7.504856e+13	0.000000e+00	5.352111e-01	1.029749e+15	1.740105e+15	2.842543e+14	1.451578e+04	6.986399e+03	2.825923e+03	0	1.431527e-03
7.200000e+08	7.330667e+13	0.000000e+00	5.352111e-01	1.010447e+15	1.712063e+15	2.828965e+14	1.446399e+04	6.974407e+03	2.821072e+03	0	1.420365e-03
7.300000e+08	7.162055e+13	0.000000e+00	5.352111e-01	9.917518e+14	1.684857e+15	2.815483e+14	1.441316e+04	6.962619e+03	2.816304e+03	0	1.409391e-03
7.400000e+08	6.998776e+13	0.000000e+00	5.352111e-01	9.736372e+14	1.658451e+15	2.802095e+14	1.436326e+04	6.951029e+03	2.811616e+03	0	1.398598e-03
7.500000e+08	6.840599e+13	0.000000e+00	5.352111e-01	9.560780e+14	1.632812e+15	2.788799e+14	1.431427e+04	6.939632e+03	2.807006e+03	0	1.387981e-03
7.600000e+08	6.687306e+13	0.000000e+00	5.352111e-01	9.390508e+14	1.607909e+15	2.775597e+14	1.426616e+04	6.928422e+03	2.802472e+03	0	1.377535e-03
7.700000e+08	6.538690e+13	0.000000e+00	5.352111e-01	9.225332e+14	1.583710e+15	2.762486e+14	1.421891e+04	6.917394e+03	2.798011e+03	0	1.367254e-03
7.800000e+08	6.394557e+13	0.000000e+00	5.352111e-01	9.065041e+14	1.560189e+15	2.749467e+14	1.417247e+04	6.906542e+03	2.793622e+03	0	1.357133e-03
7.900000e+08	6.254720e+13	0.000000e+00	5.352111e-01	8.909435e+14	1.537317e+15	2.736538e+14	1.412684e+04	6.895862e+03	2.789302e+03	0	1.347167e-03
8.000000e+08	6.119005e+13	0.000000e+00	5.352111e-01	8.758323e+14	1.515069e+15	2.723699e+14	1.408199e+04	6.885349e+03	2.785049e+03	0	1.337352e-03
8.100000e+08	5.987245e+13	0.000000e+00	5.352111e-01	8.611527e+14	1.493420e+15	2.710948e+14	1.403790e+04	6.874998e+03	2.780863e+03	0	1.327683e-03
8.200000e+08	5.859281e+13	0.000000e+00	5.352111e-01	8.468874e+14	1.472348e+15	2.698286e+14	1.399454e+04	6.864806e+03	2.776740e+03	0	1.318156e-03
8.300000e+08	5.734965e+13	0.000000e+00	5.352111e-01	8.330203e+14	1.451831e+15	2.685711e+14	1.395189e+04	6.854768e+03	2.772680e+03	0	1.308767e-03
8.400000e+08	5.614154e+13	0.000000e+00	5.352111e-01	8.195360e+14	1.431847e+15	2.673224e+14	1.390994e+04	6.844880e+03	2.768680e+03	0	1.299512e-03
8.500000e+08	5.496712e+13	0.000000e+00	5.352111e-01	8.064197e+14	1.412377e+15	2.660822e+14	1.386867e+04	6.835138e+03	2.764739e+03	0	1.290387e-03
8.600000e+08	5.382511e+13	0.000000e+00	5.352111e-01	7.936576e+14	1.393401e+15	2.648506e+14	1.382805e+04	6.825538e+03	2.760856e+03	0	1.281387e-03
8.700000e+08	5.271427e+13	0.000000e+00	5.352111e-01	7.812363e+14	1.374903e+15	2.636275e+14	1.378807e+04	6.816076e+03	2.757029e+03	0	1.272511e-03
8.800000e+08	5.163345e+13	0.000000e+00	5.352111e-01	7.691432e+14	1.356863e+15	2.624128e+14	1.374871e+04	6.806750e+03	2.753257e+03	0	1.263754e-03
8.900000e+08	5.058152e+13	0.000000e+00	5.352111e-01	7.573663e+14	1.339267e+15	2.612064e+14	1.370996e+04	6.797556e+03	2.749538e+03	0	1.255113e-03
9.000000e+08	4.955744e+13	0.000000e+00	5.352111e-01	7.458941e+14	1.322098e+15	2.600083e+14	1.367180e+04	6.788491e+03	2.745871e+03	0	1.246585e-03
9.100000e+08	4.856019e+13	0.000000e+00	5.352111e-01	7.347156e+14	1.305341e+15	2.588184e+14	1.363421e+04	6.779550e+03	2.742255e+03	0	1.238166e-03
9.200000e+08	4.758880e+13	0.000000e+00	5.352111e-01	7.238203e+14	1.288983e+15	2.576367e+14	1.359719e+04	6.770732e+03	2.738688e+03	0	1.229855e-03
9.300000e+08	4.664236e+13	0.000000e+00	5.352111e-01	7.131983e+14	1.273009e+15	2.564630e+14	1.356071e+04	6.762034e+03	2.735170e+03	0	1.221647e-03
9.400000e+08	4.571998e+13	0.000000e+00	5.352111e-01	7.028401e+14	1.257406e+15	2.552974e+14	1.352476e+04	6.753452e+03	2.731698e+03	0	1.213540e-03
9.500000e+08	4.482084e+13	0.000000e+00	5.352111e-01	6.927364e+14	1.242162e+15	2.541397e+14	1.348934e+04	6.744984e+03	2.728273e+03	0	1.205532e-03
9.600000e+08	4.394412e+13	0.000000e+00	5.352111e-01	6.828787e+14	1.227266e+15	2.529900e+14	1.345442e+04	6.736627e+03	2.724893e+03	0	1.197620e-03
9.700000e+08	4.308905e+13	0.000000e+00	5.352111e-01	6.732586e+14	1.212705e+15	2.518480e+14	1.341999e+04	6.728379e+03	2.721557e+03	0	1.189801e-03
9.800000e+08	4.225491e+13	0.000000e+00	5.352111e-01	6.638680e+14	1.198469e+15	2.507138e+14	1.338605e+04	6.720237e+03	2.718263e+03	0	1.182074e-03
9.900000e+08	4.144099e+13	0.000000e+00	5.352111e-01	6.546995e+14	1.184546e+15	2.495874e+14	1.335258e+04	6.712199e+03	2.715012e+03	0	1.174435e-03
1.000000e+09	4.064662e+13	0.000000e+00	5.352111e-01	6.457456e+14	1.170928e+15	2.484685e+14	1.331957e+04	6.704262e+03	2.711802e+03	0	1.166882e-03
1.010000e+09	3.987115e+13	0.000000e+00	5.352111e-01	6.369993e+14	1.157605e+15	2.473573e+14	1.328701e+04	6.696424e+03	2.708631e+03	0	1.159414e-03
1.020000e+09	3.911397e+13	0.000000e+00	5.352111e-01	6.284540e+14	1.144567e+15	2.462536e+14	1.325488e+04	6.688684e+03	2.705500e+03	0	1.152027e-03
1.030000e+09	3.837449e+13	0.000000e+00	5.352111e-01	6.201032e+14	1.131805e+15	2.451574e+14	1.322319e+04	6.681038e+03	2.702408e+03	0	1.144721e-03
1.040000e+09	3.765213e+13	0.000000e+00	5.352111e-01	6.119408e+14	1.119311e+15	2.440686e+14	1.319191e+04	6.673485e+03	2.699352e+03	0	1.137493e-03
1.050000e+09	3.694635e+13	0.000000e+00	5.352111e-01	6.039608e+14	1.107077e+15	2.429871e+14	1.316105e+04	6.666022e+03	2.696334e+03	0	1.130341e-03
1.060000e+09	3.625664e+13	0.000000e+00	5.352111e-01	5.961574e+14	1.095095e+15	2.419129e+14	1.313059e+04	6.658649e+03	2.693351e+03	0	1.123263e-03
1.070000e+09	3.558249e+13	0.000000e+00	5.352111e-01	5.885254e+14	1.083357e+15	2.408460e+14	1.310051e+04	6.651362e+03	2.690404e+03	0	1.116257e-03
1.080000e+09	3.492341e+13	0.000000e+00	5.352111e-01	5.810594e+14	1.071857e+15	2.397862e+14	1.307082e+04	6.644161e+03	2.687491e+03	0	1.109322e-03
1.090000e+09	3.427894e+13	0.000000e+00	5.352111e-01	5.737544e+14	1.060586e+15	2.387335e+14	1.304151e+04	6.637042e+03	2.684612e+03	0	1.102456e-03
1.100000e+09	3.364865e+13	0.000000e+00	5.352111e-01	5.666055e+14	1.049539e+15	2.376880e+14	1.301256e+04	6.630006e+03	2.681766e+03	0	1.095657e-03
1.110000e+09	3.303210e+13	0.000000e+00	5.352111e-01	5.596080e+14	1.038709e+15	2.366494e+14	1.298398e+04	6.623049e+03	2.678952e+03	0	1.088924e-03
1.120000e+09	3.242888e+13	0.000000e+00	5.352111e-01	5.527576e+14	1.028090e+15	2.356178e+14	1.295574e+04	6.616171e+03	2.676170e+03	0	1.082255e-03
1.130000e+09	3.183859e+13	0.000000e+00	5.352111e-01	5.460499e+14	1.017675e+15	2.345931e+14	1.292785e+04	6.609370e+03	2.673419e+03	0	1.075648e-03
1.140000e+09	3.126086e+13	0.000000e+00	5.352111e-01	5.394807e+14	1.007460e+15	2.335753e+14	1.290029e+04	6.602644e+03	2.670698e+03	0	1.069102e-03
1.150000e+09	3.069531e+13	0.000000e+00	5.352111e-01	5.330460e+14	9.974376e+14	2.325642e+14	1.287307e+04	6.595991e+03	2.668007e+03	0	1.062616e-03
1.160000e+09	3.014161e+13	0.000000e+00	5.352111e-01	5.267420e+14	9.876038e+14	2.315599e+14	1.284617e+04	6.589411e+03	2.665346e+03	0	1.056187e-03
1.170000e+09	2.959939e+13	0.000000e+00	5.352111e-01	5.205650e+14	9.779530e+14	2.305623e+14	1.281958e+04	6.582902e+03	2.662713e+03	0	1.049816e-03
1.180000e+09	2.906835e+13	0.000000e+00	5.352111e-01	5.145113e+14	9.684802e+14	2.295713e+14	1.279331e+04	6.576463e+03	2.660108e+03	0	1.043500e-03
1.190000e+09	2.854815e+13	0.000000e+00	5.352111e-01	5.085777e+14	9.591806e+14	2.285869e+14	1.276734e+04	6.570091e+03	2.657531e+03	0	1.037237e-03
1.200000e+09	2.803850e+13	0.000000e+00	5.352111e-01	5.027606e+14	9.500496e+14	2.276091e+14	1.274167e+04	6.563786e+03	2.654981e+03	0	1.031028e-03
1.210000e+09	2.753911e+13	0.000000e+00	5.352111e-01	4.970570e+14	9.410827e+14	2.266377e+14	1.271629e+04	6.557548e+03	2.652457e+03	0	1.024870e-03
1.220000e+09	2.704969e+13	0.000000e+00	5.352111e-01	4.914637e+14	9.322756e+14	2.256728e+14	1.269120e+04	6.551373e+03	2.649960e+03	0	1.018762e-03
1.230000e+09	2.656996e+13	0.000000e+00	5.352111e-01	4.859778e+14	9.236242e+14	2.247142e+14	1.266639e+04	6.545262e+03	2.647488e+03	0	1.012704e-03
1.240000e+09	2.609967e+13	0.000000e+00	5.352111e-01	4.805963e+14	9.151244e+14	2.237620e+14	1.264185e+04	6.539212e+03	2.645041e+03	0	1.006693e-03
1.250000e+09	2.563856e+13	0.000000e+00	5.352111e-01	4.753165e+14	9.067723e+14	2.228161e+14	1.261759e+04	6.533224e+03	2.642619e+03	0	1.000730e-03
1.260000e+09	2.518638e+13	0.000000e+00	5.352111e-01	4.701357e+14	8.985641e+14	2.218764e+14	1.259359e+04	6.527295e+03	2.640220e+03	0	9.948114e-04
1.270000e+09	2.474290e+13	0.000000e+00	5.352111e-01	4.650513e+14	8.904963e+14	2.209429e+14	1.256985e+04	6.521426e+03	2.637846e+03	0	9.889379e-04
1.280000e+09	2.430789e+13	0.000000e+00	5.352111e-01	4.600608e+14	8.825653e+14	2.200155e+14	1.254637e+04	6.515613e+03	2.635495e+03	0	9.831080e-04
1.290000e+09	2.388111e+13	0.000000e+00	5.352111e-01	4.551617e+14	8.747677e+14	2.190942e+14	1.252314e+04	6.509858e+03	2.633167e+03	0	9.773205e-04
1.300000e+09	2.346237e+13	0.000000e+00	5.352111e-01	4.503517e+14	8.671002e+14	2.181790e+14	1.250015e+04	6.504158e+03	2.630862e+03	0	9.715746e-04
1.310000e+09	2.305145e+13	0.000000e+00	5.352111e-01	4.456286e+14	8.595597e+14	2.172698e+14	1.247741e+04	6.498513e+03	2.628578e+03	0	9.658691e-04
1.320000e+09	2.264816e+13	0.000000e+00	5.352111e-01	4.409901e+14	8.521430e+14	2.163665e+14	1.245491e+04	6.492921e+03	2.626316e+03	0	9.602031e-04
1.330000e+09	2.225229e+13	0.000000e+00	5.352111e-01	4.364341e+14	8.448472e+14	2.154692e+14	1.243263e+04	6.487382e+03	2.624076e+03	0	9.545758e-04
1.340000e+09	2.186366e+13	0.000000e+00	5.352111e-01	4.319586e+14	8.376693e+14	2.145777e+14	1.241059e+04	6.481895e+03	2.621857e+03	0	9.489860e-04
1.350000e+09	2.148210e+13	0.000000e+00	5.352111e-01	4.275615e+14	8.306066e+14	2.136920e+14	1.238878e+04	6.476460e+03	2.619658e+03	0	9.434330e-04
1.360000e+09	2.110741e+13	0.000000e+00	5.352111e-01	4.232410e+14	8.236564e+14	2.128121e+14	1.236718e+04	6.471074e+03	2.617479e+03	0	9.379157e-04
