#t		Qconv[W]	Ri[Rp]		R*[Rp]		Qc[W]		Qm[W]		Qr[W]		Tcmb[K]		Tl[K]		Tup[K]		RiFlag		Bs[T]
0.000000e+00	3.492255e+15	0.000000e+00	5.352111e-01	3.609760e+16	5.025740e+15	4.408876e+14	3.494181e+04	7.230421e+03	2.844130e+03	0	5.133875e-03
1.000000e+07	3.046641e+15	0.000000e+00	5.352111e-01	3.154685e+16	9.157745e+15	4.384448e+14	3.340130e+04	8.025207e+03	3.156764e+03	0	4.905505e-03
2.000000e+07	2.668106e+15	0.000000e+00	5.352111e-01	2.768027e+16	1.291059e+16	4.360202e+14	3.204698e+04	8.585380e+03	3.377111e+03	0	4.693293e-03
3.000000e+07	2.348465e+15	0.000000e+00	5.352111e-01	2.441430e+16	1.556546e+16	4.336137e+14	3.085242e+04	8.951624e+03	3.521175e+03	0	4.497847e-03
4.000000e+07	2.079241e+15	0.000000e+00	5.352111e-01	2.166248e+16	1.704026e+16	4.312252e+14	2.979391e+04	9.172922e+03	3.608224e+03	0	4.318951e-03
5.000000e+07	1.852147e+15	0.000000e+00	5.352111e-01	1.934033e+16	1.757463e+16	4.288546e+14	2.885084e+04	9.292921e+03	3.655427e+03	0	4.155613e-03
6.000000e+07	1.659765e+15	0.000000e+00	5.352111e-01	1.737224e+16	1.746956e+16	4.265016e+14	2.800576e+04	9.345035e+03	3.675926e+03	0	4.006441e-03
7.000000e+07	1.495834e+15	0.000000e+00	5.352111e-01	1.569443e+16	1.697490e+16	4.241661e+14	2.724419e+04	9.352858e+03	3.679003e+03	0	3.869941e-03
8.000000e+07	1.355241e+15	0.000000e+00	5.352111e-01	1.425479e+16	1.626702e+16	4.218480e+14	2.655414e+04	9.332354e+03	3.670938e+03	0	3.744687e-03
9.000000e+07	1.233871e+15	0.000000e+00	5.352111e-01	1.301137e+16	1.546012e+16	4.195471e+14	2.592572e+04	9.294105e+03	3.655892e+03	0	3.629387e-03
1.000000e+08	1.128425e+15	0.000000e+00	5.352111e-01	1.193052e+16	1.462412e+16	4.172633e+14	2.535073e+04	9.245057e+03	3.636599e+03	0	3.522904e-03
1.100000e+08	1.036254e+15	0.000000e+00	5.352111e-01	1.098527e+16	1.379982e+16	4.149965e+14	2.482236e+04	9.189756e+03	3.614846e+03	0	3.424249e-03
1.200000e+08	9.552253e+14	0.000000e+00	5.352111e-01	1.015385e+16	1.300967e+16	4.127464e+14	2.433488e+04	9.131173e+03	3.591802e+03	0	3.332565e-03
1.300000e+08	8.836086e+14	0.000000e+00	5.352111e-01	9.418610e+15	1.226487e+16	4.105131e+14	2.388348e+04	9.071245e+03	3.568229e+03	0	3.247107e-03
1.400000e+08	8.199929e+14	0.000000e+00	5.352111e-01	8.765164e+15	1.156994e+16	4.082962e+14	2.346406e+04	9.011228e+03	3.544621e+03	0	3.167233e-03
1.500000e+08	7.632200e+14	0.000000e+00	5.352111e-01	8.181691e+15	1.092544e+16	4.060958e+14	2.307314e+04	8.951931e+03	3.521296e+03	0	3.092382e-03
1.600000e+08	7.123324e+14	0.000000e+00	5.352111e-01	7.658418e+15	1.032979e+16	4.039116e+14	2.270773e+04	8.893861e+03	3.498454e+03	0	3.022068e-03
1.700000e+08	6.665340e+14	0.000000e+00	5.352111e-01	7.187219e+15	9.780236e+15	4.017435e+14	2.236523e+04	8.837327e+03	3.476216e+03	0	2.955861e-03
1.800000e+08	6.251588e+14	0.000000e+00	5.352111e-01	6.761292e+15	9.273512e+15	3.995914e+14	2.204342e+04	8.782504e+03	3.454651e+03	0	2.893388e-03
1.900000e+08	5.876462e+14	0.000000e+00	5.352111e-01	6.374915e+15	8.806194e+15	3.974551e+14	2.174034e+04	8.729480e+03	3.433794e+03	0	2.834318e-03
2.000000e+08	5.535220e+14	0.000000e+00	5.352111e-01	6.023240e+15	8.374915e+15	3.953346e+14	2.145428e+04	8.678281e+03	3.413654e+03	0	2.778358e-03
2.100000e+08	5.223827e+14	0.000000e+00	5.352111e-01	5.702147e+15	7.976476e+15	3.932296e+14	2.118374e+04	8.628895e+03	3.394228e+03	0	2.725249e-03
2.200000e+08	4.938834e+14	0.000000e+00	5.352111e-01	5.408111e+15	7.607902e+15	3.911401e+14	2.092738e+04	8.581284e+03	3.375500e+03	0	2.674760e-03
2.300000e+08	4.677279e+14	0.000000e+00	5.352111e-01	5.138104e+15	7.266464e+15	3.890660e+14	2.068403e+04	8.535395e+03	3.357449e+03	0	2.626683e-03
2.400000e+08	4.436607e+14	0.000000e+00	5.352111e-01	4.889513e+15	6.949683e+15	3.870070e+14	2.045264e+04	8.491165e+03	3.340051e+03	0	2.580835e-03
2.500000e+08	4.214605e+14	0.000000e+00	5.352111e-01	4.660073e+15	6.655314e+15	3.849632e+14	2.023228e+04	8.448524e+03	3.323278e+03	0	2.537049e-03
2.600000e+08	4.009345e+14	0.000000e+00	5.352111e-01	4.447816e+15	6.381334e+15	3.829343e+14	2.002211e+04	8.407403e+03	3.307103e+03	0	2.495175e-03
2.700000e+08	3.819146e+14	0.000000e+00	5.352111e-01	4.251020e+15	6.125925e+15	3.809202e+14	1.982138e+04	8.367732e+03	3.291498e+03	0	2.455079e-03
2.800000e+08	3.642535e+14	0.000000e+00	5.352111e-01	4.068177e+15	5.887451e+15	3.789208e+14	1.962941e+04	8.329440e+03	3.276436e+03	0	2.416636e-03
2.900000e+08	3.478216e+14	0.000000e+00	5.352111e-01	3.897961e+15	5.664444e+15	3.769361e+14	1.944558e+04	8.292460e+03	3.261889e+03	0	2.379736e-03
3.000000e+08	3.325043e+14	0.000000e+00	5.352111e-01	3.739199e+15	5.455584e+15	3.749658e+14	1.926934e+04	8.256727e+03	3.247834e+03	0	2.344278e-03
3.100000e+08	3.182007e+14	0.000000e+00	5.352111e-01	3.590856e+15	5.259684e+15	3.730098e+14	1.910019e+04	8.222180e+03	3.234244e+03	0	2.310168e-03
3.200000e+08	3.048207e+14	0.000000e+00	5.352111e-01	3.452010e+15	5.075675e+15	3.710681e+14	1.893767e+04	8.188760e+03	3.221098e+03	0	2.277324e-03
3.300000e+08	2.922843e+14	0.000000e+00	5.352111e-01	3.321844e+15	4.902593e+15	3.691405e+14	1.878135e+04	8.156411e+03	3.208373e+03	0	2.245666e-03
3.400000e+08	2.805203e+14	0.000000e+00	5.352111e-01	3.199623e+15	4.739570e+15	3.672269e+14	1.863086e+04	8.125079e+03	3.196049e+03	0	2.215124e-03
3.500000e+08	2.694645e+14	0.000000e+00	5.352111e-01	3.084693e+15	4.585820e+15	3.653272e+14	1.848584e+04	8.094717e+03	3.184106e+03	0	2.185633e-03
3.600000e+08	2.590597e+14	0.000000e+00	5.352111e-01	2.976466e+15	4.440630e+15	3.634413e+14	1.834597e+04	8.065276e+03	3.172525e+03	0	2.157131e-03
3.700000e+08	2.492543e+14	0.000000e+00	5.352111e-01	2.874413e+15	4.303358e+15	3.615690e+14	1.821096e+04	8.036713e+03	3.161290e+03	0	2.129565e-03
3.800000e+08	2.400018e+14	0.000000e+00	5.352111e-01	2.778056e+15	4.173417e+15	3.597102e+14	1.808052e+04	8.008985e+03	3.150383e+03	0	2.102881e-03
3.900000e+08	2.312601e+14	0.000000e+00	5.352111e-01	2.686965e+15	4.050276e+15	3.578649e+14	1.795440e+04	7.982055e+03	3.139790e+03	0	2.077033e-03
4.000000e+08	2.229911e+14	0.000000e+00	5.352111e-01	2.600748e+15	3.933450e+15	3.560330e+14	1.783238e+04	7.955885e+03	3.129495e+03	0	2.051977e-03
4.100000e+08	2.151604e+14	0.000000e+00	5.352111e-01	2.519052e+15	3.822496e+15	3.542142e+14	1.771424e+04	7.930441e+03	3.119487e+03	0	2.027671e-03
4.200000e+08	2.077366e+14	0.000000e+00	5.352111e-01	2.441554e+15	3.717012e+15	3.524086e+14	1.759977e+04	7.905689e+03	3.109751e+03	0	2.004077e-03
4.300000e+08	2.006911e+14	0.000000e+00	5.352111e-01	2.367961e+15	3.616627e+15	3.506159e+14	1.748878e+04	7.881600e+03	3.100275e+03	0	1.981159e-03
4.400000e+08	1.939978e+14	0.000000e+00	5.352111e-01	2.298004e+15	3.521004e+15	3.488362e+14	1.738111e+04	7.858145e+03	3.091049e+03	0	1.958885e-03
4.500000e+08	1.876329e+14	0.000000e+00	5.352111e-01	2.231439e+15	3.429831e+15	3.470692e+14	1.727659e+04	7.835295e+03	3.082061e+03	0	1.937223e-03
4.600000e+08	1.815746e+14	0.000000e+00	5.352111e-01	2.168042e+15	3.342824e+15	3.453149e+14	1.717507e+04	7.813026e+03	3.073301e+03	0	1.916145e-03
4.700000e+08	1.758029e+14	0.000000e+00	5.352111e-01	2.107607e+15	3.259719e+15	3.435732e+14	1.707640e+04	7.791313e+03	3.064760e+03	0	1.895623e-03
4.800000e+08	1.702993e+14	0.000000e+00	5.352111e-01	2.049944e+15	3.180276e+15	3.418440e+14	1.698046e+04	7.770134e+03	3.056429e+03	0	1.875632e-03
4.900000e+08	1.650470e+14	0.000000e+00	5.352111e-01	1.994881e+15	3.104270e+15	3.401272e+14	1.688712e+04	7.749466e+03	3.048299e+03	0	1.856148e-03
5.000000e+08	1.600305e+14	0.000000e+00	5.352111e-01	1.942257e+15	3.031497e+15	3.384226e+14	1.679627e+04	7.729289e+03	3.040363e+03	0	1.837148e-03
5.100000e+08	1.552353e+14	0.000000e+00	5.352111e-01	1.891923e+15	2.961764e+15	3.367302e+14	1.670780e+04	7.709584e+03	3.032611e+03	0	1.818612e-03
5.200000e+08	1.506482e+14	0.000000e+00	5.352111e-01	1.843745e+15	2.894896e+15	3.350499e+14	1.662159e+04	7.690332e+03	3.025039e+03	0	1.800520e-03
5.300000e+08	1.462569e+14	0.000000e+00	5.352111e-01	1.797595e+15	2.830730e+15	3.333816e+14	1.653757e+04	7.671516e+03	3.017637e+03	0	1.782853e-03
5.400000e+08	1.420501e+14	0.000000e+00	5.352111e-01	1.753355e+15	2.769112e+15	3.317252e+14	1.645563e+04	7.653119e+03	3.010401e+03	0	1.765593e-03
5.500000e+08	1.380173e+14	0.000000e+00	5.352111e-01	1.710919e+15	2.709902e+15	3.300805e+14	1.637569e+04	7.635126e+03	3.003323e+03	0	1.748723e-03
5.600000e+08	1.341485e+14	0.000000e+00	5.352111e-01	1.670185e+15	2.652969e+15	3.284476e+14	1.629767e+04	7.617523e+03	2.996399e+03	0	1.732229e-03
5.700000e+08	1.304349e+14	0.000000e+00	5.352111e-01	1.631059e+15	2.598189e+15	3.268262e+14	1.622149e+04	7.600293e+03	2.989621e+03	0	1.716094e-03
5.800000e+08	1.268678e+14	0.000000e+00	5.352111e-01	1.593454e+15	2.545451e+15	3.252163e+14	1.614709e+04	7.583426e+03	2.982986e+03	0	1.700306e-03
5.900000e+08	1.234394e+14	0.000000e+00	5.352111e-01	1.557288e+15	2.494646e+15	3.236179e+14	1.607438e+04	7.566906e+03	2.976488e+03	0	1.684850e-03
6.000000e+08	1.201424e+14	0.000000e+00	5.352111e-01	1.522487e+15	2.445675e+15	3.220308e+14	1.600332e+04	7.550724e+03	2.970123e+03	0	1.669714e-03
6.100000e+08	1.169700e+14	0.000000e+00	5.352111e-01	1.488979e+15	2.398446e+15	3.204549e+14	1.593383e+04	7.534866e+03	2.963885e+03	0	1.654886e-03
6.200000e+08	1.139156e+14	0.000000e+00	5.352111e-01	1.456699e+15	2.352872e+15	3.188901e+14	1.586586e+04	7.519321e+03	2.957771e+03	0	1.640354e-03
6.300000e+08	1.109733e+14	0.000000e+00	5.352111e-01	1.425583e+15	2.308870e+15	3.173364e+14	1.579935e+04	7.504080e+03	2.951775e+03	0	1.626108e-03
6.400000e+08	1.081376e+14	0.000000e+00	5.352111e-01	1.395575e+15	2.266365e+15	3.157936e+14	1.573425e+04	7.489133e+03	2.945896e+03	0	1.612138e-03
6.500000e+08	1.054031e+14	0.000000e+00	5.352111e-01	1.366620e+15	2.225286e+15	3.142617e+14	1.567052e+04	7.474469e+03	2.940127e+03	0	1.598433e-03
6.600000e+08	1.027648e+14	0.000000e+00	5.352111e-01	1.338667e+15	2.185563e+15	3.127406e+14	1.560810e+04	7.460079e+03	2.934467e+03	0	1.584984e-03
6.700000e+08	1.002183e+14	0.000000e+00	5.352111e-01	1.311669e+15	2.147135e+15	3.112302e+14	1.554694e+04	7.445955e+03	2.928912e+03	0	1.571782e-03
6.800000e+08	9.775914e+13	0.000000e+00	5.352111e-01	1.285580e+15	2.109942e+15	3.097303e+14	1.548701e+04	7.432089e+03	2.923457e+03	0	1.558819e-03
6.900000e+08	9.538319e+13	0.000000e+00	5.352111e-01	1.260358e+15	2.073927e+15	3.082411e+14	1.542827e+04	7.418471e+03	2.918101e+03	0	1.546087e-03
7.000000e+08	9.308665e+13	0.000000e+00	5.352111e-01	1.235963e+15	2.039038e+15	3.067622e+14	1.537067e+04	7.405096e+03	2.912839e+03	0	1.533578e-03
7.100000e+08	9.086588e+13	0.000000e+00	5.352111e-01	1.212358e+15	2.005225e+15	3.052937e+14	1.531417e+04	7.391955e+03	2.907670e+03	0	1.521284e-03
7.200000e+08	8.871746e+13	0.000000e+00	5.352111e-01	1.189508e+15	1.972441e+15	3.038355e+14	1.525875e+04	7.379041e+03	2.902590e+03	0	1.509198e-03
7.300000e+08	8.663819e+13	0.000000e+00	5.352111e-01	1.167379e+15	1.940642e+15	3.023874e+14	1.520437e+04	7.366348e+03	2.897597e+03	0	1.497315e-03
7.400000e+08	8.462501e+13	0.000000e+00	5.352111e-01	1.145940e+15	1.909785e+15	3.009495e+14	1.515099e+04	7.353868e+03	2.892689e+03	0	1.485626e-03
7.500000e+08	8.267506e+13	0.000000e+00	5.352111e-01	1.125161e+15	1.879831e+15	2.995216e+14	1.509859e+04	7.341597e+03	2.887862e+03	0	1.474127e-03
7.600000e+08	8.078562e+13	0.000000e+00	5.352111e-01	1.105013e+15	1.850742e+15	2.981036e+14	1.504713e+04	7.329527e+03	2.883114e+03	0	1.462810e-03
7.700000e+08	7.895413e+13	0.000000e+00	5.352111e-01	1.085471e+15	1.822483e+15	2.966955e+14	1.499659e+04	7.317654e+03	2.878444e+03	0	1.451671e-03
7.800000e+08	7.717815e+13	0.000000e+00	5.352111e-01	1.066509e+15	1.795020e+15	2.952972e+14	1.494694e+04	7.305972e+03	2.873848e+03	0	1.440704e-03
7.900000e+08	7.545538e+13	0.000000e+00	5.352111e-01	1.048104e+15	1.768321e+15	2.939086e+14	1.489814e+04	7.294474e+03	2.869326e+03	0	1.429903e-03
8.000000e+08	7.378365e+13	0.000000e+00	5.352111e-01	1.030232e+15	1.742356e+15	2.925296e+14	1.485019e+04	7.283157e+03	2.864874e+03	0	1.419264e-03
8.100000e+08	7.216088e+13	0.000000e+00	5.352111e-01	1.012872e+15	1.717096e+15	2.911602e+14	1.480305e+04	7.272016e+03	2.860491e+03	0	1.408782e-03
8.200000e+08	7.058512e+13	0.000000e+00	5.352111e-01	9.960044e+14	1.692513e+15	2.898003e+14	1.475670e+04	7.261045e+03	2.856176e+03	0	1.398452e-03
8.300000e+08	6.905450e+13	0.000000e+00	5.352111e-01	9.796092e+14	1.668583e+15	2.884498e+14	1.471111e+04	7.250241e+03	2.851926e+03	0	1.388270e-03
8.400000e+08	6.756725e+13	0.000000e+00	5.352111e-01	9.636683e+14	1.645279e+15	2.871086e+14	1.466628e+04	7.239598e+03	2.847740e+03	0	1.378231e-03
8.500000e+08	6.612169e+13	0.000000e+00	5.352111e-01	9.481642e+14	1.622579e+15	2.857766e+14	1.462217e+04	7.229113e+03	2.843615e+03	0	1.368331e-03
8.600000e+08	6.471621e+13	0.000000e+00	5.352111e-01	9.330802e+14	1.600459e+15	2.844538e+14	1.457876e+04	7.218781e+03	2.839551e+03	0	1.358567e-03
8.700000e+08	6.334931e+13	0.000000e+00	5.352111e-01	9.184005e+14	1.578900e+15	2.831402e+14	1.453604e+04	7.208599e+03	2.835546e+03	0	1.348934e-03
8.800000e+08	6.201952e+13	0.000000e+00	5.352111e-01	9.041102e+14	1.557880e+15	2.818355e+14	1.449399e+04	7.198563e+03	2.831598e+03	0	1.339428e-03
8.900000e+08	6.072548e+13	0.000000e+00	5.352111e-01	8.901949e+14	1.537380e+15	2.805399e+14	1.445259e+04	7.188669e+03	2.827706e+03	0	1.330047e-03
9.000000e+08	5.946586e+13	0.000000e+00	5.352111e-01	8.766409e+14	1.517382e+15	2.792531e+14	1.441182e+04	7.178913e+03	2.823869e+03	0	1.320786e-03
9.100000e+08	5.823941e+13	0.000000e+00	5.352111e-01	8.634352e+14	1.497868e+15	2.779752e+14	1.437168e+04	7.169293e+03	2.820085e+03	0	1.311643e-03
9.200000e+08	5.704493e+13	0.000000e+00	5.352111e-01	8.505653e+14	1.478821e+15	2.767060e+14	1.433213e+04	7.159805e+03	2.816353e+03	0	1.302614e-03
9.300000e+08	5.588129e+13	0.000000e+00	5.352111e-01	8.380194e+14	1.460225e+15	2.754454e+14	1.429317e+04	7.150446e+03	2.812671e+03	0	1.293696e-03
9.400000e+08	5.474739e+13	0.000000e+00	5.352111e-01	8.257861e+14	1.442065e+15	2.741935e+14	1.425478e+04	7.141212e+03	2.809039e+03	0	1.284886e-03
9.500000e+08	5.364219e+13	0.000000e+00	5.352111e-01	8.138547e+14	1.424326e+15	2.729502e+14	1.421695e+04	7.132101e+03	2.805455e+03	0	1.276181e-03
9.600000e+08	5.256470e+13	0.000000e+00	5.352111e-01	8.022146e+14	1.406993e+15	2.717153e+14	1.417966e+04	7.123111e+03	2.801919e+03	0	1.267578e-03
9.700000e+08	5.151397e+13	0.000000e+00	5.352111e-01	7.908562e+14	1.390055e+15	2.704888e+14	1.414291e+04	7.114237e+03	2.798428e+03	0	1.259075e-03
9.800000e+08	5.048908e+13	0.000000e+00	5.352111e-01	7.797698e+14	1.373497e+15	2.692707e+14	1.410667e+04	7.105478e+03	2.794983e+03	0	1.250669e-03
9.900000e+08	4.948916e+13	0.000000e+00	5.352111e-01	7.689464e+14	1.357307e+15	2.680609e+14	1.407094e+04	7.096830e+03	2.791581e+03	0	1.242358e-03
1.000000e+09	4.851339e+13	0.000000e+00	5.352111e-01	7.583773e+14	1.341473e+15	2.668592e+14	1.403570e+04	7.088293e+03	2.788223e+03	0	1.234138e-03
1.010000e+09	4.756096e+13	0.000000e+00	5.352111e-01	7.480542e+14	1.325985e+15	2.656658e+14	1.400094e+04	7.079861e+03	2.784906e+03	0	1.226008e-03
1.020000e+09	4.663110e+13	0.000000e+00	5.352111e-01	7.379691e+14	1.310831e+15	2.644804e+14	1.396666e+04	7.071535e+03	2.781631e+03	0	1.217966e-03
1.030000e+09	4.572309e+13	0.000000e+00	5.352111e-01	7.281144e+14	1.296000e+15	2.633030e+14	1.393283e+04	7.063311e+03	2.778396e+03	0	1.210009e-03
1.040000e+09	4.483622e+13	0.000000e+00	5.352111e-01	7.184827e+14	1.281484e+15	2.621336e+14	1.389946e+04	7.055186e+03	2.775200e+03	0	1.202134e-03
1.050000e+09	4.396982e+13	0.000000e+00	5.352111e-01	7.090670e+14	1.267272e+15	2.609721e+14	1.386652e+04	7.047160e+03	2.772043e+03	0	1.194341e-03
1.060000e+09	4.312324e+13	0.000000e+00	5.352111e-01	6.998606e+14	1.253354e+15	2.598184e+14	1.383401e+04	7.039229e+03	2.768923e+03	0	1.186626e-03
1.070000e+09	4.229586e+13	0.000000e+00	5.352111e-01	6.908570e+14	1.239723e+15	2.586725e+14	1.380193e+04	7.031393e+03	2.765841e+03	0	1.178988e-03
1.080000e+09	4.148708e+13	0.000000e+00	5.352111e-01	6.820499e+14	1.226369e+15	2.575342e+14	1.377025e+04	7.023647e+03	2.762794e+03	0	1.171424e-03
1.090000e+09	4.069632e+13	0.000000e+00	5.352111e-01	6.734334e+14	1.213285e+15	2.564037e+14	1.373898e+04	7.015992e+03	2.759783e+03	0	1.163934e-03
1.100000e+09	3.992305e+13	0.000000e+00	5.352111e-01	6.650016e+14	1.200462e+15	2.552807e+14	1.370810e+04	7.008425e+03	2.756806e+03	0	1.156515e-03
1.110000e+09	3.916673e+13	0.000000e+00	5.352111e-01	6.567492e+14	1.187893e+15	2.541653e+14	1.367760e+04	7.000944e+03	2.753864e+03	0	1.149165e-03
1.120000e+09	3.842684e+13	0.000000e+00	5.352111e-01	6.486707e+14	1.175571e+15	2.530573e+14	1.364748e+04	6.993548e+03	2.750954e+03	0	1.141883e-03
1.130000e+09	3.770291e+13	0.000000e+00	5.352111e-01	6.407611e+14	1.163488e+15	2.519568e+14	1.361774e+04	6.986234e+03	2.748077e+03	0	1.134666e-03
1.140000e+09	3.699445e+13	0.000000e+00	5.352111e-01	6.330153e+14	1.151638e+15	2.508636e+14	1.358835e+04	6.979002e+03	2.745232e+03	0	1.127515e-03
1.150000e+09	3.630102e+13	0.000000e+00	5.352111e-01	6.254288e+14	1.140014e+15	2.497777e+14	1.355931e+04	6.971849e+03	2.742419e+03	0	1.120425e-03
1.160000e+09	3.562219e+13	0.000000e+00	5.352111e-01	6.179968e+14	1.128610e+15	2.486991e+14	1.353063e+04	6.964773e+03	2.739636e+03	0	1.113397e-03
1.170000e+09	3.495752e+13	0.000000e+00	5.352111e-01	6.107151e+14	1.117421e+15	2.476276e+14	1.350228e+04	6.957775e+03	2.736883e+03	0	1.106429e-03
1.180000e+09	3.430661e+13	0.000000e+00	5.352111e-01	6.035793e+14	1.106439e+15	2.465633e+14	1.347426e+04	6.950851e+03	2.734159e+03	0	1.099519e-03
1.190000e+09	3.366908e+13	0.000000e+00	5.352111e-01	5.965854e+14	1.095660e+15	2.455061e+14	1.344657e+04	6.944001e+03	2.731465e+03	0	1.092665e-03
1.200000e+09	3.304454e+13	0.000000e+00	5.352111e-01	5.897295e+14	1.085077e+15	2.444558e+14	1.341920e+04	6.937223e+03	2.728799e+03	0	1.085867e-03
1.210000e+09	3.243264e+13	0.000000e+00	5.352111e-01	5.830076e+14	1.074687e+15	2.434126e+14	1.339215e+04	6.930515e+03	2.726160e+03	0	1.079122e-03
1.220000e+09	3.183302e+13	0.000000e+00	5.352111e-01	5.764163e+14	1.064483e+15	2.423762e+14	1.336540e+04	6.923878e+03	2.723549e+03	0	1.072431e-03
1.230000e+09	3.124535e+13	0.000000e+00	5.352111e-01	5.699518e+14	1.054461e+15	2.413467e+14	1.333895e+04	6.917308e+03	2.720965e+03	0	1.065790e-03
1.240000e+09	3.066930e+13	0.000000e+00	5.352111e-01	5.636109e+14	1.044617e+15	2.403240e+14	1.331280e+04	6.910805e+03	2.718407e+03	0	1.059200e-03
1.250000e+09	3.010455e+13	0.000000e+00	5.352111e-01	5.573902e+14	1.034944e+15	2.393081e+14	1.328693e+04	6.904368e+03	2.715875e+03	0	1.052658e-03
1.260000e+09	2.955080e+13	0.000000e+00	5.352111e-01	5.512865e+14	1.025440e+15	2.382988e+14	1.326136e+04	6.897995e+03	2.713368e+03	0	1.046164e-03
1.270000e+09	2.900777e+13	0.000000e+00	5.352111e-01	5.452967e+14	1.016100e+15	2.372962e+14	1.323606e+04	6.891686e+03	2.710886e+03	0	1.039716e-03
1.280000e+09	2.847515e+13	0.000000e+00	5.352111e-01	5.394179e+14	1.006919e+15	2.363002e+14	1.321103e+04	6.885438e+03	2.708429e+03	0	1.033313e-03
1.290000e+09	2.795269e+13	0.000000e+00	5.352111e-01	5.336472e+14	9.978940e+14	2.353107e+14	1.318627e+04	6.879252e+03	2.705995e+03	0	1.026954e-03
1.300000e+09	2.744011e+13	0.000000e+00	5.352111e-01	5.279818e+14	9.890210e+14	2.343278e+14	1.316178e+04	6.873126e+03	2.703586e+03	0	1.020638e-03
1.310000e+09	2.693716e+13	0.000000e+00	5.352111e-01	5.224190e+14	9.802960e+14	2.333513e+14	1.313755e+04	6.867058e+03	2.701199e+03	0	1.014364e-03
1.320000e+09	2.644360e+13	0.000000e+00	5.352111e-01	5.169563e+14	9.717156e+14	2.323811e+14	1.311357e+04	6.861049e+03	2.698835e+03	0	1.008131e-03
1.330000e+09	2.595917e+13	0.000000e+00	5.352111e-01	5.115910e+14	9.632762e+14	2.314174e+14	1.308984e+04	6.855097e+03	2.696494e+03	0	1.001937e-03
1.340000e+09	2.548366e+13	0.000000e+00	5.352111e-01	5.063208e+14	9.549745e+14	2.304599e+14	1.306636e+04	6.849200e+03	2.694174e+03	0	9.957811e-04
1.350000e+09	2.501683e+13	0.000000e+00	5.352111e-01	5.011434e+14	9.468070e+14	2.295086e+14	1.304311e+04	6.843358e+03	2.691876e+03	0	9.896631e-04
1.360000e+09	2.455847e+13	0.000000e+00	5.352111e-01	4.960563e+14	9.387708e+14	2.285636e+14	1.302011e+04	6.837571e+03	2.689600e+03	0	9.835816e-04
