#t		Qconv[W]	Ri[Rp]		R*[Rp]		Qc[W]		Qm[W]		Qr[W]		Tcmb[K]		Tl[K]		Tup[K]		RiFlag		Bs[T]
0.000000e+00	4.088700e+15	0.000000e+00	5.352113e-01	3.993802e+16	4.832423e+15	4.861736e+14	3.709416e+04	7.511666e+03	2.899461e+03	0	5.397079e-03
1.000000e+07	3.610691e+15	0.000000e+00	5.352113e-01	3.533567e+16	8.990193e+15	4.834799e+14	3.558586e+04	8.339168e+03	3.218872e+03	0	5.177981e-03
2.000000e+07	3.196344e+15	0.000000e+00	5.352113e-01	3.134548e+16	1.304778e+16	4.808063e+14	3.424458e+04	8.947053e+03	3.453512e+03	0	4.971814e-03
3.000000e+07	2.839681e+15	0.000000e+00	5.352113e-01	2.790982e+16	1.618939e+16	4.781526e+14	3.304934e+04	9.364513e+03	3.614649e+03	0	4.779549e-03
4.000000e+07	2.534100e+15	0.000000e+00	5.352113e-01	2.496518e+16	1.817440e+16	4.755188e+14	3.198078e+04	9.632542e+03	3.718107e+03	0	4.601558e-03
5.000000e+07	2.272550e+15	0.000000e+00	5.352113e-01	2.244377e+16	1.913827e+16	4.729046e+14	3.102147e+04	9.791287e+03	3.779382e+03	0	4.437464e-03
6.000000e+07	2.048236e+15	0.000000e+00	5.352113e-01	2.028032e+16	1.934616e+16	4.703100e+14	3.015621e+04	9.873707e+03	3.811195e+03	0	4.286377e-03
7.000000e+07	1.855099e+15	0.000000e+00	5.352113e-01	1.841664e+16	1.905333e+16	4.677346e+14	2.937205e+04	9.904372e+03	3.823032e+03	0	4.147178e-03
8.000000e+07	1.687980e+15	0.000000e+00	5.352113e-01	1.680319e+16	1.845740e+16	4.651784e+14	2.865804e+04	9.900650e+03	3.821595e+03	0	4.018705e-03
9.000000e+07	1.542599e+15	0.000000e+00	5.352113e-01	1.539884e+16	1.769597e+16	4.626412e+14	2.800501e+04	9.874471e+03	3.811490e+03	0	3.899851e-03
1.000000e+08	1.415441e+15	0.000000e+00	5.352113e-01	1.416986e+16	1.685896e+16	4.601228e+14	2.740523e+04	9.833915e+03	3.795836e+03	0	3.789608e-03
1.100000e+08	1.303631e+15	0.000000e+00	5.352113e-01	1.308861e+16	1.600253e+16	4.576231e+14	2.685221e+04	9.784416e+03	3.776729e+03	0	3.687075e-03
1.200000e+08	1.204818e+15	0.000000e+00	5.352113e-01	1.213249e+16	1.516030e+16	4.551420e+14	2.634045e+04	9.729623e+03	3.755580e+03	0	3.591458e-03
1.300000e+08	1.117068e+15	0.000000e+00	5.352113e-01	1.128294e+16	1.435134e+16	4.526792e+14	2.586527e+04	9.671982e+03	3.733331e+03	0	3.502060e-03
1.400000e+08	1.038789e+15	0.000000e+00	5.352113e-01	1.052464e+16	1.358556e+16	4.502346e+14	2.542267e+04	9.613129e+03	3.710614e+03	0	3.418268e-03
1.500000e+08	9.686589e+14	0.000000e+00	5.352113e-01	9.844882e+15	1.286720e+16	4.478081e+14	2.500923e+04	9.554154e+03	3.687850e+03	0	3.339545e-03
1.600000e+08	9.055776e+14	0.000000e+00	5.352113e-01	9.233081e+15	1.219710e+16	4.453996e+14	2.462198e+04	9.495776e+03	3.665316e+03	0	3.265419e-03
1.700000e+08	8.486222e+14	0.000000e+00	5.352113e-01	8.680362e+15	1.157411e+16	4.430088e+14	2.425834e+04	9.438462e+03	3.643193e+03	0	3.195473e-03
1.800000e+08	7.970157e+14	0.000000e+00	5.352113e-01	8.179249e+15	1.099595e+16	4.406356e+14	2.391608e+04	9.382506e+03	3.621594e+03	0	3.129339e-03
1.900000e+08	7.500999e+14	0.000000e+00	5.352113e-01	7.723408e+15	1.045982e+16	4.382800e+14	2.359324e+04	9.328085e+03	3.600588e+03	0	3.066691e-03
2.000000e+08	7.073149e+14	0.000000e+00	5.352113e-01	7.307449e+15	9.962689e+15	4.359416e+14	2.328808e+04	9.275294e+03	3.580211e+03	0	3.007239e-03
2.100000e+08	6.681820e+14	0.000000e+00	5.352113e-01	6.926762e+15	9.501514e+15	4.336204e+14	2.299909e+04	9.224173e+03	3.560479e+03	0	2.950724e-03
2.200000e+08	6.322899e+14	0.000000e+00	5.352113e-01	6.577387e+15	9.073359e+15	4.313163e+14	2.272491e+04	9.174726e+03	3.541392e+03	0	2.896915e-03
2.300000e+08	5.992840e+14	0.000000e+00	5.352113e-01	6.255907e+15	8.675452e+15	4.290291e+14	2.246435e+04	9.126929e+03	3.522943e+03	0	2.845605e-03
2.400000e+08	5.688569e+14	0.000000e+00	5.352113e-01	5.959360e+15	8.305221e+15	4.267587e+14	2.221634e+04	9.080743e+03	3.505115e+03	0	2.796606e-03
2.500000e+08	5.407414e+14	0.000000e+00	5.352113e-01	5.685171e+15	7.960298e+15	4.245049e+14	2.197991e+04	9.036118e+03	3.487891e+03	0	2.749752e-03
2.600000e+08	5.147042e+14	0.000000e+00	5.352113e-01	5.431091e+15	7.638522e+15	4.222676e+14	2.175420e+04	8.992999e+03	3.471247e+03	0	2.704890e-03
2.700000e+08	4.905411e+14	0.000000e+00	5.352113e-01	5.195149e+15	7.337924e+15	4.200467e+14	2.153844e+04	8.951326e+03	3.455161e+03	0	2.661882e-03
2.800000e+08	4.680722e+14	0.000000e+00	5.352113e-01	4.975612e+15	7.056720e+15	4.178419e+14	2.133192e+04	8.911038e+03	3.439611e+03	0	2.620603e-03
2.900000e+08	4.471392e+14	0.000000e+00	5.352113e-01	4.770952e+15	6.793294e+15	4.156533e+14	2.113402e+04	8.872075e+03	3.424571e+03	0	2.580940e-03
3.000000e+08	4.276018e+14	0.000000e+00	5.352113e-01	4.579815e+15	6.546181e+15	4.134806e+14	2.094415e+04	8.834376e+03	3.410019e+03	0	2.542788e-03
3.100000e+08	4.093357e+14	0.000000e+00	5.352113e-01	4.401001e+15	6.314059e+15	4.113238e+14	2.076180e+04	8.797885e+03	3.395934e+03	0	2.506053e-03
3.200000e+08	3.922302e+14	0.000000e+00	5.352113e-01	4.233440e+15	6.095727e+15	4.091826e+14	2.058648e+04	8.762544e+03	3.382293e+03	0	2.470647e-03
3.300000e+08	3.761865e+14	0.000000e+00	5.352113e-01	4.076179e+15	5.890101e+15	4.070570e+14	2.041775e+04	8.728301e+03	3.369075e+03	0	2.436491e-03
3.400000e+08	3.611161e+14	0.000000e+00	5.352113e-01	3.928364e+15	5.696197e+15	4.049469e+14	2.025521e+04	8.695105e+03	3.356262e+03	0	2.403510e-03
3.500000e+08	3.469399e+14	0.000000e+00	5.352113e-01	3.789229e+15	5.513122e+15	4.028520e+14	2.009851e+04	8.662906e+03	3.343833e+03	0	2.371638e-03
3.600000e+08	3.335866e+14	0.000000e+00	5.352113e-01	3.658085e+15	5.340064e+15	4.007724e+14	1.994729e+04	8.631660e+03	3.331772e+03	0	2.340812e-03
3.700000e+08	3.209920e+14	0.000000e+00	5.352113e-01	3.534311e+15	5.176287e+15	3.987078e+14	1.980125e+04	8.601321e+03	3.320061e+03	0	2.310974e-03
3.800000e+08	3.090979e+14	0.000000e+00	5.352113e-01	3.417346e+15	5.021119e+15	3.966581e+14	1.966009e+04	8.571849e+03	3.308686e+03	0	2.282070e-03
3.900000e+08	2.978521e+14	0.000000e+00	5.352113e-01	3.306683e+15	4.873948e+15	3.946233e+14	1.952356e+04	8.543205e+03	3.297629e+03	0	2.254052e-03
4.000000e+08	2.872069e+14	0.000000e+00	5.352113e-01	3.201861e+15	4.734214e+15	3.926031e+14	1.939140e+04	8.515352e+03	3.286878e+03	0	2.226872e-03
4.100000e+08	2.771190e+14	0.000000e+00	5.352113e-01	3.102462e+15	4.601407e+15	3.905976e+14	1.926339e+04	8.488254e+03	3.276418e+03	0	2.200489e-03
4.200000e+08	2.675491e+14	0.000000e+00	5.352113e-01	3.008104e+15	4.475059e+15	3.886064e+14	1.913932e+04	8.461880e+03	3.266238e+03	0	2.174861e-03
4.300000e+08	2.584612e+14	0.000000e+00	5.352113e-01	2.918439e+15	4.354740e+15	3.866297e+14	1.901898e+04	8.436197e+03	3.256325e+03	0	2.149952e-03
4.400000e+08	2.498226e+14	0.000000e+00	5.352113e-01	2.833151e+15	4.240058e+15	3.846671e+14	1.890219e+04	8.411177e+03	3.246667e+03	0	2.125727e-03
4.500000e+08	2.416032e+14	0.000000e+00	5.352113e-01	2.751948e+15	4.130650e+15	3.827186e+14	1.878879e+04	8.386791e+03	3.237254e+03	0	2.102154e-03
4.600000e+08	2.337756e+14	0.000000e+00	5.352113e-01	2.674564e+15	4.026183e+15	3.807842e+14	1.867860e+04	8.363014e+03	3.228076e+03	0	2.079202e-03
4.700000e+08	2.263145e+14	0.000000e+00	5.352113e-01	2.600753e+15	3.926351e+15	3.788636e+14	1.857149e+04	8.339820e+03	3.219124e+03	0	2.056843e-03
4.800000e+08	2.191965e+14	0.000000e+00	5.352113e-01	2.530290e+15	3.830870e+15	3.769567e+14	1.846731e+04	8.317186e+03	3.210387e+03	0	2.035049e-03
4.900000e+08	2.124005e+14	0.000000e+00	5.352113e-01	2.462969e+15	3.739478e+15	3.750636e+14	1.836592e+04	8.295090e+03	3.201858e+03	0	2.013796e-03
5.000000e+08	2.059066e+14	0.000000e+00	5.352113e-01	2.398597e+15	3.651934e+15	3.731839e+14	1.826721e+04	8.273510e+03	3.193528e+03	0	1.993060e-03
5.100000e+08	1.996966e+14	0.000000e+00	5.352113e-01	2.336998e+15	3.568014e+15	3.713177e+14	1.817105e+04	8.252426e+03	3.185390e+03	0	1.972819e-03
5.200000e+08	1.937537e+14	0.000000e+00	5.352113e-01	2.278009e+15	3.487510e+15	3.694648e+14	1.807735e+04	8.231820e+03	3.177436e+03	0	1.953052e-03
5.300000e+08	1.880624e+14	0.000000e+00	5.352113e-01	2.221478e+15	3.410228e+15	3.676251e+14	1.798599e+04	8.211674e+03	3.169660e+03	0	1.933738e-03
5.400000e+08	1.826081e+14	0.000000e+00	5.352113e-01	2.167265e+15	3.335991e+15	3.657985e+14	1.789688e+04	8.191970e+03	3.162054e+03	0	1.914860e-03
5.500000e+08	1.773774e+14	0.000000e+00	5.352113e-01	2.115240e+15	3.264630e+15	3.639850e+14	1.780993e+04	8.172692e+03	3.154613e+03	0	1.896399e-03
5.600000e+08	1.723580e+14	0.000000e+00	5.352113e-01	2.065281e+15	3.195992e+15	3.621843e+14	1.772504e+04	8.153825e+03	3.147331e+03	0	1.878340e-03
5.700000e+08	1.675382e+14	0.000000e+00	5.352113e-01	2.017277e+15	3.129931e+15	3.603964e+14	1.764215e+04	8.135354e+03	3.140201e+03	0	1.860665e-03
5.800000e+08	1.629072e+14	0.000000e+00	5.352113e-01	1.971121e+15	3.066312e+15	3.586212e+14	1.756117e+04	8.117265e+03	3.133219e+03	0	1.843361e-03
5.900000e+08	1.584550e+14	0.000000e+00	5.352113e-01	1.926718e+15	3.005009e+15	3.568585e+14	1.748203e+04	8.099545e+03	3.126379e+03	0	1.826413e-03
6.000000e+08	1.541722e+14	0.000000e+00	5.352113e-01	1.883974e+15	2.945905e+15	3.551084e+14	1.740466e+04	8.082181e+03	3.119676e+03	0	1.809807e-03
6.100000e+08	1.500500e+14	0.000000e+00	5.352113e-01	1.842805e+15	2.888889e+15	3.533706e+14	1.732899e+04	8.065161e+03	3.113107e+03	0	1.793532e-03
6.200000e+08	1.460803e+14	0.000000e+00	5.352113e-01	1.803131e+15	2.833857e+15	3.516451e+14	1.725496e+04	8.048473e+03	3.106665e+03	0	1.777573e-03
6.300000e+08	1.422553e+14	0.000000e+00	5.352113e-01	1.764877e+15	2.780714e+15	3.499318e+14	1.718252e+04	8.032107e+03	3.100348e+03	0	1.761921e-03
6.400000e+08	1.385678e+14	0.000000e+00	5.352113e-01	1.727974e+15	2.729367e+15	3.482305e+14	1.711160e+04	8.016052e+03	3.094151e+03	0	1.746564e-03
6.500000e+08	1.350112e+14	0.000000e+00	5.352113e-01	1.692355e+15	2.679732e+15	3.465413e+14	1.704216e+04	8.000298e+03	3.088070e+03	0	1.731491e-03
6.600000e+08	1.315792e+14	0.000000e+00	5.352113e-01	1.657960e+15	2.631728e+15	3.448639e+14	1.697413e+04	7.984836e+03	3.082102e+03	0	1.716693e-03
6.700000e+08	1.282657e+14	0.000000e+00	5.352113e-01	1.624730e+15	2.585280e+15	3.431984e+14	1.690748e+04	7.969655e+03	3.076242e+03	0	1.702160e-03
6.800000e+08	1.250652e+14	0.000000e+00	5.352113e-01	1.592611e+15	2.540318e+15	3.415445e+14	1.684216e+04	7.954748e+03	3.070488e+03	0	1.687883e-03
6.900000e+08	1.219724e+14	0.000000e+00	5.352113e-01	1.561551e+15	2.496773e+15	3.399022e+14	1.677812e+04	7.940106e+03	3.064836e+03	0	1.673854e-03
7.000000e+08	1.189824e+14	0.000000e+00	5.352113e-01	1.531503e+15	2.454583e+15	3.382715e+14	1.671532e+04	7.925721e+03	3.059284e+03	0	1.660063e-03
7.100000e+08	1.160906e+14	0.000000e+00	5.352113e-01	1.502421e+15	2.413688e+15	3.366521e+14	1.665372e+04	7.911585e+03	3.053827e+03	0	1.646504e-03
7.200000e+08	1.132925e+14	0.000000e+00	5.352113e-01	1.474262e+15	2.374033e+15	3.350441e+14	1.659329e+04	7.897691e+03	3.048464e+03	0	1.633168e-03
7.300000e+08	1.105841e+14	0.000000e+00	5.352113e-01	1.446985e+15	2.335564e+15	3.334473e+14	1.653398e+04	7.884032e+03	3.043192e+03	0	1.620048e-03
7.400000e+08	1.079613e+14	0.000000e+00	5.352113e-01	1.420553e+15	2.298230e+15	3.318617e+14	1.647576e+04	7.870600e+03	3.038007e+03	0	1.607138e-03
7.500000e+08	1.054205e+14	0.000000e+00	5.352113e-01	1.394929e+15	2.261985e+15	3.302871e+14	1.641860e+04	7.857391e+03	3.032908e+03	0	1.594430e-03
7.600000e+08	1.029582e+14	0.000000e+00	5.352113e-01	1.370080e+15	2.226784e+15	3.287235e+14	1.636246e+04	7.844396e+03	3.027893e+03	0	1.581918e-03
7.700000e+08	1.005711e+14	0.000000e+00	5.352113e-01	1.345972e+15	2.192583e+15	3.271708e+14	1.630731e+04	7.831610e+03	3.022957e+03	0	1.569597e-03
7.800000e+08	9.825610e+13	0.000000e+00	5.352113e-01	1.322575e+15	2.159343e+15	3.256289e+14	1.625314e+04	7.819028e+03	3.018101e+03	0	1.557460e-03
7.900000e+08	9.601014e+13	0.000000e+00	5.352113e-01	1.299861e+15	2.127025e+15	3.240976e+14	1.619989e+04	7.806643e+03	3.013320e+03	0	1.545501e-03
8.000000e+08	9.383045e+13	0.000000e+00	5.352113e-01	1.277801e+15	2.095592e+15	3.225770e+14	1.614756e+04	7.794451e+03	3.008614e+03	0	1.533716e-03
8.100000e+08	9.171437e+13	0.000000e+00	5.352113e-01	1.256369e+15	2.065011e+15	3.210669e+14	1.609611e+04	7.782445e+03	3.003980e+03	0	1.522099e-03
8.200000e+08	8.965935e+13	0.000000e+00	5.352113e-01	1.235541e+15	2.035248e+15	3.195673e+14	1.604552e+04	7.770622e+03	2.999416e+03	0	1.510644e-03
8.300000e+08	8.766300e+13	0.000000e+00	5.352113e-01	1.215294e+15	2.006272e+15	3.180781e+14	1.599576e+04	7.758977e+03	2.994921e+03	0	1.499348e-03
8.400000e+08	8.572302e+13	0.000000e+00	5.352113e-01	1.195604e+15	1.978054e+15	3.165991e+14	1.594681e+04	7.747504e+03	2.990493e+03	0	1.488205e-03
8.500000e+08	8.383724e+13	0.000000e+00	5.352113e-01	1.176451e+15	1.950565e+15	3.151303e+14	1.589865e+04	7.736200e+03	2.986129e+03	0	1.477211e-03
8.600000e+08	8.200359e+13	0.000000e+00	5.352113e-01	1.157813e+15	1.923779e+15	3.136717e+14	1.585126e+04	7.725059e+03	2.981829e+03	0	1.466362e-03
8.700000e+08	8.022011e+13	0.000000e+00	5.352113e-01	1.139673e+15	1.897669e+15	3.122231e+14	1.580462e+04	7.714079e+03	2.977591e+03	0	1.455654e-03
8.800000e+08	7.848492e+13	0.000000e+00	5.352113e-01	1.122011e+15	1.872212e+15	3.107845e+14	1.575870e+04	7.703254e+03	2.973413e+03	0	1.445082e-03
8.900000e+08	7.679623e+13	0.000000e+00	5.352113e-01	1.104810e+15	1.847384e+15	3.093557e+14	1.571349e+04	7.692581e+03	2.969293e+03	0	1.434642e-03
9.000000e+08	7.515234e+13	0.000000e+00	5.352113e-01	1.088054e+15	1.823162e+15	3.079368e+14	1.566897e+04	7.682057e+03	2.965231e+03	0	1.424332e-03
9.100000e+08	7.355163e+13	0.000000e+00	5.352113e-01	1.071725e+15	1.799526e+15	3.065276e+14	1.562513e+04	7.671678e+03	2.961224e+03	0	1.414147e-03
9.200000e+08	7.199255e+13	0.000000e+00	5.352113e-01	1.055810e+15	1.776456e+15	3.051280e+14	1.558193e+04	7.661439e+03	2.957272e+03	0	1.404083e-03
9.300000e+08	7.047362e+13	0.000000e+00	5.352113e-01	1.040294e+15	1.753931e+15	3.037380e+14	1.553938e+04	7.651339e+03	2.953374e+03	0	1.394138e-03
9.400000e+08	6.899342e+13	0.000000e+00	5.352113e-01	1.025162e+15	1.731933e+15	3.023575e+14	1.549744e+04	7.641373e+03	2.949527e+03	0	1.384309e-03
9.500000e+08	6.755061e+13	0.000000e+00	5.352113e-01	1.010402e+15	1.710446e+15	3.009864e+14	1.545612e+04	7.631539e+03	2.945731e+03	0	1.374591e-03
9.600000e+08	6.614389e+13	0.000000e+00	5.352113e-01	9.960009e+14	1.689451e+15	2.996247e+14	1.541539e+04	7.621833e+03	2.941985e+03	0	1.364982e-03
9.700000e+08	6.477203e+13	0.000000e+00	5.352113e-01	9.819463e+14	1.668932e+15	2.982723e+14	1.537523e+04	7.612253e+03	2.938287e+03	0	1.355479e-03
9.800000e+08	6.343386e+13	0.000000e+00	5.352113e-01	9.682267e+14	1.648875e+15	2.969290e+14	1.533564e+04	7.602795e+03	2.934636e+03	0	1.346080e-03
9.900000e+08	6.212823e+13	0.000000e+00	5.352113e-01	9.548312e+14	1.629263e+15	2.955949e+14	1.529660e+04	7.593457e+03	2.931032e+03	0	1.336780e-03
1.000000e+09	6.085408e+13	0.000000e+00	5.352113e-01	9.417490e+14	1.610084e+15	2.942699e+14	1.525809e+04	7.584237e+03	2.927473e+03	0	1.327579e-03
1.010000e+09	5.961035e+13	0.000000e+00	5.352113e-01	9.289699e+14	1.591322e+15	2.929538e+14	1.522011e+04	7.575131e+03	2.923958e+03	0	1.318472e-03
1.020000e+09	5.839607e+13	0.000000e+00	5.352113e-01	9.164842e+14	1.572966e+15	2.916466e+14	1.518265e+04	7.566137e+03	2.920486e+03	0	1.309458e-03
1.030000e+09	5.721027e+13	0.000000e+00	5.352113e-01	9.042825e+14	1.555002e+15	2.903483e+14	1.514569e+04	7.557252e+03	2.917057e+03	0	1.300534e-03
1.040000e+09	5.605204e+13	0.000000e+00	5.352113e-01	8.923558e+14	1.537418e+15	2.890588e+14	1.510921e+04	7.548476e+03	2.913669e+03	0	1.291698e-03
1.050000e+09	5.492051e+13	0.000000e+00	5.352113e-01	8.806954e+14	1.520203e+15	2.877780e+14	1.507322e+04	7.539804e+03	2.910322e+03	0	1.282946e-03
1.060000e+09	5.381484e+13	0.000000e+00	5.352113e-01	8.692932e+14	1.503345e+15	2.865058e+14	1.503769e+04	7.531234e+03	2.907014e+03	0	1.274279e-03
1.070000e+09	5.273421e+13	0.000000e+00	5.352113e-01	8.581410e+14	1.486834e+15	2.852422e+14	1.500262e+04	7.522766e+03	2.903745e+03	0	1.265691e-03
1.080000e+09	5.167786e+13	0.000000e+00	5.352113e-01	8.472313e+14	1.470660e+15	2.839870e+14	1.496800e+04	7.514396e+03	2.900515e+03	0	1.257183e-03
1.090000e+09	5.064504e+13	0.000000e+00	5.352113e-01	8.365567e+14	1.454812e+15	2.827404e+14	1.493382e+04	7.506123e+03	2.897321e+03	0	1.248751e-03
1.100000e+09	4.963502e+13	0.000000e+00	5.352113e-01	8.261102e+14	1.439282e+15	2.815021e+14	1.490006e+04	7.497944e+03	2.894164e+03	0	1.240394e-03
1.110000e+09	4.864713e+13	0.000000e+00	5.352113e-01	8.158850e+14	1.424059e+15	2.802721e+14	1.486673e+04	7.489857e+03	2.891043e+03	0	1.232110e-03
1.120000e+09	4.768070e+13	0.000000e+00	5.352113e-01	8.058745e+14	1.409136e+15	2.790503e+14	1.483380e+04	7.481862e+03	2.887956e+03	0	1.223896e-03
1.130000e+09	4.673510e+13	0.000000e+00	5.352113e-01	7.960724e+14	1.394503e+15	2.778367e+14	1.480128e+04	7.473955e+03	2.884905e+03	0	1.215751e-03
1.140000e+09	4.580970e+13	0.000000e+00	5.352113e-01	7.864727e+14	1.380152e+15	2.766312e+14	1.476915e+04	7.466135e+03	2.881886e+03	0	1.207673e-03
1.150000e+09	4.490393e+13	0.000000e+00	5.352113e-01	7.770696e+14	1.366076e+15	2.754338e+14	1.473741e+04	7.458401e+03	2.878901e+03	0	1.199661e-03
1.160000e+09	4.401720e+13	0.000000e+00	5.352113e-01	7.678574e+14	1.352267e+15	2.742444e+14	1.470605e+04	7.450751e+03	2.875948e+03	0	1.191712e-03
1.170000e+09	4.314898e+13	0.000000e+00	5.352113e-01	7.588308e+14	1.338717e+15	2.730629e+14	1.467506e+04	7.443183e+03	2.873027e+03	0	1.183824e-03
1.180000e+09	4.229874e+13	0.000000e+00	5.352113e-01	7.499844e+14	1.325420e+15	2.718892e+14	1.464443e+04	7.435696e+03	2.870137e+03	0	1.175997e-03
1.190000e+09	4.146597e+13	0.000000e+00	5.352113e-01	7.413134e+14	1.312369e+15	2.707234e+14	1.461415e+04	7.428287e+03	2.867277e+03	0	1.168228e-03
1.200000e+09	4.065017e+13	0.000000e+00	5.352113e-01	7.328128e+14	1.299556e+15	2.695653e+14	1.458423e+04	7.420956e+03	2.864447e+03	0	1.160516e-03
1.210000e+09	3.985088e+13	0.000000e+00	5.352113e-01	7.244779e+14	1.286976e+15	2.684148e+14	1.455464e+04	7.413702e+03	2.861647e+03	0	1.152859e-03
1.220000e+09	3.906763e+13	0.000000e+00	5.352113e-01	7.163043e+14	1.274623e+15	2.672720e+14	1.452539e+04	7.406522e+03	2.858876e+03	0	1.145256e-03
1.230000e+09	3.830000e+13	0.000000e+00	5.352113e-01	7.082876e+14	1.262491e+15	2.661368e+14	1.449647e+04	7.399415e+03	2.856132e+03	0	1.137706e-03
1.240000e+09	3.754755e+13	0.000000e+00	5.352113e-01	7.004235e+14	1.250573e+15	2.650090e+14	1.446788e+04	7.392380e+03	2.853417e+03	0	1.130206e-03
1.250000e+09	3.680987e+13	0.000000e+00	5.352113e-01	6.927081e+14	1.238865e+15	2.638887e+14	1.443959e+04	7.385416e+03	2.850729e+03	0	1.122755e-03
1.260000e+09	3.608657e+13	0.000000e+00	5.352113e-01	6.851373e+14	1.227361e+15	2.627758e+14	1.441162e+04	7.378522e+03	2.848068e+03	0	1.115353e-03
1.270000e+09	3.537727e+13	0.000000e+00	5.352113e-01	6.777074e+14	1.216056e+15	2.616702e+14	1.438396e+04	7.371695e+03	2.845433e+03	0	1.107997e-03
1.280000e+09	3.468159e+13	0.000000e+00	5.352113e-01	6.704148e+14	1.204945e+15	2.605719e+14	1.435659e+04	7.364935e+03	2.842824e+03	0	1.100686e-03
1.290000e+09	3.399918e+13	0.000000e+00	5.352113e-01	6.632558e+14	1.194023e+15	2.594808e+14	1.432951e+04	7.358242e+03	2.840240e+03	0	1.093419e-03
1.300000e+09	3.332969e+13	0.000000e+00	5.352113e-01	6.562271e+14	1.183285e+15	2.583969e+14	1.430273e+04	7.351612e+03	2.837681e+03	0	1.086194e-03
1.310000e+09	3.267279e+13	0.000000e+00	5.352113e-01	6.493254e+14	1.172727e+15	2.573201e+14	1.427623e+04	7.345047e+03	2.835147e+03	0	1.079011e-03
1.320000e+09	3.202815e+13	0.000000e+00	5.352113e-01	6.425473e+14	1.162344e+15	2.562503e+14	1.425000e+04	7.338543e+03	2.832636e+03	0	1.071867e-03
1.330000e+09	3.139546e+13	0.000000e+00	5.352113e-01	6.358900e+14	1.152133e+15	2.551875e+14	1.422405e+04	7.332101e+03	2.830150e+03	0	1.064762e-03
1.340000e+09	3.077443e+13	0.000000e+00	5.352113e-01	6.293502e+14	1.142088e+15	2.541317e+14	1.419836e+04	7.325720e+03	2.827687e+03	0	1.057695e-03
1.350000e+09	3.016475e+13	0.000000e+00	5.352113e-01	6.229251e+14	1.132207e+15	2.530828e+14	1.417294e+04	7.319397e+03	2.825246e+03	0	1.050663e-03
1.360000e+09	2.956615e+13	0.000000e+00	5.352113e-01	6.166120e+14	1.122485e+15	2.520407e+14	1.414778e+04	7.313133e+03	2.822828e+03	0	1.043667e-03
