#t		Qconv[W]	Ri[Rp]		R*[Rp]		Qc[W]		Qm[W]		Qr[W]		Tcmb[K]		Tl[K]		Tup[K]		RiFlag		Bs[T]
0.000000e+00	1.341386e+14	0.000000e+00	5.390070e-01	1.734144e+15	1.906365e+15	4.972806e+14	1.878722e+04	5.518956e+03	2.939166e+03	0	1.729123e-03
1.000000e+07	1.311998e+14	0.000000e+00	5.390070e-01	1.705018e+15	1.912812e+15	4.945253e+14	1.872068e+04	5.525647e+03	2.942730e+03	0	1.716402e-03
2.000000e+07	1.283280e+14	0.000000e+00	5.390070e-01	1.676545e+15	1.917462e+15	4.917906e+14	1.865525e+04	5.531548e+03	2.945872e+03	0	1.703786e-03
3.000000e+07	1.255220e+14	0.000000e+00	5.390070e-01	1.648715e+15	1.920433e+15	4.890764e+14	1.859090e+04	5.536708e+03	2.948621e+03	0	1.691277e-03
4.000000e+07	1.227807e+14	0.000000e+00	5.390070e-01	1.621515e+15	1.921840e+15	4.863824e+14	1.852762e+04	5.541177e+03	2.951000e+03	0	1.678874e-03
5.000000e+07	1.201029e+14	0.000000e+00	5.390070e-01	1.594934e+15	1.921795e+15	4.837085e+14	1.846537e+04	5.544999e+03	2.953036e+03	0	1.666579e-03
6.000000e+07	1.174874e+14	0.000000e+00	5.390070e-01	1.568960e+15	1.920407e+15	4.810545e+14	1.840414e+04	5.548219e+03	2.954751e+03	0	1.654392e-03
7.000000e+07	1.149329e+14	0.000000e+00	5.390070e-01	1.543582e+15	1.917776e+15	4.784203e+14	1.834390e+04	5.550877e+03	2.956166e+03	0	1.642314e-03
8.000000e+07	1.124382e+14	0.000000e+00	5.390070e-01	1.518786e+15	1.914002e+15	4.758057e+14	1.828463e+04	5.553010e+03	2.957303e+03	0	1.630344e-03
9.000000e+07	1.100020e+14	0.000000e+00	5.390070e-01	1.494559e+15	1.909178e+15	4.732105e+14	1.822631e+04	5.554656e+03	2.958179e+03	0	1.618483e-03
1.000000e+08	1.076230e+14	0.000000e+00	5.390070e-01	1.470891e+15	1.903390e+15	4.706346e+14	1.816891e+04	5.555849e+03	2.958814e+03	0	1.606731e-03
1.100000e+08	1.052999e+14	0.000000e+00	5.390070e-01	1.447767e+15	1.896722e+15	4.680778e+14	1.811241e+04	5.556618e+03	2.959224e+03	0	1.595086e-03
1.200000e+08	1.030314e+14	0.000000e+00	5.390070e-01	1.425175e+15	1.889253e+15	4.655400e+14	1.805680e+04	5.556996e+03	2.959425e+03	0	1.583548e-03
1.300000e+08	1.008162e+14	0.000000e+00	5.390070e-01	1.403102e+15	1.881055e+15	4.630209e+14	1.800205e+04	5.557008e+03	2.959432e+03	0	1.572117e-03
1.400000e+08	9.865296e+13	0.000000e+00	5.390070e-01	1.381536e+15	1.872197e+15	4.605205e+14	1.794814e+04	5.556683e+03	2.959258e+03	0	1.560791e-03
1.500000e+08	9.654048e+13	0.000000e+00	5.390070e-01	1.360465e+15	1.862744e+15	4.580386e+14	1.789506e+04	5.556043e+03	2.958917e+03	0	1.549570e-03
1.600000e+08	9.447748e+13	0.000000e+00	5.390070e-01	1.339876e+15	1.852755e+15	4.555750e+14	1.784278e+04	5.555111e+03	2.958421e+03	0	1.538453e-03
1.700000e+08	9.246269e+13	0.000000e+00	5.390070e-01	1.319756e+15	1.842285e+15	4.531296e+14	1.779129e+04	5.553910e+03	2.957782e+03	0	1.527438e-03
1.800000e+08	9.049488e+13	0.000000e+00	5.390070e-01	1.300095e+15	1.831388e+15	4.507022e+14	1.774057e+04	5.552459e+03	2.957009e+03	0	1.516524e-03
1.900000e+08	8.857284e+13	0.000000e+00	5.390070e-01	1.280881e+15	1.820110e+15	4.482927e+14	1.769060e+04	5.550776e+03	2.956113e+03	0	1.505711e-03
2.000000e+08	8.669538e+13	0.000000e+00	5.390070e-01	1.262101e+15	1.808496e+15	4.459010e+14	1.764137e+04	5.548880e+03	2.955103e+03	0	1.494996e-03
2.100000e+08	8.486132e+13	0.000000e+00	5.390070e-01	1.243744e+15	1.796588e+15	4.435268e+14	1.759285e+04	5.546785e+03	2.953987e+03	0	1.484378e-03
2.200000e+08	8.306953e+13	0.000000e+00	5.390070e-01	1.225799e+15	1.784424e+15	4.411700e+14	1.754503e+04	5.544508e+03	2.952775e+03	0	1.473857e-03
2.300000e+08	8.131887e+13	0.000000e+00	5.390070e-01	1.208257e+15	1.772039e+15	4.388306e+14	1.749791e+04	5.542063e+03	2.951472e+03	0	1.463430e-03
2.400000e+08	7.960825e+13	0.000000e+00	5.390070e-01	1.191104e+15	1.759465e+15	4.365083e+14	1.745145e+04	5.539462e+03	2.950087e+03	0	1.453095e-03
2.500000e+08	7.793659e+13	0.000000e+00	5.390070e-01	1.174332e+15	1.746732e+15	4.342030e+14	1.740565e+04	5.536718e+03	2.948626e+03	0	1.442852e-03
2.600000e+08	7.630285e+13	0.000000e+00	5.390070e-01	1.157931e+15	1.733868e+15	4.319146e+14	1.736049e+04	5.533843e+03	2.947095e+03	0	1.432699e-03
2.700000e+08	7.470600e+13	0.000000e+00	5.390070e-01	1.141889e+15	1.720897e+15	4.296429e+14	1.731596e+04	5.530847e+03	2.945499e+03	0	1.422634e-03
2.800000e+08	7.314504e+13	0.000000e+00	5.390070e-01	1.126199e+15	1.707844e+15	4.273878e+14	1.727204e+04	5.527740e+03	2.943844e+03	0	1.412656e-03
2.900000e+08	7.161901e+13	0.000000e+00	5.390070e-01	1.110849e+15	1.694729e+15	4.251492e+14	1.722872e+04	5.524531e+03	2.942136e+03	0	1.402762e-03
3.000000e+08	7.012696e+13	0.000000e+00	5.390070e-01	1.095832e+15	1.681571e+15	4.229269e+14	1.718599e+04	5.521229e+03	2.940377e+03	0	1.392953e-03
3.100000e+08	6.866796e+13	0.000000e+00	5.390070e-01	1.081138e+15	1.668388e+15	4.207207e+14	1.714384e+04	5.517843e+03	2.938574e+03	0	1.383225e-03
3.200000e+08	6.724112e+13	0.000000e+00	5.390070e-01	1.066758e+15	1.655197e+15	4.185307e+14	1.710225e+04	5.514379e+03	2.936729e+03	0	1.373577e-03
3.300000e+08	6.584557e+13	0.000000e+00	5.390070e-01	1.052684e+15	1.642012e+15	4.163565e+14	1.706120e+04	5.510845e+03	2.934847e+03	0	1.364008e-03
3.400000e+08	6.448046e+13	0.000000e+00	5.390070e-01	1.038908e+15	1.628847e+15	4.141981e+14	1.702070e+04	5.507247e+03	2.932931e+03	0	1.354516e-03
3.500000e+08	6.314497e+13	0.000000e+00	5.390070e-01	1.025422e+15	1.615713e+15	4.120554e+14	1.698073e+04	5.503591e+03	2.930984e+03	0	1.345099e-03
3.600000e+08	6.183829e+13	0.000000e+00	5.390070e-01	1.012218e+15	1.602622e+15	4.099283e+14	1.694127e+04	5.499883e+03	2.929009e+03	0	1.335756e-03
3.700000e+08	6.055965e+13	0.000000e+00	5.390070e-01	9.992887e+14	1.589583e+15	4.078165e+14	1.690232e+04	5.496128e+03	2.927009e+03	0	1.326485e-03
3.800000e+08	5.930829e+13	0.000000e+00	5.390070e-01	9.866266e+14	1.576606e+15	4.057200e+14	1.686386e+04	5.492332e+03	2.924988e+03	0	1.317285e-03
3.900000e+08	5.808349e+13	0.000000e+00	5.390070e-01	9.742246e+14	1.563698e+15	4.036387e+14	1.682589e+04	5.488498e+03	2.922946e+03	0	1.308154e-03
4.000000e+08	5.688452e+13	0.000000e+00	5.390070e-01	9.620759e+14	1.550868e+15	4.015724e+14	1.678839e+04	5.484630e+03	2.920886e+03	0	1.299091e-03
4.100000e+08	5.571071e+13	0.000000e+00	5.390070e-01	9.501738e+14	1.538121e+15	3.995210e+14	1.675136e+04	5.480734e+03	2.918811e+03	0	1.290093e-03
4.200000e+08	5.456137e+13	0.000000e+00	5.390070e-01	9.385117e+14	1.525463e+15	3.974844e+14	1.671479e+04	5.476812e+03	2.916723e+03	0	1.281159e-03
4.300000e+08	5.343586e+13	0.000000e+00	5.390070e-01	9.270834e+14	1.512899e+15	3.954625e+14	1.667866e+04	5.472869e+03	2.914622e+03	0	1.272289e-03
4.400000e+08	5.233354e+13	0.000000e+00	5.390070e-01	9.158828e+14	1.500435e+15	3.934551e+14	1.664297e+04	5.468906e+03	2.912512e+03	0	1.263479e-03
4.500000e+08	5.125382e+13	0.000000e+00	5.390070e-01	9.049040e+14	1.488073e+15	3.914621e+14	1.660771e+04	5.464928e+03	2.910393e+03	0	1.254729e-03
4.600000e+08	5.019608e+13	0.000000e+00	5.390070e-01	8.941411e+14	1.475818e+15	3.894834e+14	1.657287e+04	5.460936e+03	2.908268e+03	0	1.246038e-03
4.700000e+08	4.915976e+13	0.000000e+00	5.390070e-01	8.835885e+14	1.463673e+15	3.875190e+14	1.653844e+04	5.456934e+03	2.906136e+03	0	1.237403e-03
4.800000e+08	4.814429e+13	0.000000e+00	5.390070e-01	8.732410e+14	1.451640e+15	3.855686e+14	1.650442e+04	5.452924e+03	2.904001e+03	0	1.228824e-03
4.900000e+08	4.714914e+13	0.000000e+00	5.390070e-01	8.630932e+14	1.439721e+15	3.836321e+14	1.647080e+04	5.448908e+03	2.901862e+03	0	1.220298e-03
5.000000e+08	4.617377e+13	0.000000e+00	5.390070e-01	8.531399e+14	1.427919e+15	3.817095e+14	1.643756e+04	5.444888e+03	2.899721e+03	0	1.211825e-03
5.100000e+08	4.521769e+13	0.000000e+00	5.390070e-01	8.433763e+14	1.416235e+15	3.798007e+14	1.640471e+04	5.440866e+03	2.897579e+03	0	1.203402e-03
5.200000e+08	4.428038e+13	0.000000e+00	5.390070e-01	8.337976e+14	1.404670e+15	3.779055e+14	1.637223e+04	5.436844e+03	2.895437e+03	0	1.195029e-03
5.300000e+08	4.336138e+13	0.000000e+00	5.390070e-01	8.243990e+14	1.393225e+15	3.760238e+14	1.634011e+04	5.432823e+03	2.893296e+03	0	1.186704e-03
5.400000e+08	4.246022e+13	0.000000e+00	5.390070e-01	8.151761e+14	1.381902e+15	3.741554e+14	1.630836e+04	5.428806e+03	2.891156e+03	0	1.178425e-03
5.500000e+08	4.157644e+13	0.000000e+00	5.390070e-01	8.061245e+14	1.370700e+15	3.723004e+14	1.627696e+04	5.424792e+03	2.889019e+03	0	1.170192e-03
5.600000e+08	4.070961e+13	0.000000e+00	5.390070e-01	7.972400e+14	1.359621e+15	3.704586e+14	1.624591e+04	5.420785e+03	2.886885e+03	0	1.162002e-03
5.700000e+08	3.985930e+13	0.000000e+00	5.390070e-01	7.885183e+14	1.348663e+15	3.686299e+14	1.621521e+04	5.416784e+03	2.884754e+03	0	1.153855e-03
5.800000e+08	3.902510e+13	0.000000e+00	5.390070e-01	7.799555e+14	1.337828e+15	3.668141e+14	1.618483e+04	5.412792e+03	2.882628e+03	0	1.145749e-03
5.900000e+08	3.820661e+13	0.000000e+00	5.390070e-01	7.715477e+14	1.327114e+15	3.650112e+14	1.615478e+04	5.408809e+03	2.880507e+03	0	1.137682e-03
6.000000e+08	3.740343e+13	0.000000e+00	5.390070e-01	7.632911e+14	1.316523e+15	3.632210e+14	1.612506e+04	5.404835e+03	2.878391e+03	0	1.129653e-03
6.100000e+08	3.661520e+13	0.000000e+00	5.390070e-01	7.551820e+14	1.306052e+15	3.614436e+14	1.609565e+04	5.400873e+03	2.876281e+03	0	1.121662e-03
6.200000e+08	3.584155e+13	0.000000e+00	5.390070e-01	7.472169e+14	1.295703e+15	3.596787e+14	1.606656e+04	5.396923e+03	2.874177e+03	0	1.113705e-03
6.300000e+08	3.508212e+13	0.000000e+00	5.390070e-01	7.393924e+14	1.285473e+15	3.579262e+14	1.603777e+04	5.392985e+03	2.872079e+03	0	1.105783e-03
6.400000e+08	3.433656e+13	0.000000e+00	5.390070e-01	7.317050e+14	1.275363e+15	3.561861e+14	1.600928e+04	5.389060e+03	2.869989e+03	0	1.097894e-03
6.500000e+08	3.360455e+13	0.000000e+00	5.390070e-01	7.241516e+14	1.265372e+15	3.544583e+14	1.598109e+04	5.385149e+03	2.867906e+03	0	1.090036e-03
6.600000e+08	3.288575e+13	0.000000e+00	5.390070e-01	7.167289e+14	1.255498e+15	3.527426e+14	1.595318e+04	5.381252e+03	2.865831e+03	0	1.082208e-03
6.700000e+08	3.217986e+13	0.000000e+00	5.390070e-01	7.094338e+14	1.245741e+15	3.510390e+14	1.592556e+04	5.377371e+03	2.863764e+03	0	1.074408e-03
6.800000e+08	3.148655e+13	0.000000e+00	5.390070e-01	7.022635e+14	1.236099e+15	3.493473e+14	1.589823e+04	5.373505e+03	2.861705e+03	0	1.066636e-03
6.900000e+08	3.080555e+13	0.000000e+00	5.390070e-01	6.952149e+14	1.226573e+15	3.476675e+14	1.587116e+04	5.369654e+03	2.859655e+03	0	1.058890e-03
7.000000e+08	3.013655e+13	0.000000e+00	5.390070e-01	6.882853e+14	1.217159e+15	3.459995e+14	1.584437e+04	5.365820e+03	2.857613e+03	0	1.051169e-03
7.100000e+08	2.947928e+13	0.000000e+00	5.390070e-01	6.814720e+14	1.207859e+15	3.443432e+14	1.581784e+04	5.362003e+03	2.855580e+03	0	1.043471e-03
7.200000e+08	2.883346e+13	0.000000e+00	5.390070e-01	6.747722e+14	1.198669e+15	3.426984e+14	1.579158e+04	5.358203e+03	2.853556e+03	0	1.035795e-03
7.300000e+08	2.819882e+13	0.000000e+00	5.390070e-01	6.681834e+14	1.189590e+15	3.410652e+14	1.576557e+04	5.354420e+03	2.851541e+03	0	1.028139e-03
7.400000e+08	2.757512e+13	0.000000e+00	5.390070e-01	6.617031e+14	1.180619e+15	3.394433e+14	1.573982e+04	5.350654e+03	2.849536e+03	0	1.020502e-03
7.500000e+08	2.696210e+13	0.000000e+00	5.390070e-01	6.553288e+14	1.171756e+15	3.378328e+14	1.571431e+04	5.346907e+03	2.847540e+03	0	1.012883e-03
7.600000e+08	2.635952e+13	0.000000e+00	5.390070e-01	6.490582e+14	1.162999e+15	3.362334e+14	1.568905e+04	5.343177e+03	2.845554e+03	0	1.005280e-03
7.700000e+08	2.576713e+13	0.000000e+00	5.390070e-01	6.428889e+14	1.154347e+15	3.346452e+14	1.566403e+04	5.339465e+03	2.843577e+03	0	9.976925e-04
7.800000e+08	2.518471e+13	0.000000e+00	5.390070e-01	6.368187e+14	1.145799e+15	3.330681e+14	1.563925e+04	5.335772e+03	2.841610e+03	0	9.901182e-04
7.900000e+08	2.461204e+13	0.000000e+00	5.390070e-01	6.308454e+14	1.137354e+15	3.315018e+14	1.561470e+04	5.332097e+03	2.839653e+03	0	9.825559e-04
8.000000e+08	2.404890e+13	0.000000e+00	5.390070e-01	6.249669e+14	1.129009e+15	3.299465e+14	1.559038e+04	5.328441e+03	2.837706e+03	0	9.750041e-04
8.100000e+08	2.349507e+13	0.000000e+00	5.390070e-01	6.191811e+14	1.120764e+15	3.284019e+14	1.556629e+04	5.324804e+03	2.835769e+03	0	9.674613e-04
8.200000e+08	2.295035e+13	0.000000e+00	5.390070e-01	6.134860e+14	1.112618e+15	3.268680e+14	1.554241e+04	5.321185e+03	2.833842e+03	0	9.599262e-04
8.300000e+08	2.241455e+13	0.000000e+00	5.390070e-01	6.078797e+14	1.104569e+15	3.253448e+14	1.551876e+04	5.317586e+03	2.831925e+03	0	9.523970e-04
8.400000e+08	2.188746e+13	0.000000e+00	5.390070e-01	6.023602e+14	1.096615e+15	3.238320e+14	1.549532e+04	5.314005e+03	2.830018e+03	0	9.448723e-04
8.500000e+08	2.136889e+13	0.000000e+00	5.390070e-01	5.969257e+14	1.088756e+15	3.223297e+14	1.547210e+04	5.310443e+03	2.828121e+03	0	9.373505e-04
8.600000e+08	2.085867e+13	0.000000e+00	5.390070e-01	5.915743e+14	1.080991e+15	3.208377e+14	1.544908e+04	5.306900e+03	2.826234e+03	0	9.298300e-04
8.700000e+08	2.035661e+13	0.000000e+00	5.390070e-01	5.863044e+14	1.073317e+15	3.193560e+14	1.542627e+04	5.303376e+03	2.824358e+03	0	9.223091e-04
8.800000e+08	1.986253e+13	0.000000e+00	5.390070e-01	5.811143e+14	1.065734e+15	3.178845e+14	1.540366e+04	5.299871e+03	2.822491e+03	0	9.147861e-04
8.900000e+08	1.937627e+13	0.000000e+00	5.390070e-01	5.760021e+14	1.058240e+15	3.164231e+14	1.538126e+04	5.296385e+03	2.820635e+03	0	9.072593e-04
9.000000e+08	1.889767e+13	0.000000e+00	5.390070e-01	5.709664e+14	1.050835e+15	3.149718e+14	1.535904e+04	5.292918e+03	2.818788e+03	0	8.997270e-04
9.100000e+08	1.842655e+13	0.000000e+00	5.390070e-01	5.660056e+14	1.043516e+15	3.135304e+14	1.533703e+04	5.289470e+03	2.816952e+03	0	8.921873e-04
9.200000e+08	1.796277e+13	0.000000e+00	5.390070e-01	5.611181e+14	1.036283e+15	3.120988e+14	1.531520e+04	5.286041e+03	2.815126e+03	0	8.846384e-04
9.300000e+08	1.750616e+13	0.000000e+00	5.390070e-01	5.563023e+14	1.029135e+15	3.106771e+14	1.529356e+04	5.282630e+03	2.813309e+03	0	8.770783e-04
9.400000e+08	1.705659e+13	0.000000e+00	5.390070e-01	5.515570e+14	1.022069e+15	3.092651e+14	1.527211e+04	5.279239e+03	2.811503e+03	0	8.695050e-04
9.500000e+08	1.661390e+13	0.000000e+00	5.390070e-01	5.468805e+14	1.015086e+15	3.078627e+14	1.525083e+04	5.275866e+03	2.809707e+03	0	8.619166e-04
9.600000e+08	1.617796e+13	0.000000e+00	5.390070e-01	5.422716e+14	1.008183e+15	3.064698e+14	1.522974e+04	5.272512e+03	2.807921e+03	0	8.543109e-04
9.700000e+08	1.574862e+13	0.000000e+00	5.390070e-01	5.377289e+14	1.001360e+15	3.050865e+14	1.520883e+04	5.269176e+03	2.806144e+03	0	8.466857e-04
9.800000e+08	1.532576e+13	0.000000e+00	5.390070e-01	5.332510e+14	9.946154e+14	3.037126e+14	1.518809e+04	5.265859e+03	2.804378e+03	0	8.390387e-04
9.900000e+08	1.490923e+13	0.000000e+00	5.390070e-01	5.288367e+14	9.879481e+14	3.023480e+14	1.516752e+04	5.262560e+03	2.802621e+03	0	8.313676e-04
1.000000e+09	1.449892e+13	0.000000e+00	5.390070e-01	5.244848e+14	9.813570e+14	3.009926e+14	1.514712e+04	5.259280e+03	2.800874e+03	0	8.236700e-04
1.010000e+09	1.409470e+13	0.000000e+00	5.390070e-01	5.201939e+14	9.748409e+14	2.996465e+14	1.512689e+04	5.256018e+03	2.799137e+03	0	8.159433e-04
1.020000e+09	1.369644e+13	0.000000e+00	5.390070e-01	5.159630e+14	9.683988e+14	2.983095e+14	1.510682e+04	5.252774e+03	2.797409e+03	0	8.081847e-04
1.030000e+09	1.330404e+13	0.000000e+00	5.390070e-01	5.117908e+14	9.620295e+14	2.969815e+14	1.508692e+04	5.249548e+03	2.795691e+03	0	8.003916e-04
1.040000e+09	1.291737e+13	0.000000e+00	5.390070e-01	5.076762e+14	9.557320e+14	2.956625e+14	1.506718e+04	5.246341e+03	2.793983e+03	0	7.925610e-04
1.050000e+09	1.253632e+13	0.000000e+00	5.390070e-01	5.036181e+14	9.495053e+14	2.943524e+14	1.504760e+04	5.243151e+03	2.792284e+03	0	7.846899e-04
1.060000e+09	1.216078e+13	0.000000e+00	5.390070e-01	4.996155e+14	9.433482e+14	2.930512e+14	1.502817e+04	5.239978e+03	2.790595e+03	0	7.767749e-04
1.070000e+09	1.179065e+13	0.000000e+00	5.390070e-01	4.956673e+14	9.372599e+14	2.917587e+14	1.500889e+04	5.236824e+03	2.788915e+03	0	7.688127e-04
1.080000e+09	1.142581e+13	0.000000e+00	5.390070e-01	4.917723e+14	9.312391e+14	2.904749e+14	1.498977e+04	5.233687e+03	2.787244e+03	0	7.607998e-04
1.090000e+09	1.106618e+13	0.000000e+00	5.390070e-01	4.879298e+14	9.252851e+14	2.891998e+14	1.497080e+04	5.230567e+03	2.785583e+03	0	7.527323e-04
1.100000e+09	1.071164e+13	0.000000e+00	5.390070e-01	4.841386e+14	9.193967e+14	2.879332e+14	1.495197e+04	5.227465e+03	2.783930e+03	0	7.446062e-04
1.110000e+09	1.036210e+13	0.000000e+00	5.390070e-01	4.803978e+14	9.135731e+14	2.866751e+14	1.493330e+04	5.224380e+03	2.782287e+03	0	7.364173e-04
1.120000e+09	1.001747e+13	0.000000e+00	5.390070e-01	4.767064e+14	9.078132e+14	2.854254e+14	1.491476e+04	5.221312e+03	2.780654e+03	0	7.281610e-04
1.130000e+09	9.677656e+12	0.000000e+00	5.390070e-01	4.730637e+14	9.021162e+14	2.841841e+14	1.489637e+04	5.218260e+03	2.779029e+03	0	7.198325e-04
1.140000e+09	9.342563e+12	0.000000e+00	5.390070e-01	4.694685e+14	8.964811e+14	2.829511e+14	1.487812e+04	5.215226e+03	2.777413e+03	0	7.114265e-04
1.150000e+09	9.012105e+12	0.000000e+00	5.390070e-01	4.659202e+14	8.909070e+14	2.817263e+14	1.486000e+04	5.212209e+03	2.775806e+03	0	7.029376e-04
1.160000e+09	8.686197e+12	0.000000e+00	5.390070e-01	4.624179e+14	8.853930e+14	2.805097e+14	1.484203e+04	5.209208e+03	2.774207e+03	0	6.943598e-04
1.170000e+09	8.364753e+12	0.000000e+00	5.390070e-01	4.589606e+14	8.799383e+14	2.793012e+14	1.482418e+04	5.206223e+03	2.772618e+03	0	6.856867e-04
1.180000e+09	8.047692e+12	0.000000e+00	5.390070e-01	4.555477e+14	8.745419e+14	2.781007e+14	1.480647e+04	5.203255e+03	2.771037e+03	0	6.769114e-04
1.190000e+09	7.734933e+12	0.000000e+00	5.390070e-01	4.521783e+14	8.692032e+14	2.769082e+14	1.478890e+04	5.200303e+03	2.769465e+03	0	6.680263e-04
1.200000e+09	7.426398e+12	0.000000e+00	5.390070e-01	4.488516e+14	8.639211e+14	2.757237e+14	1.477145e+04	5.197367e+03	2.767902e+03	0	6.590233e-04
1.210000e+09	7.122010e+12	0.000000e+00	5.390070e-01	4.455668e+14	8.586949e+14	2.745469e+14	1.475413e+04	5.194447e+03	2.766347e+03	0	6.498935e-04
1.220000e+09	6.821694e+12	0.000000e+00	5.390070e-01	4.423234e+14	8.535238e+14	2.733780e+14	1.473693e+04	5.191543e+03	2.764800e+03	0	6.406273e-04
1.230000e+09	6.525377e+12	0.000000e+00	5.390070e-01	4.391204e+14	8.484070e+14	2.722168e+14	1.471986e+04	5.188655e+03	2.763262e+03	0	6.312139e-04
1.240000e+09	6.232987e+12	0.000000e+00	5.390070e-01	4.359572e+14	8.433437e+14	2.710633e+14	1.470292e+04	5.185782e+03	2.761732e+03	0	6.216417e-04
1.250000e+09	5.944455e+12	0.000000e+00	5.390070e-01	4.328332e+14	8.383331e+14	2.699174e+14	1.468609e+04	5.182925e+03	2.760211e+03	0	6.118976e-04
1.260000e+09	5.659712e+12	0.000000e+00	5.390070e-01	4.297476e+14	8.333745e+14	2.687791e+14	1.466939e+04	5.180083e+03	2.758697e+03	0	6.019672e-04
1.270000e+09	5.378691e+12	0.000000e+00	5.390070e-01	4.266998e+14	8.284672e+14	2.676483e+14	1.465280e+04	5.177257e+03	2.757192e+03	0	5.918344e-04
1.280000e+09	5.101326e+12	0.000000e+00	5.390070e-01	4.236891e+14	8.236104e+14	2.665249e+14	1.463634e+04	5.174445e+03	2.755694e+03	0	5.814813e-04
1.290000e+09	4.827554e+12	0.000000e+00	5.390070e-01	4.207149e+14	8.188034e+14	2.654089e+14	1.461998e+04	5.171649e+03	2.754205e+03	0	5.708874e-04
1.300000e+09	4.557313e+12	0.000000e+00	5.390070e-01	4.177765e+14	8.140455e+14	2.643002e+14	1.460375e+04	5.168867e+03	2.752724e+03	0	5.600296e-04
1.310000e+09	4.290540e+12	0.000000e+00	5.390070e-01	4.148735e+14	8.093360e+14	2.631987e+14	1.458762e+04	5.166100e+03	2.751250e+03	0	5.488816e-04
1.320000e+09	4.027177e+12	0.000000e+00	5.390070e-01	4.120051e+14	8.046743e+14	2.621045e+14	1.457161e+04	5.163348e+03	2.749785e+03	0	5.374131e-04
1.330000e+09	3.767164e+12	0.000000e+00	5.390070e-01	4.091708e+14	8.000596e+14	2.610175e+14	1.455571e+04	5.160611e+03	2.748327e+03	0	5.255889e-04
1.340000e+09	3.510444e+12	0.000000e+00	5.390070e-01	4.063700e+14	7.954913e+14	2.599375e+14	1.453992e+04	5.157887e+03	2.746876e+03	0	5.133679e-04
1.350000e+09	3.256962e+12	0.000000e+00	5.390070e-01	4.036023e+14	7.909687e+14	2.588646e+14	1.452423e+04	5.155178e+03	2.745434e+03	0	5.007016e-04
1.360000e+09	3.006663e+12	0.000000e+00	5.390070e-01	4.008669e+14	7.864913e+14	2.577987e+14	1.450865e+04	5.152483e+03	2.743998e+03	0	4.875318e-04
