#t		Qconv[W]	Ri[Rp]		R*[Rp]		Qc[W]		Qm[W]		Qr[W]		Tcmb[K]		Tl[K]		Tup[K]		RiFlag		Bs[T]
0.000000e+00	2.150549e+14	0.000000e+00	5.357143e-01	2.772061e+15	1.708409e+15	6.358987e+14	2.319656e+04	6.140113e+03	3.075283e+03	0	2.020259e-03
1.000000e+07	2.109767e+14	0.000000e+00	5.357143e-01	2.735317e+15	1.758936e+15	6.323754e+14	2.311840e+04	6.168476e+03	3.089489e+03	0	2.007407e-03
2.000000e+07	2.069398e+14	0.000000e+00	5.357143e-01	2.698956e+15	1.807240e+15	6.288784e+14	2.304127e+04	6.195314e+03	3.102931e+03	0	1.994521e-03
3.000000e+07	2.029458e+14	0.000000e+00	5.357143e-01	2.662990e+15	1.853246e+15	6.254075e+14	2.296517e+04	6.220672e+03	3.115631e+03	0	1.981606e-03
4.000000e+07	1.989961e+14	0.000000e+00	5.357143e-01	2.627430e+15	1.896899e+15	6.219626e+14	2.289007e+04	6.244596e+03	3.127614e+03	0	1.968666e-03
5.000000e+07	1.950920e+14	0.000000e+00	5.357143e-01	2.592286e+15	1.938160e+15	6.185433e+14	2.281597e+04	6.267136e+03	3.138903e+03	0	1.955707e-03
6.000000e+07	1.912349e+14	0.000000e+00	5.357143e-01	2.557569e+15	1.977010e+15	6.151496e+14	2.274285e+04	6.288339e+03	3.149523e+03	0	1.942732e-03
7.000000e+07	1.874258e+14	0.000000e+00	5.357143e-01	2.523288e+15	2.013442e+15	6.117811e+14	2.267071e+04	6.308254e+03	3.159497e+03	0	1.929747e-03
8.000000e+07	1.836659e+14	0.000000e+00	5.357143e-01	2.489450e+15	2.047466e+15	6.084376e+14	2.259952e+04	6.326929e+03	3.168851e+03	0	1.916756e-03
9.000000e+07	1.799560e+14	0.000000e+00	5.357143e-01	2.456063e+15	2.079103e+15	6.051190e+14	2.252929e+04	6.344415e+03	3.177608e+03	0	1.903762e-03
1.000000e+08	1.762969e+14	0.000000e+00	5.357143e-01	2.423131e+15	2.108387e+15	6.018251e+14	2.245999e+04	6.360758e+03	3.185794e+03	0	1.890770e-03
1.100000e+08	1.726893e+14	0.000000e+00	5.357143e-01	2.390662e+15	2.135359e+15	5.985556e+14	2.239162e+04	6.376008e+03	3.193432e+03	0	1.877785e-03
1.200000e+08	1.691339e+14	0.000000e+00	5.357143e-01	2.358657e+15	2.160072e+15	5.953103e+14	2.232416e+04	6.390211e+03	3.200545e+03	0	1.864808e-03
1.300000e+08	1.656310e+14	0.000000e+00	5.357143e-01	2.327122e+15	2.182583e+15	5.920891e+14	2.225760e+04	6.403414e+03	3.207158e+03	0	1.851844e-03
1.400000e+08	1.621810e+14	0.000000e+00	5.357143e-01	2.296058e+15	2.202959e+15	5.888917e+14	2.219192e+04	6.415661e+03	3.213292e+03	0	1.838896e-03
1.500000e+08	1.587842e+14	0.000000e+00	5.357143e-01	2.265466e+15	2.221267e+15	5.857180e+14	2.212712e+04	6.426998e+03	3.218970e+03	0	1.825967e-03
1.600000e+08	1.554407e+14	0.000000e+00	5.357143e-01	2.235347e+15	2.237582e+15	5.825676e+14	2.206317e+04	6.437467e+03	3.224213e+03	0	1.813060e-03
1.700000e+08	1.521506e+14	0.000000e+00	5.357143e-01	2.205703e+15	2.251980e+15	5.794406e+14	2.200007e+04	6.447109e+03	3.229043e+03	0	1.800177e-03
1.800000e+08	1.489139e+14	0.000000e+00	5.357143e-01	2.176530e+15	2.264540e+15	5.763366e+14	2.193780e+04	6.455967e+03	3.233479e+03	0	1.787320e-03
1.900000e+08	1.457305e+14	0.000000e+00	5.357143e-01	2.147829e+15	2.275342e+15	5.732554e+14	2.187635e+04	6.464077e+03	3.237541e+03	0	1.774492e-03
2.000000e+08	1.426002e+14	0.000000e+00	5.357143e-01	2.119597e+15	2.284465e+15	5.701969e+14	2.181571e+04	6.471478e+03	3.241248e+03	0	1.761695e-03
2.100000e+08	1.395228e+14	0.000000e+00	5.357143e-01	2.091832e+15	2.291991e+15	5.671609e+14	2.175586e+04	6.478207e+03	3.244618e+03	0	1.748930e-03
2.200000e+08	1.364979e+14	0.000000e+00	5.357143e-01	2.064530e+15	2.297999e+15	5.641472e+14	2.169679e+04	6.484298e+03	3.247669e+03	0	1.736198e-03
2.300000e+08	1.335252e+14	0.000000e+00	5.357143e-01	2.037689e+15	2.302568e+15	5.611557e+14	2.163848e+04	6.489785e+03	3.250417e+03	0	1.723501e-03
2.400000e+08	1.306042e+14	0.000000e+00	5.357143e-01	2.011303e+15	2.305777e+15	5.581860e+14	2.158094e+04	6.494699e+03	3.252878e+03	0	1.710841e-03
2.500000e+08	1.277346e+14	0.000000e+00	5.357143e-01	1.985368e+15	2.307700e+15	5.552381e+14	2.152413e+04	6.499071e+03	3.255068e+03	0	1.698218e-03
2.600000e+08	1.249157e+14	0.000000e+00	5.357143e-01	1.959881e+15	2.308412e+15	5.523118e+14	2.146805e+04	6.502930e+03	3.257001e+03	0	1.685632e-03
2.700000e+08	1.221470e+14	0.000000e+00	5.357143e-01	1.934835e+15	2.307984e+15	5.494069e+14	2.141269e+04	6.506306e+03	3.258691e+03	0	1.673086e-03
2.800000e+08	1.194279e+14	0.000000e+00	5.357143e-01	1.910225e+15	2.306487e+15	5.465232e+14	2.135803e+04	6.509223e+03	3.260153e+03	0	1.660577e-03
2.900000e+08	1.167577e+14	0.000000e+00	5.357143e-01	1.886045e+15	2.303987e+15	5.436605e+14	2.130407e+04	6.511708e+03	3.261397e+03	0	1.648109e-03
3.000000e+08	1.141360e+14	0.000000e+00	5.357143e-01	1.862291e+15	2.300549e+15	5.408187e+14	2.125078e+04	6.513784e+03	3.262437e+03	0	1.635679e-03
3.100000e+08	1.115618e+14	0.000000e+00	5.357143e-01	1.838955e+15	2.296234e+15	5.379976e+14	2.119816e+04	6.515476e+03	3.263284e+03	0	1.623289e-03
3.200000e+08	1.090347e+14	0.000000e+00	5.357143e-01	1.816031e+15	2.291102e+15	5.351971e+14	2.114620e+04	6.516804e+03	3.263949e+03	0	1.610938e-03
3.300000e+08	1.065537e+14	0.000000e+00	5.357143e-01	1.793513e+15	2.285210e+15	5.324169e+14	2.109489e+04	6.517789e+03	3.264443e+03	0	1.598626e-03
3.400000e+08	1.041183e+14	0.000000e+00	5.357143e-01	1.771396e+15	2.278612e+15	5.296569e+14	2.104420e+04	6.518451e+03	3.264775e+03	0	1.586352e-03
3.500000e+08	1.017277e+14	0.000000e+00	5.357143e-01	1.749671e+15	2.271359e+15	5.269169e+14	2.099414e+04	6.518810e+03	3.264954e+03	0	1.574117e-03
3.600000e+08	9.938111e+13	0.000000e+00	5.357143e-01	1.728333e+15	2.263499e+15	5.241967e+14	2.094469e+04	6.518882e+03	3.264990e+03	0	1.561919e-03
3.700000e+08	9.707779e+13	0.000000e+00	5.357143e-01	1.707374e+15	2.255080e+15	5.214963e+14	2.089584e+04	6.518684e+03	3.264891e+03	0	1.549758e-03
3.800000e+08	9.481698e+13	0.000000e+00	5.357143e-01	1.686789e+15	2.246145e+15	5.188154e+14	2.084758e+04	6.518232e+03	3.264665e+03	0	1.537633e-03
3.900000e+08	9.259793e+13	0.000000e+00	5.357143e-01	1.666570e+15	2.236736e+15	5.161539e+14	2.079990e+04	6.517542e+03	3.264319e+03	0	1.525543e-03
4.000000e+08	9.041987e+13	0.000000e+00	5.357143e-01	1.646712e+15	2.226893e+15	5.135117e+14	2.075279e+04	6.516628e+03	3.263861e+03	0	1.513486e-03
4.100000e+08	8.828204e+13	0.000000e+00	5.357143e-01	1.627206e+15	2.216651e+15	5.108884e+14	2.070624e+04	6.515503e+03	3.263298e+03	0	1.501463e-03
4.200000e+08	8.618369e+13	0.000000e+00	5.357143e-01	1.608047e+15	2.206046e+15	5.082841e+14	2.066024e+04	6.514180e+03	3.262635e+03	0	1.489472e-03
4.300000e+08	8.412405e+13	0.000000e+00	5.357143e-01	1.589228e+15	2.195111e+15	5.056986e+14	2.061477e+04	6.512671e+03	3.261879e+03	0	1.477511e-03
4.400000e+08	8.210239e+13	0.000000e+00	5.357143e-01	1.570743e+15	2.183877e+15	5.031316e+14	2.056984e+04	6.510987e+03	3.261036e+03	0	1.465579e-03
4.500000e+08	8.011795e+13	0.000000e+00	5.357143e-01	1.552584e+15	2.172374e+15	5.005831e+14	2.052543e+04	6.509140e+03	3.260111e+03	0	1.453675e-03
4.600000e+08	7.817000e+13	0.000000e+00	5.357143e-01	1.534746e+15	2.160627e+15	4.980529e+14	2.048153e+04	6.507140e+03	3.259109e+03	0	1.441796e-03
4.700000e+08	7.625781e+13	0.000000e+00	5.357143e-01	1.517222e+15	2.148663e+15	4.955408e+14	2.043813e+04	6.504995e+03	3.258035e+03	0	1.429943e-03
4.800000e+08	7.438066e+13	0.000000e+00	5.357143e-01	1.500006e+15	2.136506e+15	4.930467e+14	2.039522e+04	6.502716e+03	3.256894e+03	0	1.418112e-03
4.900000e+08	7.253784e+13	0.000000e+00	5.357143e-01	1.483092e+15	2.124179e+15	4.905705e+14	2.035280e+04	6.500311e+03	3.255689e+03	0	1.406303e-03
5.000000e+08	7.072864e+13	0.000000e+00	5.357143e-01	1.466474e+15	2.111702e+15	4.881120e+14	2.031085e+04	6.497789e+03	3.254426e+03	0	1.394512e-03
5.100000e+08	6.895238e+13	0.000000e+00	5.357143e-01	1.450145e+15	2.099095e+15	4.856710e+14	2.026938e+04	6.495156e+03	3.253107e+03	0	1.382739e-03
5.200000e+08	6.720837e+13	0.000000e+00	5.357143e-01	1.434099e+15	2.086376e+15	4.832475e+14	2.022836e+04	6.492420e+03	3.251737e+03	0	1.370982e-03
5.300000e+08	6.549595e+13	0.000000e+00	5.357143e-01	1.418332e+15	2.073562e+15	4.808413e+14	2.018780e+04	6.489588e+03	3.250318e+03	0	1.359238e-03
5.400000e+08	6.381445e+13	0.000000e+00	5.357143e-01	1.402836e+15	2.060671e+15	4.784522e+14	2.014768e+04	6.486666e+03	3.248855e+03	0	1.347505e-03
5.500000e+08	6.216322e+13	0.000000e+00	5.357143e-01	1.387608e+15	2.047715e+15	4.760801e+14	2.010799e+04	6.483661e+03	3.247350e+03	0	1.335780e-03
5.600000e+08	6.054164e+13	0.000000e+00	5.357143e-01	1.372640e+15	2.034710e+15	4.737248e+14	2.006874e+04	6.480578e+03	3.245806e+03	0	1.324063e-03
5.700000e+08	5.894907e+13	0.000000e+00	5.357143e-01	1.357927e+15	2.021667e+15	4.713863e+14	2.002991e+04	6.477424e+03	3.244226e+03	0	1.312350e-03
5.800000e+08	5.738490e+13	0.000000e+00	5.357143e-01	1.343465e+15	2.008600e+15	4.690644e+14	1.999149e+04	6.474202e+03	3.242612e+03	0	1.300638e-03
5.900000e+08	5.584853e+13	0.000000e+00	5.357143e-01	1.329248e+15	1.995519e+15	4.667589e+14	1.995348e+04	6.470917e+03	3.240967e+03	0	1.288926e-03
6.000000e+08	5.433938e+13	0.000000e+00	5.357143e-01	1.315271e+15	1.982434e+15	4.644698e+14	1.991587e+04	6.467575e+03	3.239293e+03	0	1.277210e-03
6.100000e+08	5.285686e+13	0.000000e+00	5.357143e-01	1.301529e+15	1.969355e+15	4.621968e+14	1.987866e+04	6.464180e+03	3.237593e+03	0	1.265487e-03
6.200000e+08	5.140042e+13	0.000000e+00	5.357143e-01	1.288017e+15	1.956290e+15	4.599399e+14	1.984183e+04	6.460736e+03	3.235868e+03	0	1.253755e-03
6.300000e+08	4.996948e+13	0.000000e+00	5.357143e-01	1.274729e+15	1.943249e+15	4.576990e+14	1.980538e+04	6.457246e+03	3.234120e+03	0	1.242011e-03
6.400000e+08	4.856352e+13	0.000000e+00	5.357143e-01	1.261663e+15	1.930238e+15	4.554738e+14	1.976931e+04	6.453714e+03	3.232351e+03	0	1.230252e-03
6.500000e+08	4.718201e+13	0.000000e+00	5.357143e-01	1.248812e+15	1.917265e+15	4.532643e+14	1.973360e+04	6.450144e+03	3.230563e+03	0	1.218473e-03
6.600000e+08	4.582441e+13	0.000000e+00	5.357143e-01	1.236172e+15	1.904335e+15	4.510704e+14	1.969826e+04	6.446539e+03	3.228757e+03	0	1.206673e-03
6.700000e+08	4.449023e+13	0.000000e+00	5.357143e-01	1.223740e+15	1.891455e+15	4.488919e+14	1.966328e+04	6.442902e+03	3.226936e+03	0	1.194847e-03
6.800000e+08	4.317898e+13	0.000000e+00	5.357143e-01	1.211510e+15	1.878630e+15	4.467287e+14	1.962864e+04	6.439236e+03	3.225099e+03	0	1.182991e-03
6.900000e+08	4.189015e+13	0.000000e+00	5.357143e-01	1.199478e+15	1.865865e+15	4.445807e+14	1.959435e+04	6.435543e+03	3.223250e+03	0	1.171102e-03
7.000000e+08	4.062328e+13	0.000000e+00	5.357143e-01	1.187641e+15	1.853165e+15	4.424477e+14	1.956040e+04	6.431826e+03	3.221388e+03	0	1.159175e-03
7.100000e+08	3.937790e+13	0.000000e+00	5.357143e-01	1.175994e+15	1.840534e+15	4.403296e+14	1.952679e+04	6.428088e+03	3.219516e+03	0	1.147206e-03
7.200000e+08	3.815357e+13	0.000000e+00	5.357143e-01	1.164533e+15	1.827974e+15	4.382264e+14	1.949350e+04	6.424331e+03	3.217634e+03	0	1.135191e-03
7.300000e+08	3.694983e+13	0.000000e+00	5.357143e-01	1.153255e+15	1.815491e+15	4.361379e+14	1.946054e+04	6.420556e+03	3.215744e+03	0	1.123125e-03
7.400000e+08	3.576625e+13	0.000000e+00	5.357143e-01	1.142155e+15	1.803087e+15	4.340639e+14	1.942789e+04	6.416767e+03	3.213846e+03	0	1.111003e-03
7.500000e+08	3.460242e+13	0.000000e+00	5.357143e-01	1.131231e+15	1.790764e+15	4.320044e+14	1.939556e+04	6.412964e+03	3.211941e+03	0	1.098819e-03
7.600000e+08	3.345791e+13	0.000000e+00	5.357143e-01	1.120477e+15	1.778526e+15	4.299593e+14	1.936353e+04	6.409150e+03	3.210031e+03	0	1.086568e-03
7.700000e+08	3.233232e+13	0.000000e+00	5.357143e-01	1.109892e+15	1.766375e+15	4.279284e+14	1.933181e+04	6.405326e+03	3.208116e+03	0	1.074244e-03
7.800000e+08	3.122526e+13	0.000000e+00	5.357143e-01	1.099471e+15	1.754312e+15	4.259116e+14	1.930039e+04	6.401495e+03	3.206197e+03	0	1.061840e-03
7.900000e+08	3.013634e+13	0.000000e+00	5.357143e-01	1.089212e+15	1.742339e+15	4.239088e+14	1.926926e+04	6.397657e+03	3.204275e+03	0	1.049351e-03
8.000000e+08	2.906519e+13	0.000000e+00	5.357143e-01	1.079110e+15	1.730459e+15	4.219199e+14	1.923842e+04	6.393813e+03	3.202350e+03	0	1.036768e-03
8.100000e+08	2.801143e+13	0.000000e+00	5.357143e-01	1.069162e+15	1.718671e+15	4.199447e+14	1.920787e+04	6.389966e+03	3.200423e+03	0	1.024084e-03
8.200000e+08	2.697471e+13	0.000000e+00	5.357143e-01	1.059367e+15	1.706979e+15	4.179833e+14	1.917759e+04	6.386117e+03	3.198495e+03	0	1.011291e-03
8.300000e+08	2.595469e+13	0.000000e+00	5.357143e-01	1.049719e+15	1.695382e+15	4.160354e+14	1.914760e+04	6.382266e+03	3.196566e+03	0	9.983799e-04
8.400000e+08	2.495100e+13	0.000000e+00	5.357143e-01	1.040217e+15	1.683881e+15	4.141009e+14	1.911787e+04	6.378415e+03	3.194637e+03	0	9.853411e-04
8.500000e+08	2.396333e+13	0.000000e+00	5.357143e-01	1.030858e+15	1.672477e+15	4.121798e+14	1.908842e+04	6.374564e+03	3.192709e+03	0	9.721643e-04
8.600000e+08	2.299135e+13	0.000000e+00	5.357143e-01	1.021639e+15	1.661172e+15	4.102720e+14	1.905923e+04	6.370716e+03	3.190781e+03	0	9.588383e-04
8.700000e+08	2.203473e+13	0.000000e+00	5.357143e-01	1.012556e+15	1.649964e+15	4.083773e+14	1.903029e+04	6.366870e+03	3.188855e+03	0	9.453511e-04
8.800000e+08	2.109316e+13	0.000000e+00	5.357143e-01	1.003608e+15	1.638855e+15	4.064956e+14	1.900162e+04	6.363028e+03	3.186931e+03	0	9.316894e-04
8.900000e+08	2.016635e+13	0.000000e+00	5.357143e-01	9.947911e+14	1.627845e+15	4.046268e+14	1.897320e+04	6.359190e+03	3.185008e+03	0	9.178387e-04
9.000000e+08	1.925399e+13	0.000000e+00	5.357143e-01	9.861033e+14	1.616934e+15	4.027709e+14	1.894502e+04	6.355357e+03	3.183089e+03	0	9.037830e-04
9.100000e+08	1.835579e+13	0.000000e+00	5.357143e-01	9.775421e+14	1.606122e+15	4.009277e+14	1.891710e+04	6.351530e+03	3.181172e+03	0	8.895048e-04
9.200000e+08	1.747148e+13	0.000000e+00	5.357143e-01	9.691048e+14	1.595408e+15	3.990971e+14	1.888941e+04	6.347710e+03	3.179259e+03	0	8.749848e-04
9.300000e+08	1.660077e+13	0.000000e+00	5.357143e-01	9.607891e+14	1.584794e+15	3.972791e+14	1.886196e+04	6.343897e+03	3.177349e+03	0	8.602011e-04
9.400000e+08	1.574339e+13	0.000000e+00	5.357143e-01	9.525927e+14	1.574278e+15	3.954734e+14	1.883475e+04	6.340092e+03	3.175443e+03	0	8.451297e-04
9.500000e+08	1.489909e+13	0.000000e+00	5.357143e-01	9.445132e+14	1.563860e+15	3.936801e+14	1.880777e+04	6.336295e+03	3.173542e+03	0	8.297434e-04
9.600000e+08	1.406760e+13	0.000000e+00	5.357143e-01	9.365483e+14	1.553541e+15	3.918990e+14	1.878101e+04	6.332507e+03	3.171644e+03	0	8.140115e-04
9.700000e+08	1.324867e+13	0.000000e+00	5.357143e-01	9.286960e+14	1.543319e+15	3.901301e+14	1.875448e+04	6.328729e+03	3.169752e+03	0	7.978991e-04
9.800000e+08	1.244205e+13	0.000000e+00	5.357143e-01	9.209540e+14	1.533194e+15	3.883732e+14	1.872818e+04	6.324960e+03	3.167864e+03	0	7.813662e-04
9.900000e+08	1.164752e+13	0.000000e+00	5.357143e-01	9.133202e+14	1.523166e+15	3.866282e+14	1.870209e+04	6.321202e+03	3.165982e+03	0	7.643666e-04
1.000000e+09	1.086482e+13	0.000000e+00	5.357143e-01	9.057927e+14	1.513235e+15	3.848951e+14	1.867622e+04	6.317454e+03	3.164105e+03	0	7.468466e-04
1.010000e+09	1.009373e+13	0.000000e+00	5.357143e-01	8.983693e+14	1.503399e+15	3.831737e+14	1.865056e+04	6.313717e+03	3.162233e+03	0	7.287433e-04
1.020000e+09	9.334039e+12	0.000000e+00	5.357143e-01	8.910482e+14	1.493657e+15	3.814640e+14	1.862511e+04	6.309992e+03	3.160367e+03	0	7.099817e-04
1.030000e+09	8.585514e+12	0.000000e+00	5.357143e-01	8.838274e+14	1.484011e+15	3.797658e+14	1.859986e+04	6.306278e+03	3.158507e+03	0	6.904719e-04
1.040000e+09	7.847946e+12	0.000000e+00	5.357143e-01	8.767050e+14	1.474458e+15	3.780792e+14	1.857482e+04	6.302576e+03	3.156653e+03	0	6.701046e-04
1.050000e+09	7.121126e+12	0.000000e+00	5.357143e-01	8.696793e+14	1.464998e+15	3.764039e+14	1.854998e+04	6.298887e+03	3.154805e+03	0	6.487442e-04
1.060000e+09	6.404850e+12	0.000000e+00	5.357143e-01	8.627484e+14	1.455630e+15	3.747399e+14	1.852534e+04	6.295210e+03	3.152964e+03	0	6.262200e-04
1.070000e+09	5.698919e+12	0.000000e+00	5.357143e-01	8.559106e+14	1.446354e+15	3.730871e+14	1.850090e+04	6.291545e+03	3.151129e+03	0	6.023119e-04
1.080000e+09	5.003138e+12	0.000000e+00	5.357143e-01	8.491643e+14	1.437168e+15	3.714455e+14	1.847665e+04	6.287894e+03	3.149300e+03	0	5.767285e-04
1.090000e+09	4.317317e+12	0.000000e+00	5.357143e-01	8.425076e+14	1.428073e+15	3.698149e+14	1.845259e+04	6.284256e+03	3.147478e+03	0	5.490711e-04
1.100000e+09	3.641271e+12	0.000000e+00	5.357143e-01	8.359391e+14	1.419067e+15	3.681952e+14	1.842872e+04	6.280631e+03	3.145662e+03	0	5.187701e-04
1.110000e+09	2.974816e+12	0.000000e+00	5.357143e-01	8.294570e+14	1.410149e+15	3.665864e+14	1.840503e+04	6.277020e+03	3.143853e+03	0	4.849653e-04
1.120000e+09	2.317776e+12	0.000000e+00	5.357143e-01	8.230599e+14	1.401319e+15	3.649884e+14	1.838153e+04	6.273422e+03	3.142052e+03	0	4.462529e-04
1.130000e+09	1.669978e+12	0.000000e+00	5.357143e-01	8.167462e+14	1.392575e+15	3.634011e+14	1.835821e+04	6.269839e+03	3.140257e+03	0	4.000621e-04
1.140000e+09	1.031250e+12	0.000000e+00	5.357143e-01	8.105144e+14	1.383918e+15	3.618243e+14	1.833506e+04	6.266269e+03	3.138469e+03	0	3.406789e-04
1.150000e+09	4.014272e+11	0.000000e+00	5.357143e-01	8.043631e+14	1.375345e+15	3.602581e+14	1.831209e+04	6.262713e+03	3.136688e+03	0	2.487480e-04
1.160000e+09	-2.196526e+11	0.000000e+00	5.357143e-01	7.982909e+14	1.366857e+15	3.587024e+14	1.828930e+04	6.259171e+03	3.134914e+03	0	nan
