#t		Qconv[W]	Ri[Rp]		R*[Rp]		Qc[W]		Qm[W]		Qr[W]		Tcmb[K]		Tl[K]		Tup[K]		RiFlag		Bs[T]
0.000000e+00	2.599431e+13	0.000000e+00	6.347826e-01	4.496364e+14	5.143930e+13	1.213318e+14	1.010227e+04	3.376996e+03	2.521479e+03	0	9.661652e-04
1.000000e+07	2.558545e+13	0.000000e+00	6.347826e-01	4.428751e+14	5.552319e+13	1.206596e+14	1.005312e+04	3.415196e+03	2.550002e+03	0	9.610728e-04
2.000000e+07	2.518101e+13	0.000000e+00	6.347826e-01	4.361878e+14	5.975018e+13	1.199923e+14	1.000471e+04	3.452541e+03	2.577886e+03	0	9.559820e-04
3.000000e+07	2.478106e+13	0.000000e+00	6.347826e-01	4.295751e+14	6.411222e+13	1.193301e+14	9.957024e+03	3.489025e+03	2.605127e+03	0	9.508937e-04
4.000000e+07	2.438565e+13	0.000000e+00	6.347826e-01	4.230379e+14	6.860051e+13	1.186728e+14	9.910054e+03	3.524645e+03	2.631724e+03	0	9.458089e-04
5.000000e+07	2.399482e+13	0.000000e+00	6.347826e-01	4.165769e+14	7.320564e+13	1.180203e+14	9.863794e+03	3.559398e+03	2.657672e+03	0	9.407288e-04
6.000000e+07	2.360862e+13	0.000000e+00	6.347826e-01	4.101930e+14	7.791760e+13	1.173728e+14	9.818234e+03	3.593282e+03	2.682972e+03	0	9.356545e-04
7.000000e+07	2.322711e+13	0.000000e+00	6.347826e-01	4.038870e+14	8.272592e+13	1.167301e+14	9.773368e+03	3.626295e+03	2.707622e+03	0	9.305871e-04
8.000000e+07	2.285034e+13	0.000000e+00	6.347826e-01	3.976597e+14	8.761968e+13	1.160921e+14	9.729187e+03	3.658436e+03	2.731620e+03	0	9.255279e-04
9.000000e+07	2.247836e+13	0.000000e+00	6.347826e-01	3.915118e+14	9.258761e+13	1.154589e+14	9.685681e+03	3.689707e+03	2.754969e+03	0	9.204782e-04
1.000000e+08	2.211121e+13	0.000000e+00	6.347826e-01	3.854442e+14	9.761819e+13	1.148304e+14	9.642844e+03	3.720107e+03	2.777667e+03	0	9.154392e-04
1.100000e+08	2.174895e+13	0.000000e+00	6.347826e-01	3.794575e+14	1.026997e+14	1.142066e+14	9.600666e+03	3.749639e+03	2.799718e+03	0	9.104123e-04
1.200000e+08	2.139162e+13	0.000000e+00	6.347826e-01	3.735525e+14	1.078204e+14	1.135874e+14	9.559138e+03	3.778306e+03	2.821123e+03	0	9.053987e-04
1.300000e+08	2.103926e+13	0.000000e+00	6.347826e-01	3.677299e+14	1.129685e+14	1.129728e+14	9.518253e+03	3.806112e+03	2.841885e+03	0	9.004000e-04
1.400000e+08	2.069191e+13	0.000000e+00	6.347826e-01	3.619901e+14	1.181321e+14	1.123627e+14	9.478000e+03	3.833062e+03	2.862007e+03	0	8.954173e-04
1.500000e+08	2.034960e+13	0.000000e+00	6.347826e-01	3.563338e+14	1.232996e+14	1.117571e+14	9.438371e+03	3.859162e+03	2.881495e+03	0	8.904522e-04
1.600000e+08	2.001236e+13	0.000000e+00	6.347826e-01	3.507613e+14	1.284595e+14	1.111561e+14	9.399358e+03	3.884417e+03	2.900352e+03	0	8.855058e-04
1.700000e+08	1.968022e+13	0.000000e+00	6.347826e-01	3.452732e+14	1.336008e+14	1.105594e+14	9.360951e+03	3.908837e+03	2.918585e+03	0	8.805796e-04
1.800000e+08	1.935321e+13	0.000000e+00	6.347826e-01	3.398697e+14	1.387125e+14	1.099671e+14	9.323140e+03	3.932428e+03	2.936200e+03	0	8.756750e-04
1.900000e+08	1.903132e+13	0.000000e+00	6.347826e-01	3.345511e+14	1.437841e+14	1.093792e+14	9.285918e+03	3.955200e+03	2.953203e+03	0	8.707931e-04
2.000000e+08	1.871459e+13	0.000000e+00	6.347826e-01	3.293175e+14	1.488055e+14	1.087957e+14	9.249275e+03	3.977164e+03	2.969602e+03	0	8.659353e-04
2.100000e+08	1.840302e+13	0.000000e+00	6.347826e-01	3.241690e+14	1.537672e+14	1.082164e+14	9.213201e+03	3.998329e+03	2.985406e+03	0	8.611027e-04
2.200000e+08	1.809660e+13	0.000000e+00	6.347826e-01	3.191056e+14	1.586600e+14	1.076414e+14	9.177688e+03	4.018707e+03	3.000621e+03	0	8.562967e-04
2.300000e+08	1.779533e+13	0.000000e+00	6.347826e-01	3.141273e+14	1.634754e+14	1.070706e+14	9.142726e+03	4.038310e+03	3.015258e+03	0	8.515183e-04
2.400000e+08	1.749921e+13	0.000000e+00	6.347826e-01	3.092339e+14	1.682053e+14	1.065039e+14	9.108307e+03	4.057151e+03	3.029326e+03	0	8.467687e-04
2.500000e+08	1.720823e+13	0.000000e+00	6.347826e-01	3.044250e+14	1.728423e+14	1.059415e+14	9.074420e+03	4.075243e+03	3.042835e+03	0	8.420489e-04
2.600000e+08	1.692235e+13	0.000000e+00	6.347826e-01	2.997005e+14	1.773796e+14	1.053831e+14	9.041057e+03	4.092600e+03	3.055794e+03	0	8.373600e-04
2.700000e+08	1.664157e+13	0.000000e+00	6.347826e-01	2.950598e+14	1.818108e+14	1.048289e+14	9.008209e+03	4.109235e+03	3.068215e+03	0	8.327028e-04
2.800000e+08	1.636584e+13	0.000000e+00	6.347826e-01	2.905026e+14	1.861303e+14	1.042786e+14	8.975867e+03	4.125163e+03	3.080108e+03	0	8.280784e-04
2.900000e+08	1.609515e+13	0.000000e+00	6.347826e-01	2.860282e+14	1.903330e+14	1.037324e+14	8.944021e+03	4.140399e+03	3.091485e+03	0	8.234874e-04
3.000000e+08	1.582945e+13	0.000000e+00	6.347826e-01	2.816360e+14	1.944146e+14	1.031902e+14	8.912664e+03	4.154959e+03	3.102356e+03	0	8.189308e-04
3.100000e+08	1.556869e+13	0.000000e+00	6.347826e-01	2.773254e+14	1.983710e+14	1.026519e+14	8.881784e+03	4.168858e+03	3.112733e+03	0	8.144092e-04
3.200000e+08	1.531285e+13	0.000000e+00	6.347826e-01	2.730955e+14	2.021990e+14	1.021176e+14	8.851375e+03	4.182111e+03	3.122629e+03	0	8.099234e-04
3.300000e+08	1.506185e+13	0.000000e+00	6.347826e-01	2.689456e+14	2.058957e+14	1.015871e+14	8.821428e+03	4.194734e+03	3.132054e+03	0	8.054738e-04
3.400000e+08	1.481567e+13	0.000000e+00	6.347826e-01	2.648748e+14	2.094590e+14	1.010605e+14	8.791933e+03	4.206743e+03	3.141021e+03	0	8.010612e-04
3.500000e+08	1.457423e+13	0.000000e+00	6.347826e-01	2.608821e+14	2.128871e+14	1.005377e+14	8.762881e+03	4.218155e+03	3.149542e+03	0	7.966859e-04
3.600000e+08	1.433747e+13	0.000000e+00	6.347826e-01	2.569666e+14	2.161787e+14	1.000187e+14	8.734266e+03	4.228986e+03	3.157629e+03	0	7.923484e-04
3.700000e+08	1.410535e+13	0.000000e+00	6.347826e-01	2.531273e+14	2.193331e+14	9.950342e+13	8.706078e+03	4.239250e+03	3.165293e+03	0	7.880491e-04
3.800000e+08	1.387779e+13	0.000000e+00	6.347826e-01	2.493631e+14	2.223499e+14	9.899190e+13	8.678308e+03	4.248966e+03	3.172547e+03	0	7.837883e-04
3.900000e+08	1.365473e+13	0.000000e+00	6.347826e-01	2.456730e+14	2.252291e+14	9.848407e+13	8.650950e+03	4.258148e+03	3.179403e+03	0	7.795663e-04
4.000000e+08	1.343611e+13	0.000000e+00	6.347826e-01	2.420557e+14	2.279713e+14	9.797992e+13	8.623994e+03	4.266812e+03	3.185872e+03	0	7.753833e-04
4.100000e+08	1.322184e+13	0.000000e+00	6.347826e-01	2.385102e+14	2.305771e+14	9.747939e+13	8.597433e+03	4.274975e+03	3.191967e+03	0	7.712395e-04
4.200000e+08	1.301186e+13	0.000000e+00	6.347826e-01	2.350353e+14	2.330477e+14	9.698248e+13	8.571259e+03	4.282651e+03	3.197699e+03	0	7.671350e-04
4.300000e+08	1.280611e+13	0.000000e+00	6.347826e-01	2.316297e+14	2.353846e+14	9.648915e+13	8.545465e+03	4.289857e+03	3.203079e+03	0	7.630699e-04
4.400000e+08	1.260450e+13	0.000000e+00	6.347826e-01	2.282924e+14	2.375893e+14	9.599936e+13	8.520042e+03	4.296607e+03	3.208119e+03	0	7.590443e-04
4.500000e+08	1.240695e+13	0.000000e+00	6.347826e-01	2.250220e+14	2.396639e+14	9.551309e+13	8.494984e+03	4.302916e+03	3.212830e+03	0	7.550581e-04
4.600000e+08	1.221341e+13	0.000000e+00	6.347826e-01	2.218174e+14	2.416105e+14	9.503032e+13	8.470283e+03	4.308799e+03	3.217223e+03	0	7.511113e-04
4.700000e+08	1.202379e+13	0.000000e+00	6.347826e-01	2.186773e+14	2.434315e+14	9.455101e+13	8.445933e+03	4.314272e+03	3.221308e+03	0	7.472038e-04
4.800000e+08	1.183801e+13	0.000000e+00	6.347826e-01	2.156005e+14	2.451293e+14	9.407513e+13	8.421925e+03	4.319346e+03	3.225098e+03	0	7.433356e-04
4.900000e+08	1.165601e+13	0.000000e+00	6.347826e-01	2.125857e+14	2.467066e+14	9.360266e+13	8.398253e+03	4.324038e+03	3.228601e+03	0	7.395064e-04
5.000000e+08	1.147770e+13	0.000000e+00	6.347826e-01	2.096317e+14	2.481663e+14	9.313356e+13	8.374911e+03	4.328360e+03	3.231828e+03	0	7.357162e-04
5.100000e+08	1.130302e+13	0.000000e+00	6.347826e-01	2.067373e+14	2.495113e+14	9.266782e+13	8.351892e+03	4.332326e+03	3.234789e+03	0	7.319646e-04
5.200000e+08	1.113188e+13	0.000000e+00	6.347826e-01	2.039012e+14	2.507446e+14	9.220540e+13	8.329189e+03	4.335949e+03	3.237494e+03	0	7.282516e-04
5.300000e+08	1.096421e+13	0.000000e+00	6.347826e-01	2.011222e+14	2.518691e+14	9.174628e+13	8.306796e+03	4.339241e+03	3.239952e+03	0	7.245768e-04
5.400000e+08	1.079994e+13	0.000000e+00	6.347826e-01	1.983991e+14	2.528882e+14	9.129043e+13	8.284707e+03	4.342214e+03	3.242172e+03	0	7.209400e-04
5.500000e+08	1.063900e+13	0.000000e+00	6.347826e-01	1.957307e+14	2.538049e+14	9.083783e+13	8.262915e+03	4.344882e+03	3.244164e+03	0	7.173408e-04
5.600000e+08	1.048131e+13	0.000000e+00	6.347826e-01	1.931159e+14	2.546225e+14	9.038844e+13	8.241416e+03	4.347255e+03	3.245936e+03	0	7.137791e-04
5.700000e+08	1.032680e+13	0.000000e+00	6.347826e-01	1.905533e+14	2.553442e+14	8.994224e+13	8.220202e+03	4.349345e+03	3.247496e+03	0	7.102543e-04
5.800000e+08	1.017540e+13	0.000000e+00	6.347826e-01	1.880420e+14	2.559732e+14	8.949921e+13	8.199268e+03	4.351163e+03	3.248854e+03	0	7.067663e-04
5.900000e+08	1.002705e+13	0.000000e+00	6.347826e-01	1.855807e+14	2.565127e+14	8.905932e+13	8.178609e+03	4.352720e+03	3.250016e+03	0	7.033147e-04
6.000000e+08	9.881668e+12	0.000000e+00	6.347826e-01	1.831684e+14	2.569659e+14	8.862254e+13	8.158220e+03	4.354026e+03	3.250991e+03	0	6.998990e-04
6.100000e+08	9.739193e+12	0.000000e+00	6.347826e-01	1.808038e+14	2.573360e+14	8.818886e+13	8.138094e+03	4.355091e+03	3.251787e+03	0	6.965190e-04
6.200000e+08	9.599557e+12	0.000000e+00	6.347826e-01	1.784860e+14	2.576262e+14	8.775823e+13	8.118227e+03	4.355925e+03	3.252410e+03	0	6.931742e-04
6.300000e+08	9.462697e+12	0.000000e+00	6.347826e-01	1.762138e+14	2.578395e+14	8.733065e+13	8.098613e+03	4.356538e+03	3.252867e+03	0	6.898642e-04
6.400000e+08	9.328546e+12	0.000000e+00	6.347826e-01	1.739863e+14	2.579789e+14	8.690608e+13	8.079248e+03	4.356938e+03	3.253166e+03	0	6.865887e-04
6.500000e+08	9.197044e+12	0.000000e+00	6.347826e-01	1.718023e+14	2.580475e+14	8.648450e+13	8.060127e+03	4.357135e+03	3.253313e+03	0	6.833471e-04
6.600000e+08	9.068128e+12	0.000000e+00	6.347826e-01	1.696608e+14	2.580483e+14	8.606589e+13	8.041245e+03	4.357137e+03	3.253315e+03	0	6.801393e-04
6.700000e+08	8.941737e+12	0.000000e+00	6.347826e-01	1.675610e+14	2.579840e+14	8.565023e+13	8.022597e+03	4.356953e+03	3.253177e+03	0	6.769646e-04
6.800000e+08	8.817814e+12	0.000000e+00	6.347826e-01	1.655017e+14	2.578575e+14	8.523748e+13	8.004179e+03	4.356590e+03	3.252906e+03	0	6.738227e-04
6.900000e+08	8.696299e+12	0.000000e+00	6.347826e-01	1.634821e+14	2.576716e+14	8.482763e+13	7.985987e+03	4.356056e+03	3.252507e+03	0	6.707131e-04
7.000000e+08	8.577137e+12	0.000000e+00	6.347826e-01	1.615013e+14	2.574289e+14	8.442065e+13	7.968015e+03	4.355358e+03	3.251986e+03	0	6.676355e-04
7.100000e+08	8.460272e+12	0.000000e+00	6.347826e-01	1.595582e+14	2.571321e+14	8.401652e+13	7.950261e+03	4.354504e+03	3.251349e+03	0	6.645894e-04
7.200000e+08	8.345650e+12	0.000000e+00	6.347826e-01	1.576521e+14	2.567837e+14	8.361521e+13	7.932719e+03	4.353501e+03	3.250599e+03	0	6.615744e-04
7.300000e+08	8.233218e+12	0.000000e+00	6.347826e-01	1.557820e+14	2.563861e+14	8.321671e+13	7.915386e+03	4.352355e+03	3.249744e+03	0	6.585901e-04
7.400000e+08	8.122924e+12	0.000000e+00	6.347826e-01	1.539472e+14	2.559417e+14	8.282100e+13	7.898257e+03	4.351072e+03	3.248786e+03	0	6.556360e-04
7.500000e+08	8.014719e+12	0.000000e+00	6.347826e-01	1.521467e+14	2.554529e+14	8.242804e+13	7.881330e+03	4.349659e+03	3.247731e+03	0	6.527117e-04
7.600000e+08	7.908552e+12	0.000000e+00	6.347826e-01	1.503798e+14	2.549219e+14	8.203781e+13	7.864600e+03	4.348122e+03	3.246584e+03	0	6.498168e-04
7.700000e+08	7.804376e+12	0.000000e+00	6.347826e-01	1.486457e+14	2.543508e+14	8.165031e+13	7.848063e+03	4.346467e+03	3.245348e+03	0	6.469510e-04
7.800000e+08	7.702143e+12	0.000000e+00	6.347826e-01	1.469437e+14	2.537418e+14	8.126549e+13	7.831716e+03	4.344698e+03	3.244027e+03	0	6.441136e-04
7.900000e+08	7.601809e+12	0.000000e+00	6.347826e-01	1.452729e+14	2.530969e+14	8.088335e+13	7.815556e+03	4.342822e+03	3.242626e+03	0	6.413045e-04
8.000000e+08	7.503329e+12	0.000000e+00	6.347826e-01	1.436326e+14	2.524180e+14	8.050386e+13	7.799578e+03	4.340843e+03	3.241149e+03	0	6.385231e-04
8.100000e+08	7.406658e+12	0.000000e+00	6.347826e-01	1.420222e+14	2.517070e+14	8.012700e+13	7.783781e+03	4.338767e+03	3.239598e+03	0	6.357691e-04
8.200000e+08	7.311755e+12	0.000000e+00	6.347826e-01	1.404408e+14	2.509657e+14	7.975275e+13	7.768160e+03	4.336597e+03	3.237978e+03	0	6.330420e-04
8.300000e+08	7.218579e+12	0.000000e+00	6.347826e-01	1.388880e+14	2.501959e+14	7.938108e+13	7.752712e+03	4.334339e+03	3.236292e+03	0	6.303415e-04
8.400000e+08	7.127088e+12	0.000000e+00	6.347826e-01	1.373629e+14	2.493993e+14	7.901199e+13	7.737434e+03	4.331996e+03	3.234543e+03	0	6.276671e-04
8.500000e+08	7.037245e+12	0.000000e+00	6.347826e-01	1.358650e+14	2.485774e+14	7.864543e+13	7.722324e+03	4.329574e+03	3.232734e+03	0	6.250185e-04
8.600000e+08	6.949010e+12	0.000000e+00	6.347826e-01	1.343936e+14	2.477317e+14	7.828141e+13	7.707377e+03	4.327075e+03	3.230869e+03	0	6.223953e-04
8.700000e+08	6.862347e+12	0.000000e+00	6.347826e-01	1.329481e+14	2.468639e+14	7.791989e+13	7.692592e+03	4.324505e+03	3.228949e+03	0	6.197971e-04
8.800000e+08	6.777219e+12	0.000000e+00	6.347826e-01	1.315279e+14	2.459752e+14	7.756086e+13	7.677965e+03	4.321865e+03	3.226979e+03	0	6.172235e-04
8.900000e+08	6.693590e+12	0.000000e+00	6.347826e-01	1.301325e+14	2.450672e+14	7.720429e+13	7.663494e+03	4.319161e+03	3.224960e+03	0	6.146742e-04
9.000000e+08	6.611427e+12	0.000000e+00	6.347826e-01	1.287612e+14	2.441410e+14	7.685017e+13	7.649176e+03	4.316396e+03	3.222894e+03	0	6.121489e-04
9.100000e+08	6.530696e+12	0.000000e+00	6.347826e-01	1.274135e+14	2.431980e+14	7.649848e+13	7.635009e+03	4.313572e+03	3.220786e+03	0	6.096470e-04
9.200000e+08	6.451365e+12	0.000000e+00	6.347826e-01	1.260889e+14	2.422393e+14	7.614920e+13	7.620989e+03	4.310692e+03	3.218636e+03	0	6.071684e-04
9.300000e+08	6.373400e+12	0.000000e+00	6.347826e-01	1.247869e+14	2.412661e+14	7.580231e+13	7.607114e+03	4.307761e+03	3.216447e+03	0	6.047126e-04
9.400000e+08	6.296773e+12	0.000000e+00	6.347826e-01	1.235069e+14	2.402794e+14	7.545779e+13	7.593382e+03	4.304780e+03	3.214222e+03	0	6.022794e-04
9.500000e+08	6.221451e+12	0.000000e+00	6.347826e-01	1.222485e+14	2.392804e+14	7.511562e+13	7.579790e+03	4.301753e+03	3.211961e+03	0	5.998682e-04
9.600000e+08	6.147407e+12	0.000000e+00	6.347826e-01	1.210112e+14	2.382701e+14	7.477578e+13	7.566337e+03	4.298681e+03	3.209668e+03	0	5.974790e-04
9.700000e+08	6.074611e+12	0.000000e+00	6.347826e-01	1.197944e+14	2.372494e+14	7.443826e+13	7.553019e+03	4.295569e+03	3.207344e+03	0	5.951112e-04
9.800000e+08	6.003036e+12	0.000000e+00	6.347826e-01	1.185979e+14	2.362192e+14	7.410303e+13	7.539834e+03	4.292417e+03	3.204991e+03	0	5.927646e-04
9.900000e+08	5.932654e+12	0.000000e+00	6.347826e-01	1.174210e+14	2.351803e+14	7.377008e+13	7.526781e+03	4.289229e+03	3.202610e+03	0	5.904389e-04
1.000000e+09	5.863440e+12	0.000000e+00	6.347826e-01	1.162633e+14	2.341337e+14	7.343939e+13	7.513857e+03	4.286006e+03	3.200204e+03	0	5.881338e-04
1.010000e+09	5.795367e+12	0.000000e+00	6.347826e-01	1.151246e+14	2.330801e+14	7.311095e+13	7.501060e+03	4.282751e+03	3.197773e+03	0	5.858489e-04
1.020000e+09	5.728410e+12	0.000000e+00	6.347826e-01	1.140042e+14	2.320203e+14	7.278473e+13	7.488387e+03	4.279466e+03	3.195320e+03	0	5.835839e-04
1.030000e+09	5.662545e+12	0.000000e+00	6.347826e-01	1.129019e+14	2.309549e+14	7.246072e+13	7.475838e+03	4.276152e+03	3.192846e+03	0	5.813386e-04
1.040000e+09	5.597748e+12	0.000000e+00	6.347826e-01	1.118172e+14	2.298847e+14	7.213890e+13	7.463410e+03	4.272812e+03	3.190353e+03	0	5.791127e-04
1.050000e+09	5.533996e+12	0.000000e+00	6.347826e-01	1.107498e+14	2.288103e+14	7.181925e+13	7.451100e+03	4.269448e+03	3.187840e+03	0	5.769058e-04
1.060000e+09	5.471267e+12	0.000000e+00	6.347826e-01	1.096993e+14	2.277325e+14	7.150175e+13	7.438908e+03	4.266061e+03	3.185311e+03	0	5.747177e-04
1.070000e+09	5.409539e+12	0.000000e+00	6.347826e-01	1.086653e+14	2.266516e+14	7.118640e+13	7.426831e+03	4.262652e+03	3.182766e+03	0	5.725482e-04
1.080000e+09	5.348789e+12	0.000000e+00	6.347826e-01	1.076476e+14	2.255683e+14	7.087317e+13	7.414868e+03	4.259224e+03	3.180206e+03	0	5.703969e-04
1.090000e+09	5.288998e+12	0.000000e+00	6.347826e-01	1.066456e+14	2.244831e+14	7.056204e+13	7.403016e+03	4.255777e+03	3.177633e+03	0	5.682635e-04
1.100000e+09	5.230145e+12	0.000000e+00	6.347826e-01	1.056591e+14	2.233966e+14	7.025300e+13	7.391274e+03	4.252314e+03	3.175047e+03	0	5.661479e-04
1.110000e+09	5.172211e+12	0.000000e+00	6.347826e-01	1.046879e+14	2.223092e+14	6.994604e+13	7.379640e+03	4.248836e+03	3.172450e+03	0	5.640497e-04
1.120000e+09	5.115175e+12	0.000000e+00	6.347826e-01	1.037314e+14	2.212214e+14	6.964113e+13	7.368113e+03	4.245343e+03	3.169842e+03	0	5.619687e-04
1.130000e+09	5.059019e+12	0.000000e+00	6.347826e-01	1.027896e+14	2.201335e+14	6.933826e+13	7.356691e+03	4.241838e+03	3.167225e+03	0	5.599047e-04
1.140000e+09	5.003726e+12	0.000000e+00	6.347826e-01	1.018620e+14	2.190461e+14	6.903742e+13	7.345373e+03	4.238321e+03	3.164599e+03	0	5.578573e-04
1.150000e+09	4.949276e+12	0.000000e+00	6.347826e-01	1.009483e+14	2.179594e+14	6.873858e+13	7.334156e+03	4.234794e+03	3.161965e+03	0	5.558264e-04
1.160000e+09	4.895653e+12	0.000000e+00	6.347826e-01	1.000483e+14	2.168739e+14	6.844174e+13	7.323039e+03	4.231257e+03	3.159325e+03	0	5.538118e-04
1.170000e+09	4.842840e+12	0.000000e+00	6.347826e-01	9.916175e+13	2.157900e+14	6.814688e+13	7.312021e+03	4.227713e+03	3.156678e+03	0	5.518131e-04
1.180000e+09	4.790820e+12	0.000000e+00	6.347826e-01	9.828829e+13	2.147078e+14	6.785397e+13	7.301101e+03	4.224161e+03	3.154026e+03	0	5.498302e-04
1.190000e+09	4.739577e+12	0.000000e+00	6.347826e-01	9.742768e+13	2.136278e+14	6.756302e+13	7.290276e+03	4.220603e+03	3.151370e+03	0	5.478628e-04
1.200000e+09	4.689095e+12	0.000000e+00	6.347826e-01	9.657968e+13	2.125501e+14	6.727400e+13	7.279546e+03	4.217040e+03	3.148709e+03	0	5.459108e-04
1.210000e+09	4.639360e+12	0.000000e+00	6.347826e-01	9.574401e+13	2.114752e+14	6.698689e+13	7.268910e+03	4.213472e+03	3.146045e+03	0	5.439738e-04
1.220000e+09	4.590355e+12	0.000000e+00	6.347826e-01	9.492045e+13	2.104033e+14	6.670168e+13	7.258364e+03	4.209901e+03	3.143379e+03	0	5.420517e-04
1.230000e+09	4.542067e+12	0.000000e+00	6.347826e-01	9.410875e+13	2.093346e+14	6.641837e+13	7.247910e+03	4.206327e+03	3.140710e+03	0	5.401443e-04
1.240000e+09	4.494481e+12	0.000000e+00	6.347826e-01	9.330868e+13	2.082692e+14	6.613692e+13	7.237544e+03	4.202751e+03	3.138040e+03	0	5.382514e-04
1.250000e+09	4.447584e+12	0.000000e+00	6.347826e-01	9.252000e+13	2.072076e+14	6.585734e+13	7.227266e+03	4.199173e+03	3.135369e+03	0	5.363727e-04
1.260000e+09	4.401361e+12	0.000000e+00	6.347826e-01	9.174250e+13	2.061498e+14	6.557959e+13	7.217075e+03	4.195595e+03	3.132697e+03	0	5.345081e-04
1.270000e+09	4.355800e+12	0.000000e+00	6.347826e-01	9.097596e+13	2.050960e+14	6.530368e+13	7.206970e+03	4.192017e+03	3.130026e+03	0	5.326574e-04
1.280000e+09	4.310888e+12	0.000000e+00	6.347826e-01	9.022016e+13	2.040464e+14	6.502958e+13	7.196948e+03	4.188440e+03	3.127355e+03	0	5.308203e-04
1.290000e+09	4.266612e+12	0.000000e+00	6.347826e-01	8.947490e+13	2.030013e+14	6.475728e+13	7.187009e+03	4.184865e+03	3.124685e+03	0	5.289968e-04
1.300000e+09	4.222960e+12	0.000000e+00	6.347826e-01	8.873998e+13	2.019606e+14	6.448677e+13	7.177153e+03	4.181291e+03	3.122017e+03	0	5.271865e-04
1.310000e+09	4.179920e+12	0.000000e+00	6.347826e-01	8.801520e+13	2.009247e+14	6.421803e+13	7.167377e+03	4.177720e+03	3.119350e+03	0	5.253894e-04
1.320000e+09	4.137480e+12	0.000000e+00	6.347826e-01	8.730037e+13	1.998935e+14	6.395106e+13	7.157681e+03	4.174151e+03	3.116686e+03	0	5.236052e-04
1.330000e+09	4.095629e+12	0.000000e+00	6.347826e-01	8.659530e+13	1.988673e+14	6.368583e+13	7.148063e+03	4.170587e+03	3.114024e+03	0	5.218338e-04
1.340000e+09	4.054356e+12	0.000000e+00	6.347826e-01	8.589980e+13	1.978462e+14	6.342233e+13	7.138522e+03	4.167026e+03	3.111366e+03	0	5.200749e-04
1.350000e+09	4.013650e+12	0.000000e+00	6.347826e-01	8.521370e+13	1.968302e+14	6.316055e+13	7.129059e+03	4.163470e+03	3.108710e+03	0	5.183285e-04
1.360000e+09	3.973500e+12	0.000000e+00	6.347826e-01	8.453682e+13	1.958195e+14	6.290048e+13	7.119670e+03	4.159918e+03	3.106059e+03	0	5.165944e-04
