#t		Qconv[W]	Ri[Rp]		R*[Rp]		Qc[W]		Qm[W]		Qr[W]		Tcmb[K]		Tl[K]		Tup[K]		RiFlag		Bs[T]
0.000000e+00	3.596043e+13	0.000000e+00	6.260869e-01	5.910495e+14	4.970254e+13	1.392712e+14	1.128263e+04	3.543323e+03	2.587715e+03	0	1.082984e-03
1.000000e+07	3.537289e+13	0.000000e+00	6.260869e-01	5.818431e+14	5.415533e+13	1.384995e+14	1.122440e+04	3.587596e+03	2.620049e+03	0	1.077053e-03
2.000000e+07	3.479269e+13	0.000000e+00	6.260869e-01	5.727524e+14	5.880232e+13	1.377336e+14	1.116707e+04	3.630921e+03	2.651689e+03	0	1.071132e-03
3.000000e+07	3.421984e+13	0.000000e+00	6.260869e-01	5.637774e+14	6.363605e+13	1.369734e+14	1.111062e+04	3.673293e+03	2.682634e+03	0	1.065221e-03
4.000000e+07	3.365432e+13	0.000000e+00	6.260869e-01	5.549178e+14	6.864803e+13	1.362190e+14	1.105505e+04	3.714708e+03	2.712880e+03	0	1.059320e-03
5.000000e+07	3.309615e+13	0.000000e+00	6.260869e-01	5.461738e+14	7.382878e+13	1.354701e+14	1.100035e+04	3.755163e+03	2.742424e+03	0	1.053431e-03
6.000000e+07	3.254532e+13	0.000000e+00	6.260869e-01	5.375454e+14	7.916795e+13	1.347268e+14	1.094651e+04	3.794655e+03	2.771265e+03	0	1.047554e-03
7.000000e+07	3.200185e+13	0.000000e+00	6.260869e-01	5.290326e+14	8.465441e+13	1.339890e+14	1.089350e+04	3.833181e+03	2.799401e+03	0	1.041691e-03
8.000000e+07	3.146575e+13	0.000000e+00	6.260869e-01	5.206356e+14	9.027625e+13	1.332568e+14	1.084134e+04	3.870740e+03	2.826831e+03	0	1.035841e-03
9.000000e+07	3.093702e+13	0.000000e+00	6.260869e-01	5.123546e+14	9.602096e+13	1.325300e+14	1.078999e+04	3.907333e+03	2.853555e+03	0	1.030006e-03
1.000000e+08	3.041569e+13	0.000000e+00	6.260869e-01	5.041897e+14	1.018755e+14	1.318085e+14	1.073945e+04	3.942959e+03	2.879573e+03	0	1.024188e-03
1.100000e+08	2.990177e+13	0.000000e+00	6.260869e-01	4.961412e+14	1.078263e+14	1.310925e+14	1.068971e+04	3.977619e+03	2.904885e+03	0	1.018386e-03
1.200000e+08	2.939527e+13	0.000000e+00	6.260869e-01	4.882092e+14	1.138596e+14	1.303817e+14	1.064076e+04	4.011316e+03	2.929494e+03	0	1.012604e-03
1.300000e+08	2.889621e+13	0.000000e+00	6.260869e-01	4.803938e+14	1.199612e+14	1.296762e+14	1.059259e+04	4.044052e+03	2.953402e+03	0	1.006840e-03
1.400000e+08	2.840461e+13	0.000000e+00	6.260869e-01	4.726954e+14	1.261169e+14	1.289759e+14	1.054518e+04	4.075832e+03	2.976611e+03	0	1.001098e-03
1.500000e+08	2.792046e+13	0.000000e+00	6.260869e-01	4.651139e+14	1.323124e+14	1.282808e+14	1.049853e+04	4.106660e+03	2.999125e+03	0	9.953776e-04
1.600000e+08	2.744379e+13	0.000000e+00	6.260869e-01	4.576495e+14	1.385333e+14	1.275909e+14	1.045262e+04	4.136543e+03	3.020948e+03	0	9.896805e-04
1.700000e+08	2.697459e+13	0.000000e+00	6.260869e-01	4.503022e+14	1.447656e+14	1.269060e+14	1.040744e+04	4.165486e+03	3.042086e+03	0	9.840080e-04
1.800000e+08	2.651287e+13	0.000000e+00	6.260869e-01	4.430719e+14	1.509952e+14	1.262262e+14	1.036298e+04	4.193499e+03	3.062544e+03	0	9.783612e-04
1.900000e+08	2.605862e+13	0.000000e+00	6.260869e-01	4.359587e+14	1.572086e+14	1.255514e+14	1.031924e+04	4.220588e+03	3.082327e+03	0	9.727415e-04
2.000000e+08	2.561184e+13	0.000000e+00	6.260869e-01	4.289623e+14	1.633923e+14	1.248815e+14	1.027618e+04	4.246765e+03	3.101444e+03	0	9.671502e-04
2.100000e+08	2.517251e+13	0.000000e+00	6.260869e-01	4.220826e+14	1.695336e+14	1.242166e+14	1.023382e+04	4.272038e+03	3.119902e+03	0	9.615883e-04
2.200000e+08	2.474062e+13	0.000000e+00	6.260869e-01	4.153192e+14	1.756201e+14	1.235565e+14	1.019213e+04	4.296420e+03	3.137708e+03	0	9.560572e-04
2.300000e+08	2.431615e+13	0.000000e+00	6.260869e-01	4.086717e+14	1.816398e+14	1.229013e+14	1.015110e+04	4.319922e+03	3.154872e+03	0	9.505580e-04
2.400000e+08	2.389907e+13	0.000000e+00	6.260869e-01	4.021398e+14	1.875817e+14	1.222509e+14	1.011073e+04	4.342557e+03	3.171402e+03	0	9.450919e-04
2.500000e+08	2.348935e+13	0.000000e+00	6.260869e-01	3.957228e+14	1.934349e+14	1.216053e+14	1.007100e+04	4.364338e+03	3.187309e+03	0	9.396599e-04
2.600000e+08	2.308695e+13	0.000000e+00	6.260869e-01	3.894202e+14	1.991897e+14	1.209644e+14	1.003190e+04	4.385278e+03	3.202602e+03	0	9.342631e-04
2.700000e+08	2.269182e+13	0.000000e+00	6.260869e-01	3.832312e+14	2.048366e+14	1.203282e+14	9.993414e+03	4.405393e+03	3.217292e+03	0	9.289025e-04
2.800000e+08	2.230392e+13	0.000000e+00	6.260869e-01	3.771552e+14	2.103672e+14	1.196966e+14	9.955539e+03	4.424698e+03	3.231390e+03	0	9.235791e-04
2.900000e+08	2.192320e+13	0.000000e+00	6.260869e-01	3.711911e+14	2.157735e+14	1.190696e+14	9.918261e+03	4.443208e+03	3.244908e+03	0	9.182938e-04
3.000000e+08	2.154959e+13	0.000000e+00	6.260869e-01	3.653381e+14	2.210485e+14	1.184473e+14	9.881569e+03	4.460938e+03	3.257857e+03	0	9.130474e-04
3.100000e+08	2.118303e+13	0.000000e+00	6.260869e-01	3.595951e+14	2.261856e+14	1.178294e+14	9.845452e+03	4.477906e+03	3.270249e+03	0	9.078409e-04
3.200000e+08	2.082346e+13	0.000000e+00	6.260869e-01	3.539611e+14	2.311792e+14	1.172160e+14	9.809899e+03	4.494128e+03	3.282096e+03	0	9.026748e-04
3.300000e+08	2.047080e+13	0.000000e+00	6.260869e-01	3.484350e+14	2.360243e+14	1.166071e+14	9.774901e+03	4.509621e+03	3.293410e+03	0	8.975499e-04
3.400000e+08	2.012497e+13	0.000000e+00	6.260869e-01	3.430154e+14	2.407166e+14	1.160026e+14	9.740445e+03	4.524402e+03	3.304205e+03	0	8.924668e-04
3.500000e+08	1.978589e+13	0.000000e+00	6.260869e-01	3.377012e+14	2.452524e+14	1.154025e+14	9.706523e+03	4.538489e+03	3.314493e+03	0	8.874261e-04
3.600000e+08	1.945348e+13	0.000000e+00	6.260869e-01	3.324909e+14	2.496287e+14	1.148068e+14	9.673123e+03	4.551899e+03	3.324286e+03	0	8.824283e-04
3.700000e+08	1.912765e+13	0.000000e+00	6.260869e-01	3.273832e+14	2.538431e+14	1.142154e+14	9.640235e+03	4.564649e+03	3.333597e+03	0	8.774739e-04
3.800000e+08	1.880831e+13	0.000000e+00	6.260869e-01	3.223767e+14	2.578940e+14	1.136282e+14	9.607850e+03	4.576757e+03	3.342440e+03	0	8.725633e-04
3.900000e+08	1.849536e+13	0.000000e+00	6.260869e-01	3.174699e+14	2.617800e+14	1.130453e+14	9.575958e+03	4.588241e+03	3.350827e+03	0	8.676967e-04
4.000000e+08	1.818871e+13	0.000000e+00	6.260869e-01	3.126612e+14	2.655004e+14	1.124666e+14	9.544548e+03	4.599118e+03	3.358771e+03	0	8.628745e-04
4.100000e+08	1.788826e+13	0.000000e+00	6.260869e-01	3.079492e+14	2.690552e+14	1.118921e+14	9.513612e+03	4.609406e+03	3.366284e+03	0	8.580970e-04
4.200000e+08	1.759390e+13	0.000000e+00	6.260869e-01	3.033322e+14	2.724447e+14	1.113217e+14	9.483139e+03	4.619123e+03	3.373380e+03	0	8.533642e-04
4.300000e+08	1.730555e+13	0.000000e+00	6.260869e-01	2.988087e+14	2.756694e+14	1.107554e+14	9.453121e+03	4.628284e+03	3.380071e+03	0	8.486764e-04
4.400000e+08	1.702308e+13	0.000000e+00	6.260869e-01	2.943770e+14	2.787307e+14	1.101932e+14	9.423548e+03	4.636909e+03	3.386370e+03	0	8.440335e-04
4.500000e+08	1.674640e+13	0.000000e+00	6.260869e-01	2.900354e+14	2.816300e+14	1.096351e+14	9.394412e+03	4.645013e+03	3.392288e+03	0	8.394358e-04
4.600000e+08	1.647540e+13	0.000000e+00	6.260869e-01	2.857824e+14	2.843693e+14	1.090809e+14	9.365703e+03	4.652613e+03	3.397838e+03	0	8.348831e-04
4.700000e+08	1.620997e+13	0.000000e+00	6.260869e-01	2.816163e+14	2.869505e+14	1.085307e+14	9.337413e+03	4.659725e+03	3.403032e+03	0	8.303753e-04
4.800000e+08	1.595002e+13	0.000000e+00	6.260869e-01	2.775354e+14	2.893764e+14	1.079845e+14	9.309533e+03	4.666366e+03	3.407882e+03	0	8.259125e-04
4.900000e+08	1.569542e+13	0.000000e+00	6.260869e-01	2.735380e+14	2.916494e+14	1.074422e+14	9.282055e+03	4.672552e+03	3.412400e+03	0	8.214945e-04
5.000000e+08	1.544608e+13	0.000000e+00	6.260869e-01	2.696225e+14	2.937726e+14	1.069037e+14	9.254971e+03	4.678298e+03	3.416596e+03	0	8.171211e-04
5.100000e+08	1.520189e+13	0.000000e+00	6.260869e-01	2.657873e+14	2.957491e+14	1.063691e+14	9.228273e+03	4.683619e+03	3.420482e+03	0	8.127921e-04
5.200000e+08	1.496273e+13	0.000000e+00	6.260869e-01	2.620305e+14	2.975821e+14	1.058383e+14	9.201953e+03	4.688531e+03	3.424069e+03	0	8.085074e-04
5.300000e+08	1.472852e+13	0.000000e+00	6.260869e-01	2.583507e+14	2.992751e+14	1.053113e+14	9.176003e+03	4.693048e+03	3.427368e+03	0	8.042665e-04
5.400000e+08	1.449913e+13	0.000000e+00	6.260869e-01	2.547462e+14	3.008317e+14	1.047881e+14	9.150416e+03	4.697184e+03	3.430389e+03	0	8.000694e-04
5.500000e+08	1.427447e+13	0.000000e+00	6.260869e-01	2.512154e+14	3.022553e+14	1.042685e+14	9.125184e+03	4.700953e+03	3.433142e+03	0	7.959156e-04
5.600000e+08	1.405444e+13	0.000000e+00	6.260869e-01	2.477566e+14	3.035501e+14	1.037527e+14	9.100300e+03	4.704369e+03	3.435636e+03	0	7.918049e-04
5.700000e+08	1.383893e+13	0.000000e+00	6.260869e-01	2.443683e+14	3.047194e+14	1.032405e+14	9.075757e+03	4.707446e+03	3.437883e+03	0	7.877368e-04
5.800000e+08	1.362784e+13	0.000000e+00	6.260869e-01	2.410489e+14	3.057673e+14	1.027320e+14	9.051548e+03	4.710195e+03	3.439891e+03	0	7.837111e-04
5.900000e+08	1.342107e+13	0.000000e+00	6.260869e-01	2.377969e+14	3.066976e+14	1.022271e+14	9.027666e+03	4.712631e+03	3.441670e+03	0	7.797273e-04
6.000000e+08	1.321853e+13	0.000000e+00	6.260869e-01	2.346108e+14	3.075142e+14	1.017257e+14	9.004105e+03	4.714764e+03	3.443227e+03	0	7.757851e-04
6.100000e+08	1.302012e+13	0.000000e+00	6.260869e-01	2.314890e+14	3.082208e+14	1.012279e+14	8.980859e+03	4.716606e+03	3.444573e+03	0	7.718840e-04
6.200000e+08	1.282574e+13	0.000000e+00	6.260869e-01	2.284301e+14	3.088215e+14	1.007336e+14	8.957920e+03	4.718170e+03	3.445715e+03	0	7.680235e-04
6.300000e+08	1.263531e+13	0.000000e+00	6.260869e-01	2.254327e+14	3.093199e+14	1.002428e+14	8.935283e+03	4.719466e+03	3.446661e+03	0	7.642034e-04
6.400000e+08	1.244872e+13	0.000000e+00	6.260869e-01	2.224953e+14	3.097199e+14	9.975546e+13	8.912942e+03	4.720504e+03	3.447420e+03	0	7.604230e-04
6.500000e+08	1.226589e+13	0.000000e+00	6.260869e-01	2.196164e+14	3.100252e+14	9.927155e+13	8.890891e+03	4.721297e+03	3.447999e+03	0	7.566820e-04
6.600000e+08	1.208674e+13	0.000000e+00	6.260869e-01	2.167949e+14	3.102396e+14	9.879105e+13	8.869123e+03	4.721853e+03	3.448405e+03	0	7.529799e-04
6.700000e+08	1.191117e+13	0.000000e+00	6.260869e-01	2.140292e+14	3.103666e+14	9.831392e+13	8.847635e+03	4.722182e+03	3.448645e+03	0	7.493162e-04
6.800000e+08	1.173910e+13	0.000000e+00	6.260869e-01	2.113181e+14	3.104099e+14	9.784015e+13	8.826419e+03	4.722294e+03	3.448727e+03	0	7.456905e-04
6.900000e+08	1.157045e+13	0.000000e+00	6.260869e-01	2.086603e+14	3.103729e+14	9.736970e+13	8.805470e+03	4.722198e+03	3.448657e+03	0	7.421023e-04
7.000000e+08	1.140514e+13	0.000000e+00	6.260869e-01	2.060546e+14	3.102590e+14	9.690255e+13	8.784784e+03	4.721903e+03	3.448441e+03	0	7.385510e-04
7.100000e+08	1.124308e+13	0.000000e+00	6.260869e-01	2.034997e+14	3.100717e+14	9.643866e+13	8.764356e+03	4.721417e+03	3.448086e+03	0	7.350363e-04
7.200000e+08	1.108420e+13	0.000000e+00	6.260869e-01	2.009944e+14	3.098140e+14	9.597803e+13	8.744179e+03	4.720749e+03	3.447598e+03	0	7.315576e-04
7.300000e+08	1.092843e+13	0.000000e+00	6.260869e-01	1.985375e+14	3.094893e+14	9.552061e+13	8.724250e+03	4.719906e+03	3.446983e+03	0	7.281144e-04
7.400000e+08	1.077569e+13	0.000000e+00	6.260869e-01	1.961279e+14	3.091007e+14	9.506638e+13	8.704564e+03	4.718896e+03	3.446245e+03	0	7.247063e-04
7.500000e+08	1.062590e+13	0.000000e+00	6.260869e-01	1.937644e+14	3.086512e+14	9.461532e+13	8.685115e+03	4.717727e+03	3.445391e+03	0	7.213327e-04
7.600000e+08	1.047901e+13	0.000000e+00	6.260869e-01	1.914460e+14	3.081437e+14	9.416740e+13	8.665900e+03	4.716405e+03	3.444426e+03	0	7.179933e-04
7.700000e+08	1.033493e+13	0.000000e+00	6.260869e-01	1.891715e+14	3.075809e+14	9.372260e+13	8.646914e+03	4.714938e+03	3.443355e+03	0	7.146875e-04
7.800000e+08	1.019360e+13	0.000000e+00	6.260869e-01	1.869400e+14	3.069657e+14	9.328089e+13	8.628152e+03	4.713331e+03	3.442181e+03	0	7.114148e-04
7.900000e+08	1.005496e+13	0.000000e+00	6.260869e-01	1.847505e+14	3.063007e+14	9.284225e+13	8.609611e+03	4.711592e+03	3.440911e+03	0	7.081747e-04
8.000000e+08	9.918938e+12	0.000000e+00	6.260869e-01	1.826018e+14	3.055885e+14	9.240665e+13	8.591286e+03	4.709727e+03	3.439549e+03	0	7.049669e-04
8.100000e+08	9.785476e+12	0.000000e+00	6.260869e-01	1.804931e+14	3.048316e+14	9.197407e+13	8.573174e+03	4.707741e+03	3.438099e+03	0	7.017908e-04
8.200000e+08	9.654513e+12	0.000000e+00	6.260869e-01	1.784234e+14	3.040324e+14	9.154448e+13	8.555269e+03	4.705639e+03	3.436564e+03	0	6.986459e-04
8.300000e+08	9.525989e+12	0.000000e+00	6.260869e-01	1.763918e+14	3.031931e+14	9.111787e+13	8.537570e+03	4.703429e+03	3.434949e+03	0	6.955319e-04
8.400000e+08	9.399846e+12	0.000000e+00	6.260869e-01	1.743973e+14	3.023161e+14	9.069419e+13	8.520071e+03	4.701113e+03	3.433259e+03	0	6.924481e-04
8.500000e+08	9.276028e+12	0.000000e+00	6.260869e-01	1.724392e+14	3.014034e+14	9.027345e+13	8.502769e+03	4.698699e+03	3.431495e+03	0	6.893943e-04
8.600000e+08	9.154481e+12	0.000000e+00	6.260869e-01	1.705166e+14	3.004571e+14	8.985560e+13	8.485661e+03	4.696190e+03	3.429663e+03	0	6.863699e-04
8.700000e+08	9.035151e+12	0.000000e+00	6.260869e-01	1.686286e+14	2.994792e+14	8.944063e+13	8.468742e+03	4.693591e+03	3.427765e+03	0	6.833746e-04
8.800000e+08	8.917985e+12	0.000000e+00	6.260869e-01	1.667744e+14	2.984716e+14	8.902851e+13	8.452011e+03	4.690906e+03	3.425804e+03	0	6.804077e-04
8.900000e+08	8.802934e+12	0.000000e+00	6.260869e-01	1.649532e+14	2.974362e+14	8.861923e+13	8.435462e+03	4.688141e+03	3.423785e+03	0	6.774691e-04
9.000000e+08	8.689948e+12	0.000000e+00	6.260869e-01	1.631643e+14	2.963747e+14	8.821275e+13	8.419094e+03	4.685298e+03	3.421708e+03	0	6.745582e-04
9.100000e+08	8.578979e+12	0.000000e+00	6.260869e-01	1.614070e+14	2.952888e+14	8.780906e+13	8.402903e+03	4.682382e+03	3.419579e+03	0	6.716745e-04
9.200000e+08	8.469980e+12	0.000000e+00	6.260869e-01	1.596804e+14	2.941801e+14	8.740814e+13	8.386885e+03	4.679397e+03	3.417399e+03	0	6.688178e-04
9.300000e+08	8.362906e+12	0.000000e+00	6.260869e-01	1.579839e+14	2.930501e+14	8.700996e+13	8.371038e+03	4.676346e+03	3.415171e+03	0	6.659875e-04
9.400000e+08	8.257712e+12	0.000000e+00	6.260869e-01	1.563168e+14	2.919004e+14	8.661449e+13	8.355359e+03	4.673233e+03	3.412897e+03	0	6.631833e-04
9.500000e+08	8.154356e+12	0.000000e+00	6.260869e-01	1.546785e+14	2.907324e+14	8.622173e+13	8.339844e+03	4.670061e+03	3.410580e+03	0	6.604048e-04
9.600000e+08	8.052795e+12	0.000000e+00	6.260869e-01	1.530682e+14	2.895474e+14	8.583165e+13	8.324492e+03	4.666833e+03	3.408223e+03	0	6.576516e-04
9.700000e+08	7.952988e+12	0.000000e+00	6.260869e-01	1.514853e+14	2.883467e+14	8.544422e+13	8.309299e+03	4.663552e+03	3.405827e+03	0	6.549233e-04
9.800000e+08	7.854895e+12	0.000000e+00	6.260869e-01	1.499293e+14	2.871316e+14	8.505943e+13	8.294262e+03	4.660222e+03	3.403395e+03	0	6.522195e-04
9.900000e+08	7.758479e+12	0.000000e+00	6.260869e-01	1.483995e+14	2.859032e+14	8.467726e+13	8.279379e+03	4.656845e+03	3.400929e+03	0	6.495399e-04
1.000000e+09	7.663700e+12	0.000000e+00	6.260869e-01	1.468953e+14	2.846628e+14	8.429768e+13	8.264648e+03	4.653424e+03	3.398430e+03	0	6.468841e-04
1.010000e+09	7.570523e+12	0.000000e+00	6.260869e-01	1.454162e+14	2.834113e+14	8.392067e+13	8.250065e+03	4.649961e+03	3.395902e+03	0	6.442518e-04
1.020000e+09	7.478911e+12	0.000000e+00	6.260869e-01	1.439615e+14	2.821499e+14	8.354622e+13	8.235629e+03	4.646459e+03	3.393344e+03	0	6.416425e-04
1.030000e+09	7.388830e+12	0.000000e+00	6.260869e-01	1.425308e+14	2.808794e+14	8.317430e+13	8.221337e+03	4.642921e+03	3.390760e+03	0	6.390560e-04
1.040000e+09	7.300245e+12	0.000000e+00	6.260869e-01	1.411236e+14	2.796009e+14	8.280489e+13	8.207186e+03	4.639348e+03	3.388151e+03	0	6.364918e-04
1.050000e+09	7.213124e+12	0.000000e+00	6.260869e-01	1.397393e+14	2.783152e+14	8.243798e+13	8.193175e+03	4.635742e+03	3.385518e+03	0	6.339497e-04
1.060000e+09	7.127435e+12	0.000000e+00	6.260869e-01	1.383773e+14	2.770233e+14	8.207355e+13	8.179300e+03	4.632107e+03	3.382863e+03	0	6.314293e-04
1.070000e+09	7.043146e+12	0.000000e+00	6.260869e-01	1.370373e+14	2.757258e+14	8.171157e+13	8.165560e+03	4.628444e+03	3.380187e+03	0	6.289304e-04
1.080000e+09	6.960227e+12	0.000000e+00	6.260869e-01	1.357188e+14	2.744235e+14	8.135202e+13	8.151953e+03	4.624754e+03	3.377493e+03	0	6.264525e-04
1.090000e+09	6.878648e+12	0.000000e+00	6.260869e-01	1.344213e+14	2.731174e+14	8.099489e+13	8.138476e+03	4.621040e+03	3.374781e+03	0	6.239954e-04
1.100000e+09	6.798380e+12	0.000000e+00	6.260869e-01	1.331442e+14	2.718078e+14	8.064016e+13	8.125128e+03	4.617304e+03	3.372052e+03	0	6.215587e-04
1.110000e+09	6.719394e+12	0.000000e+00	6.260869e-01	1.318873e+14	2.704957e+14	8.028781e+13	8.111906e+03	4.613547e+03	3.369308e+03	0	6.191422e-04
1.120000e+09	6.641665e+12	0.000000e+00	6.260869e-01	1.306501e+14	2.691816e+14	7.993782e+13	8.098809e+03	4.609770e+03	3.366550e+03	0	6.167455e-04
1.130000e+09	6.565164e+12	0.000000e+00	6.260869e-01	1.294321e+14	2.678660e+14	7.959017e+13	8.085834e+03	4.605976e+03	3.363779e+03	0	6.143684e-04
1.140000e+09	6.489866e+12	0.000000e+00	6.260869e-01	1.282330e+14	2.665497e+14	7.924485e+13	8.072979e+03	4.602165e+03	3.360996e+03	0	6.120105e-04
1.150000e+09	6.415745e+12	0.000000e+00	6.260869e-01	1.270523e+14	2.652329e+14	7.890183e+13	8.060244e+03	4.598340e+03	3.358202e+03	0	6.096717e-04
1.160000e+09	6.342776e+12	0.000000e+00	6.260869e-01	1.258897e+14	2.639164e+14	7.856110e+13	8.047625e+03	4.594501e+03	3.355399e+03	0	6.073515e-04
1.170000e+09	6.270936e+12	0.000000e+00	6.260869e-01	1.247448e+14	2.626007e+14	7.822264e+13	8.035121e+03	4.590650e+03	3.352587e+03	0	6.050498e-04
1.180000e+09	6.200201e+12	0.000000e+00	6.260869e-01	1.236172e+14	2.612861e+14	7.788643e+13	8.022731e+03	4.586788e+03	3.349766e+03	0	6.027663e-04
1.190000e+09	6.130549e+12	0.000000e+00	6.260869e-01	1.225065e+14	2.599730e+14	7.755246e+13	8.010452e+03	4.582917e+03	3.346939e+03	0	6.005006e-04
1.200000e+09	6.061956e+12	0.000000e+00	6.260869e-01	1.214126e+14	2.586620e+14	7.722070e+13	7.998283e+03	4.579037e+03	3.344105e+03	0	5.982526e-04
1.210000e+09	5.994401e+12	0.000000e+00	6.260869e-01	1.203348e+14	2.573533e+14	7.689114e+13	7.986223e+03	4.575149e+03	3.341266e+03	0	5.960220e-04
1.220000e+09	5.927862e+12	0.000000e+00	6.260869e-01	1.192731e+14	2.560474e+14	7.656377e+13	7.974269e+03	4.571255e+03	3.338422e+03	0	5.938085e-04
1.230000e+09	5.862320e+12	0.000000e+00	6.260869e-01	1.182270e+14	2.547445e+14	7.623856e+13	7.962421e+03	4.567355e+03	3.335574e+03	0	5.916118e-04
1.240000e+09	5.797754e+12	0.000000e+00	6.260869e-01	1.171962e+14	2.534451e+14	7.591551e+13	7.950676e+03	4.563451e+03	3.332723e+03	0	5.894319e-04
1.250000e+09	5.734145e+12	0.000000e+00	6.260869e-01	1.161804e+14	2.521494e+14	7.559458e+13	7.939033e+03	4.559544e+03	3.329869e+03	0	5.872683e-04
1.260000e+09	5.671472e+12	0.000000e+00	6.260869e-01	1.151793e+14	2.508577e+14	7.527577e+13	7.927491e+03	4.555633e+03	3.327013e+03	0	5.851209e-04
1.270000e+09	5.609718e+12	0.000000e+00	6.260869e-01	1.141926e+14	2.495703e+14	7.495906e+13	7.916048e+03	4.551721e+03	3.324156e+03	0	5.829894e-04
1.280000e+09	5.548865e+12	0.000000e+00	6.260869e-01	1.132201e+14	2.482874e+14	7.464444e+13	7.904702e+03	4.547808e+03	3.321298e+03	0	5.808737e-04
1.290000e+09	5.488894e+12	0.000000e+00	6.260869e-01	1.122615e+14	2.470093e+14	7.433188e+13	7.893453e+03	4.543894e+03	3.318440e+03	0	5.787735e-04
1.300000e+09	5.429787e+12	0.000000e+00	6.260869e-01	1.113164e+14	2.457362e+14	7.402137e+13	7.882299e+03	4.539980e+03	3.315582e+03	0	5.766885e-04
1.310000e+09	5.371530e+12	0.000000e+00	6.260869e-01	1.103846e+14	2.444683e+14	7.371290e+13	7.871239e+03	4.536068e+03	3.312725e+03	0	5.746186e-04
1.320000e+09	5.314103e+12	0.000000e+00	6.260869e-01	1.094659e+14	2.432058e+14	7.340645e+13	7.860271e+03	4.532157e+03	3.309869e+03	0	5.725635e-04
1.330000e+09	5.257493e+12	0.000000e+00	6.260869e-01	1.085601e+14	2.419488e+14	7.310201e+13	7.849394e+03	4.528249e+03	3.307014e+03	0	5.705231e-04
1.340000e+09	5.201682e+12	0.000000e+00	6.260869e-01	1.076668e+14	2.406976e+14	7.279955e+13	7.838606e+03	4.524343e+03	3.304162e+03	0	5.684971e-04
1.350000e+09	5.146655e+12	0.000000e+00	6.260869e-01	1.067858e+14	2.394524e+14	7.249907e+13	7.827907e+03	4.520441e+03	3.301312e+03	0	5.664854e-04
1.360000e+09	5.092398e+12	0.000000e+00	6.260869e-01	1.059169e+14	2.382131e+14	7.220054e+13	7.817296e+03	4.516543e+03	3.298466e+03	0	5.644877e-04
