#t		Qconv[W]	Ri[Rp]		R*[Rp]		Qc[W]		Qm[W]		Qr[W]		Tcmb[K]		Tl[K]		Tup[K]		RiFlag		Bs[T]
0.000000e+00	4.253602e+13	0.000000e+00	6.347828e-01	6.487457e+14	5.141653e+13	1.488769e+14	1.153561e+04	3.578423e+03	2.601788e+03	0	1.126726e-03
1.000000e+07	4.190817e+13	0.000000e+00	6.347828e-01	6.396662e+14	5.610755e+13	1.480520e+14	1.147964e+04	3.623752e+03	2.634745e+03	0	1.121155e-03
2.000000e+07	4.128556e+13	0.000000e+00	6.347828e-01	6.306637e+14	6.101747e+13	1.472333e+14	1.142444e+04	3.668185e+03	2.667051e+03	0	1.115575e-03
3.000000e+07	4.066828e+13	0.000000e+00	6.347828e-01	6.217398e+14	6.613975e+13	1.464207e+14	1.137001e+04	3.711713e+03	2.698700e+03	0	1.109988e-03
4.000000e+07	4.005645e+13	0.000000e+00	6.347828e-01	6.128958e+14	7.146666e+13	1.456142e+14	1.131635e+04	3.754330e+03	2.729685e+03	0	1.104393e-03
5.000000e+07	3.945016e+13	0.000000e+00	6.347828e-01	6.041331e+14	7.698937e+13	1.448137e+14	1.126345e+04	3.796027e+03	2.760002e+03	0	1.098793e-03
6.000000e+07	3.884954e+13	0.000000e+00	6.347828e-01	5.954534e+14	8.269799e+13	1.440191e+14	1.121129e+04	3.836799e+03	2.789646e+03	0	1.093188e-03
7.000000e+07	3.825469e+13	0.000000e+00	6.347828e-01	5.868582e+14	8.858164e+13	1.432305e+14	1.115988e+04	3.876640e+03	2.818614e+03	0	1.087580e-03
8.000000e+07	3.766572e+13	0.000000e+00	6.347828e-01	5.783489e+14	9.462855e+13	1.424477e+14	1.110921e+04	3.915545e+03	2.846901e+03	0	1.081969e-03
9.000000e+07	3.708275e+13	0.000000e+00	6.347828e-01	5.699273e+14	1.008261e+14	1.416708e+14	1.105926e+04	3.953511e+03	2.874505e+03	0	1.076358e-03
1.000000e+08	3.650589e+13	0.000000e+00	6.347828e-01	5.615948e+14	1.071610e+14	1.408996e+14	1.101004e+04	3.990534e+03	2.901424e+03	0	1.070748e-03
1.100000e+08	3.593526e+13	0.000000e+00	6.347828e-01	5.533530e+14	1.136192e+14	1.401341e+14	1.096153e+04	4.026612e+03	2.927655e+03	0	1.065139e-03
1.200000e+08	3.537097e+13	0.000000e+00	6.347828e-01	5.452035e+14	1.201864e+14	1.393744e+14	1.091373e+04	4.061744e+03	2.953199e+03	0	1.059535e-03
1.300000e+08	3.481312e+13	0.000000e+00	6.347828e-01	5.371478e+14	1.268475e+14	1.386202e+14	1.086663e+04	4.095929e+03	2.978054e+03	0	1.053935e-03
1.400000e+08	3.426182e+13	0.000000e+00	6.347828e-01	5.291872e+14	1.335873e+14	1.378716e+14	1.082022e+04	4.129169e+03	3.002222e+03	0	1.048342e-03
1.500000e+08	3.371717e+13	0.000000e+00	6.347828e-01	5.213232e+14	1.403905e+14	1.371286e+14	1.077450e+04	4.161466e+03	3.025704e+03	0	1.042757e-03
1.600000e+08	3.317927e+13	0.000000e+00	6.347828e-01	5.135572e+14	1.472414e+14	1.363910e+14	1.072944e+04	4.192821e+03	3.048502e+03	0	1.037182e-03
1.700000e+08	3.264822e+13	0.000000e+00	6.347828e-01	5.058903e+14	1.541245e+14	1.356589e+14	1.068506e+04	4.223239e+03	3.070618e+03	0	1.031619e-03
1.800000e+08	3.212410e+13	0.000000e+00	6.347828e-01	4.983239e+14	1.610242e+14	1.349322e+14	1.064133e+04	4.252726e+03	3.092057e+03	0	1.026069e-03
1.900000e+08	3.160698e+13	0.000000e+00	6.347828e-01	4.908589e+14	1.679254e+14	1.342108e+14	1.059826e+04	4.281285e+03	3.112822e+03	0	1.020533e-03
2.000000e+08	3.109694e+13	0.000000e+00	6.347828e-01	4.834963e+14	1.748129e+14	1.334948e+14	1.055582e+04	4.308926e+03	3.132919e+03	0	1.015014e-03
2.100000e+08	3.059406e+13	0.000000e+00	6.347828e-01	4.762371e+14	1.816721e+14	1.327840e+14	1.051402e+04	4.335655e+03	3.152353e+03	0	1.009513e-03
2.200000e+08	3.009838e+13	0.000000e+00	6.347828e-01	4.690820e+14	1.884888e+14	1.320784e+14	1.047284e+04	4.361481e+03	3.171130e+03	0	1.004031e-03
2.300000e+08	2.960995e+13	0.000000e+00	6.347828e-01	4.620318e+14	1.952492e+14	1.313780e+14	1.043227e+04	4.386414e+03	3.189259e+03	0	9.985706e-04
2.400000e+08	2.912883e+13	0.000000e+00	6.347828e-01	4.550869e+14	2.019401e+14	1.306828e+14	1.039231e+04	4.410465e+03	3.206746e+03	0	9.931326e-04
2.500000e+08	2.865504e+13	0.000000e+00	6.347828e-01	4.482478e+14	2.085490e+14	1.299926e+14	1.035295e+04	4.433645e+03	3.223599e+03	0	9.877185e-04
2.600000e+08	2.818861e+13	0.000000e+00	6.347828e-01	4.415148e+14	2.150639e+14	1.293075e+14	1.031418e+04	4.455965e+03	3.239828e+03	0	9.823300e-04
2.700000e+08	2.772955e+13	0.000000e+00	6.347828e-01	4.348881e+14	2.214736e+14	1.286274e+14	1.027599e+04	4.477440e+03	3.255441e+03	0	9.769683e-04
2.800000e+08	2.727788e+13	0.000000e+00	6.347828e-01	4.283679e+14	2.277678e+14	1.279523e+14	1.023836e+04	4.498081e+03	3.270449e+03	0	9.716349e-04
2.900000e+08	2.683360e+13	0.000000e+00	6.347828e-01	4.219541e+14	2.339365e+14	1.272821e+14	1.020130e+04	4.517904e+03	3.284862e+03	0	9.663309e-04
3.000000e+08	2.639670e+13	0.000000e+00	6.347828e-01	4.156465e+14	2.399709e+14	1.266167e+14	1.016479e+04	4.536924e+03	3.298691e+03	0	9.610576e-04
3.100000e+08	2.596716e+13	0.000000e+00	6.347828e-01	4.094450e+14	2.458630e+14	1.259563e+14	1.012882e+04	4.555154e+03	3.311946e+03	0	9.558161e-04
3.200000e+08	2.554496e+13	0.000000e+00	6.347828e-01	4.033490e+14	2.516051e+14	1.253006e+14	1.009338e+04	4.572612e+03	3.324639e+03	0	9.506076e-04
3.300000e+08	2.513007e+13	0.000000e+00	6.347828e-01	3.973582e+14	2.571909e+14	1.246497e+14	1.005847e+04	4.589313e+03	3.336782e+03	0	9.454330e-04
3.400000e+08	2.472245e+13	0.000000e+00	6.347828e-01	3.914720e+14	2.626143e+14	1.240035e+14	1.002408e+04	4.605274e+03	3.348386e+03	0	9.402934e-04
3.500000e+08	2.432206e+13	0.000000e+00	6.347828e-01	3.856897e+14	2.678706e+14	1.233620e+14	9.990187e+03	4.620510e+03	3.359465e+03	0	9.351896e-04
3.600000e+08	2.392884e+13	0.000000e+00	6.347828e-01	3.800105e+14	2.729551e+14	1.227252e+14	9.956797e+03	4.635040e+03	3.370029e+03	0	9.301224e-04
3.700000e+08	2.354275e+13	0.000000e+00	6.347828e-01	3.744337e+14	2.778644e+14	1.220930e+14	9.923895e+03	4.648881e+03	3.380092e+03	0	9.250927e-04
3.800000e+08	2.316370e+13	0.000000e+00	6.347828e-01	3.689582e+14	2.825956e+14	1.214653e+14	9.891474e+03	4.662049e+03	3.389666e+03	0	9.201011e-04
3.900000e+08	2.279165e+13	0.000000e+00	6.347828e-01	3.635831e+14	2.871465e+14	1.208422e+14	9.859525e+03	4.674562e+03	3.398764e+03	0	9.151482e-04
4.000000e+08	2.242650e+13	0.000000e+00	6.347828e-01	3.583074e+14	2.915154e+14	1.202236e+14	9.828039e+03	4.686438e+03	3.407399e+03	0	9.102347e-04
4.100000e+08	2.206820e+13	0.000000e+00	6.347828e-01	3.531297e+14	2.957014e+14	1.196095e+14	9.797007e+03	4.697693e+03	3.415582e+03	0	9.053611e-04
4.200000e+08	2.171664e+13	0.000000e+00	6.347828e-01	3.480490e+14	2.997040e+14	1.189997e+14	9.766421e+03	4.708346e+03	3.423328e+03	0	9.005277e-04
4.300000e+08	2.137174e+13	0.000000e+00	6.347828e-01	3.430641e+14	3.035233e+14	1.183944e+14	9.736273e+03	4.718414e+03	3.430648e+03	0	8.957350e-04
4.400000e+08	2.103343e+13	0.000000e+00	6.347828e-01	3.381735e+14	3.071600e+14	1.177934e+14	9.706555e+03	4.727914e+03	3.437555e+03	0	8.909833e-04
4.500000e+08	2.070159e+13	0.000000e+00	6.347828e-01	3.333760e+14	3.106152e+14	1.171968e+14	9.677258e+03	4.736862e+03	3.444061e+03	0	8.862728e-04
4.600000e+08	2.037614e+13	0.000000e+00	6.347828e-01	3.286701e+14	3.138902e+14	1.166044e+14	9.648375e+03	4.745277e+03	3.450180e+03	0	8.816039e-04
4.700000e+08	2.005698e+13	0.000000e+00	6.347828e-01	3.240546e+14	3.169872e+14	1.160163e+14	9.619898e+03	4.753175e+03	3.455922e+03	0	8.769767e-04
4.800000e+08	1.974400e+13	0.000000e+00	6.347828e-01	3.195278e+14	3.199082e+14	1.154323e+14	9.591819e+03	4.760572e+03	3.461300e+03	0	8.723912e-04
4.900000e+08	1.943712e+13	0.000000e+00	6.347828e-01	3.150884e+14	3.226559e+14	1.148526e+14	9.564130e+03	4.767485e+03	3.466326e+03	0	8.678476e-04
5.000000e+08	1.913621e+13	0.000000e+00	6.347828e-01	3.107349e+14	3.252332e+14	1.142770e+14	9.536823e+03	4.773930e+03	3.471012e+03	0	8.633459e-04
5.100000e+08	1.884118e+13	0.000000e+00	6.347828e-01	3.064657e+14	3.276430e+14	1.137055e+14	9.509893e+03	4.779922e+03	3.475369e+03	0	8.588862e-04
5.200000e+08	1.855193e+13	0.000000e+00	6.347828e-01	3.022793e+14	3.298889e+14	1.131381e+14	9.483330e+03	4.785477e+03	3.479408e+03	0	8.544682e-04
5.300000e+08	1.826834e+13	0.000000e+00	6.347828e-01	2.981744e+14	3.319743e+14	1.125748e+14	9.457129e+03	4.790611e+03	3.483141e+03	0	8.500920e-04
5.400000e+08	1.799032e+13	0.000000e+00	6.347828e-01	2.941492e+14	3.339031e+14	1.120155e+14	9.431282e+03	4.795338e+03	3.486577e+03	0	8.457574e-04
5.500000e+08	1.771775e+13	0.000000e+00	6.347828e-01	2.902023e+14	3.356790e+14	1.114601e+14	9.405782e+03	4.799672e+03	3.489729e+03	0	8.414643e-04
5.600000e+08	1.745053e+13	0.000000e+00	6.347828e-01	2.863321e+14	3.373061e+14	1.109087e+14	9.380623e+03	4.803628e+03	3.492605e+03	0	8.372125e-04
5.700000e+08	1.718855e+13	0.000000e+00	6.347828e-01	2.825372e+14	3.387885e+14	1.103612e+14	9.355798e+03	4.807220e+03	3.495217e+03	0	8.330018e-04
5.800000e+08	1.693171e+13	0.000000e+00	6.347828e-01	2.788160e+14	3.401301e+14	1.098176e+14	9.331300e+03	4.810462e+03	3.497574e+03	0	8.288319e-04
5.900000e+08	1.667990e+13	0.000000e+00	6.347828e-01	2.751671e+14	3.413354e+14	1.092778e+14	9.307124e+03	4.813366e+03	3.499685e+03	0	8.247026e-04
6.000000e+08	1.643303e+13	0.000000e+00	6.347828e-01	2.715889e+14	3.424085e+14	1.087419e+14	9.283263e+03	4.815945e+03	3.501560e+03	0	8.206136e-04
6.100000e+08	1.619098e+13	0.000000e+00	6.347828e-01	2.680800e+14	3.433538e+14	1.082097e+14	9.259710e+03	4.818211e+03	3.503208e+03	0	8.165646e-04
6.200000e+08	1.595365e+13	0.000000e+00	6.347828e-01	2.646389e+14	3.441755e+14	1.076814e+14	9.236461e+03	4.820178e+03	3.504638e+03	0	8.125552e-04
6.300000e+08	1.572095e+13	0.000000e+00	6.347828e-01	2.612642e+14	3.448778e+14	1.071567e+14	9.213508e+03	4.821857e+03	3.505859e+03	0	8.085852e-04
6.400000e+08	1.549277e+13	0.000000e+00	6.347828e-01	2.579544e+14	3.454652e+14	1.066358e+14	9.190847e+03	4.823258e+03	3.506878e+03	0	8.046541e-04
6.500000e+08	1.526902e+13	0.000000e+00	6.347828e-01	2.547081e+14	3.459415e+14	1.061185e+14	9.168472e+03	4.824394e+03	3.507703e+03	0	8.007616e-04
6.600000e+08	1.504960e+13	0.000000e+00	6.347828e-01	2.515240e+14	3.463112e+14	1.056048e+14	9.146378e+03	4.825274e+03	3.508343e+03	0	7.969074e-04
6.700000e+08	1.483441e+13	0.000000e+00	6.347828e-01	2.484007e+14	3.465783e+14	1.050948e+14	9.124558e+03	4.825910e+03	3.508806e+03	0	7.930909e-04
6.800000e+08	1.462337e+13	0.000000e+00	6.347828e-01	2.453369e+14	3.467469e+14	1.045883e+14	9.103008e+03	4.826311e+03	3.509097e+03	0	7.893119e-04
6.900000e+08	1.441637e+13	0.000000e+00	6.347828e-01	2.423312e+14	3.468210e+14	1.040854e+14	9.081723e+03	4.826487e+03	3.509225e+03	0	7.855699e-04
7.000000e+08	1.421333e+13	0.000000e+00	6.347828e-01	2.393823e+14	3.468044e+14	1.035861e+14	9.060697e+03	4.826448e+03	3.509197e+03	0	7.818645e-04
7.100000e+08	1.401417e+13	0.000000e+00	6.347828e-01	2.364890e+14	3.467010e+14	1.030902e+14	9.039927e+03	4.826202e+03	3.509018e+03	0	7.781953e-04
7.200000e+08	1.381878e+13	0.000000e+00	6.347828e-01	2.336500e+14	3.465146e+14	1.025978e+14	9.019406e+03	4.825758e+03	3.508695e+03	0	7.745618e-04
7.300000e+08	1.362709e+13	0.000000e+00	6.347828e-01	2.308641e+14	3.462487e+14	1.021088e+14	8.999131e+03	4.825125e+03	3.508235e+03	0	7.709637e-04
7.400000e+08	1.343902e+13	0.000000e+00	6.347828e-01	2.281301e+14	3.459070e+14	1.016233e+14	8.979096e+03	4.824311e+03	3.507643e+03	0	7.674004e-04
7.500000e+08	1.325447e+13	0.000000e+00	6.347828e-01	2.254469e+14	3.454929e+14	1.011411e+14	8.959298e+03	4.823324e+03	3.506926e+03	0	7.638716e-04
7.600000e+08	1.307338e+13	0.000000e+00	6.347828e-01	2.228132e+14	3.450099e+14	1.006623e+14	8.939732e+03	4.822172e+03	3.506088e+03	0	7.603768e-04
7.700000e+08	1.289566e+13	0.000000e+00	6.347828e-01	2.202280e+14	3.444611e+14	1.001868e+14	8.920393e+03	4.820861e+03	3.505135e+03	0	7.569155e-04
7.800000e+08	1.272124e+13	0.000000e+00	6.347828e-01	2.176901e+14	3.438499e+14	9.971462e+13	8.901278e+03	4.819399e+03	3.504072e+03	0	7.534874e-04
7.900000e+08	1.255004e+13	0.000000e+00	6.347828e-01	2.151986e+14	3.431792e+14	9.924573e+13	8.882382e+03	4.817793e+03	3.502904e+03	0	7.500920e-04
8.000000e+08	1.238198e+13	0.000000e+00	6.347828e-01	2.127522e+14	3.424521e+14	9.878008e+13	8.863702e+03	4.816049e+03	3.501636e+03	0	7.467288e-04
8.100000e+08	1.221700e+13	0.000000e+00	6.347828e-01	2.103501e+14	3.416714e+14	9.831767e+13	8.845233e+03	4.814174e+03	3.500273e+03	0	7.433974e-04
8.200000e+08	1.205503e+13	0.000000e+00	6.347828e-01	2.079911e+14	3.408400e+14	9.785845e+13	8.826972e+03	4.812173e+03	3.498818e+03	0	7.400975e-04
8.300000e+08	1.189599e+13	0.000000e+00	6.347828e-01	2.056744e+14	3.399605e+14	9.740241e+13	8.808915e+03	4.810053e+03	3.497276e+03	0	7.368284e-04
8.400000e+08	1.173982e+13	0.000000e+00	6.347828e-01	2.033990e+14	3.390355e+14	9.694952e+13	8.791059e+03	4.807818e+03	3.495652e+03	0	7.335899e-04
8.500000e+08	1.158646e+13	0.000000e+00	6.347828e-01	2.011638e+14	3.380677e+14	9.649975e+13	8.773399e+03	4.805475e+03	3.493948e+03	0	7.303815e-04
8.600000e+08	1.143584e+13	0.000000e+00	6.347828e-01	1.989681e+14	3.370594e+14	9.605308e+13	8.755932e+03	4.803029e+03	3.492170e+03	0	7.272028e-04
8.700000e+08	1.128790e+13	0.000000e+00	6.347828e-01	1.968110e+14	3.360128e+14	9.560949e+13	8.738656e+03	4.800485e+03	3.490319e+03	0	7.240533e-04
8.800000e+08	1.114257e+13	0.000000e+00	6.347828e-01	1.946915e+14	3.349302e+14	9.516895e+13	8.721566e+03	4.797846e+03	3.488401e+03	0	7.209326e-04
8.900000e+08	1.099981e+13	0.000000e+00	6.347828e-01	1.926088e+14	3.338139e+14	9.473144e+13	8.704659e+03	4.795119e+03	3.486419e+03	0	7.178404e-04
9.000000e+08	1.085954e+13	0.000000e+00	6.347828e-01	1.905621e+14	3.326658e+14	9.429693e+13	8.687933e+03	4.792308e+03	3.484374e+03	0	7.147762e-04
9.100000e+08	1.072173e+13	0.000000e+00	6.347828e-01	1.885505e+14	3.314880e+14	9.386539e+13	8.671384e+03	4.789416e+03	3.482272e+03	0	7.117396e-04
9.200000e+08	1.058630e+13	0.000000e+00	6.347828e-01	1.865734e+14	3.302823e+14	9.343682e+13	8.655008e+03	4.786448e+03	3.480114e+03	0	7.087302e-04
9.300000e+08	1.045321e+13	0.000000e+00	6.347828e-01	1.846299e+14	3.290507e+14	9.301117e+13	8.638804e+03	4.783407e+03	3.477903e+03	0	7.057476e-04
9.400000e+08	1.032240e+13	0.000000e+00	6.347828e-01	1.827193e+14	3.277948e+14	9.258843e+13	8.622768e+03	4.780298e+03	3.475643e+03	0	7.027915e-04
9.500000e+08	1.019383e+13	0.000000e+00	6.347828e-01	1.808409e+14	3.265163e+14	9.216858e+13	8.606898e+03	4.777124e+03	3.473335e+03	0	6.998614e-04
9.600000e+08	1.006744e+13	0.000000e+00	6.347828e-01	1.789939e+14	3.252168e+14	9.175159e+13	8.591190e+03	4.773889e+03	3.470983e+03	0	6.969569e-04
9.700000e+08	9.943193e+12	0.000000e+00	6.347828e-01	1.771776e+14	3.238980e+14	9.133745e+13	8.575642e+03	4.770596e+03	3.468588e+03	0	6.940778e-04
9.800000e+08	9.821030e+12	0.000000e+00	6.347828e-01	1.753915e+14	3.225612e+14	9.092612e+13	8.560251e+03	4.767247e+03	3.466154e+03	0	6.912236e-04
9.900000e+08	9.700910e+12	0.000000e+00	6.347828e-01	1.736347e+14	3.212078e+14	9.051758e+13	8.545015e+03	4.763847e+03	3.463681e+03	0	6.883939e-04
1.000000e+09	9.582789e+12	0.000000e+00	6.347828e-01	1.719068e+14	3.198392e+14	9.011182e+13	8.529930e+03	4.760398e+03	3.461174e+03	0	6.855885e-04
1.010000e+09	9.466622e+12	0.000000e+00	6.347828e-01	1.702070e+14	3.184568e+14	8.970881e+13	8.514996e+03	4.756903e+03	3.458632e+03	0	6.828069e-04
1.020000e+09	9.352367e+12	0.000000e+00	6.347828e-01	1.685347e+14	3.170616e+14	8.930853e+13	8.500208e+03	4.753364e+03	3.456059e+03	0	6.800488e-04
1.030000e+09	9.239983e+12	0.000000e+00	6.347828e-01	1.668895e+14	3.156549e+14	8.891096e+13	8.485566e+03	4.749784e+03	3.453457e+03	0	6.773138e-04
1.040000e+09	9.129429e+12	0.000000e+00	6.347828e-01	1.652705e+14	3.142378e+14	8.851608e+13	8.471066e+03	4.746166e+03	3.450826e+03	0	6.746017e-04
1.050000e+09	9.020666e+12	0.000000e+00	6.347828e-01	1.636774e+14	3.128114e+14	8.812386e+13	8.456706e+03	4.742512e+03	3.448169e+03	0	6.719120e-04
1.060000e+09	8.913656e+12	0.000000e+00	6.347828e-01	1.621096e+14	3.113766e+14	8.773429e+13	8.442484e+03	4.738825e+03	3.445488e+03	0	6.692445e-04
1.070000e+09	8.808360e+12	0.000000e+00	6.347828e-01	1.605665e+14	3.099345e+14	8.734734e+13	8.428397e+03	4.735105e+03	3.442784e+03	0	6.665989e-04
1.080000e+09	8.704744e+12	0.000000e+00	6.347828e-01	1.590476e+14	3.084860e+14	8.696300e+13	8.414445e+03	4.731356e+03	3.440058e+03	0	6.639747e-04
1.090000e+09	8.602770e+12	0.000000e+00	6.347828e-01	1.575524e+14	3.070319e+14	8.658124e+13	8.400624e+03	4.727580e+03	3.437312e+03	0	6.613718e-04
1.100000e+09	8.502405e+12	0.000000e+00	6.347828e-01	1.560804e+14	3.055730e+14	8.620204e+13	8.386932e+03	4.723778e+03	3.434548e+03	0	6.587897e-04
1.110000e+09	8.403615e+12	0.000000e+00	6.347828e-01	1.546311e+14	3.041103e+14	8.582539e+13	8.373368e+03	4.719953e+03	3.431767e+03	0	6.562283e-04
1.120000e+09	8.306367e+12	0.000000e+00	6.347828e-01	1.532041e+14	3.026444e+14	8.545126e+13	8.359930e+03	4.716105e+03	3.428969e+03	0	6.536871e-04
1.130000e+09	8.210628e+12	0.000000e+00	6.347828e-01	1.517988e+14	3.011760e+14	8.507963e+13	8.346615e+03	4.712238e+03	3.426157e+03	0	6.511659e-04
1.140000e+09	8.116368e+12	0.000000e+00	6.347828e-01	1.504149e+14	2.997058e+14	8.471049e+13	8.333422e+03	4.708351e+03	3.423331e+03	0	6.486645e-04
1.150000e+09	8.023555e+12	0.000000e+00	6.347828e-01	1.490519e+14	2.982345e+14	8.434382e+13	8.320349e+03	4.704447e+03	3.420493e+03	0	6.461824e-04
1.160000e+09	7.932161e+12	0.000000e+00	6.347828e-01	1.477094e+14	2.967626e+14	8.397958e+13	8.307394e+03	4.700528e+03	3.417644e+03	0	6.437196e-04
1.170000e+09	7.842156e+12	0.000000e+00	6.347828e-01	1.463869e+14	2.952908e+14	8.361778e+13	8.294555e+03	4.696595e+03	3.414784e+03	0	6.412756e-04
1.180000e+09	7.753512e+12	0.000000e+00	6.347828e-01	1.450840e+14	2.938197e+14	8.325838e+13	8.281831e+03	4.692648e+03	3.411914e+03	0	6.388502e-04
1.190000e+09	7.666200e+12	0.000000e+00	6.347828e-01	1.438004e+14	2.923496e+14	8.290137e+13	8.269220e+03	4.688690e+03	3.409036e+03	0	6.364431e-04
1.200000e+09	7.580196e+12	0.000000e+00	6.347828e-01	1.425357e+14	2.908811e+14	8.254673e+13	8.256719e+03	4.684722e+03	3.406151e+03	0	6.340541e-04
1.210000e+09	7.495471e+12	0.000000e+00	6.347828e-01	1.412895e+14	2.894147e+14	8.219445e+13	8.244329e+03	4.680744e+03	3.403259e+03	0	6.316830e-04
1.220000e+09	7.412001e+12	0.000000e+00	6.347828e-01	1.400614e+14	2.879509e+14	8.184450e+13	8.232047e+03	4.676758e+03	3.400361e+03	0	6.293294e-04
1.230000e+09	7.329760e+12	0.000000e+00	6.347828e-01	1.388511e+14	2.864899e+14	8.149686e+13	8.219871e+03	4.672766e+03	3.397458e+03	0	6.269931e-04
1.240000e+09	7.248724e+12	0.000000e+00	6.347828e-01	1.376581e+14	2.850323e+14	8.115152e+13	8.207800e+03	4.668767e+03	3.394551e+03	0	6.246739e-04
1.250000e+09	7.168870e+12	0.000000e+00	6.347828e-01	1.364823e+14	2.835784e+14	8.080846e+13	8.195832e+03	4.664764e+03	3.391640e+03	0	6.223716e-04
1.260000e+09	7.090173e+12	0.000000e+00	6.347828e-01	1.353232e+14	2.821285e+14	8.046766e+13	8.183966e+03	4.660756e+03	3.388726e+03	0	6.200858e-04
1.270000e+09	7.012612e+12	0.000000e+00	6.347828e-01	1.341805e+14	2.806830e+14	8.012911e+13	8.172201e+03	4.656745e+03	3.385810e+03	0	6.178165e-04
1.280000e+09	6.936164e+12	0.000000e+00	6.347828e-01	1.330539e+14	2.792422e+14	7.979278e+13	8.160535e+03	4.652732e+03	3.382892e+03	0	6.155632e-04
1.290000e+09	6.860808e+12	0.000000e+00	6.347828e-01	1.319431e+14	2.778063e+14	7.945867e+13	8.148966e+03	4.648718e+03	3.379974e+03	0	6.133259e-04
1.300000e+09	6.786522e+12	0.000000e+00	6.347828e-01	1.308478e+14	2.763757e+14	7.912675e+13	8.137494e+03	4.644703e+03	3.377054e+03	0	6.111042e-04
1.310000e+09	6.713287e+12	0.000000e+00	6.347828e-01	1.297677e+14	2.749505e+14	7.879700e+13	8.126116e+03	4.640688e+03	3.374135e+03	0	6.088981e-04
1.320000e+09	6.641081e+12	0.000000e+00	6.347828e-01	1.287024e+14	2.735312e+14	7.846941e+13	8.114833e+03	4.636674e+03	3.371217e+03	0	6.067072e-04
1.330000e+09	6.569886e+12	0.000000e+00	6.347828e-01	1.276518e+14	2.721177e+14	7.814397e+13	8.103641e+03	4.632661e+03	3.368299e+03	0	6.045313e-04
1.340000e+09	6.499682e+12	0.000000e+00	6.347828e-01	1.266156e+14	2.707105e+14	7.782065e+13	8.092541e+03	4.628651e+03	3.365383e+03	0	6.023703e-04
1.350000e+09	6.430451e+12	0.000000e+00	6.347828e-01	1.255934e+14	2.693096e+14	7.749944e+13	8.081531e+03	4.624643e+03	3.362469e+03	0	6.002240e-04
1.360000e+09	6.362174e+12	0.000000e+00	6.347828e-01	1.245850e+14	2.679152e+14	7.718033e+13	8.070609e+03	4.620639e+03	3.359558e+03	0	5.980921e-04
