#t		Qconv[W]	Ri[Rp]		R*[Rp]		Qc[W]		Qm[W]		Qr[W]		Tcmb[K]		Tl[K]		Tup[K]		RiFlag		Bs[T]
0.000000e+00	1.016497e+14	0.000000e+00	6.315791e-01	1.291643e+15	4.492153e+13	2.123610e+14	1.512342e+04	4.007110e+03	2.772511e+03	0	1.490423e-03
1.000000e+07	1.003140e+14	0.000000e+00	6.315791e-01	1.275812e+15	5.039927e+13	2.111844e+14	1.504966e+04	4.070804e+03	2.816580e+03	0	1.483866e-03
2.000000e+07	9.898344e+13	0.000000e+00	6.315791e-01	1.260048e+15	5.628387e+13	2.100166e+14	1.497680e+04	4.133506e+03	2.859963e+03	0	1.477277e-03
3.000000e+07	9.765829e+13	0.000000e+00	6.315791e-01	1.244354e+15	6.257926e+13	2.088575e+14	1.490482e+04	4.195200e+03	2.902650e+03	0	1.470654e-03
4.000000e+07	9.633885e+13	0.000000e+00	6.315791e-01	1.228732e+15	6.928722e+13	2.077070e+14	1.483374e+04	4.255873e+03	2.944629e+03	0	1.464001e-03
5.000000e+07	9.502542e+13	0.000000e+00	6.315791e-01	1.213187e+15	7.640735e+13	2.065651e+14	1.476354e+04	4.315510e+03	2.985892e+03	0	1.457318e-03
6.000000e+07	9.371830e+13	0.000000e+00	6.315791e-01	1.197721e+15	8.393699e+13	2.054318e+14	1.469422e+04	4.374096e+03	3.026428e+03	0	1.450605e-03
7.000000e+07	9.241780e+13	0.000000e+00	6.315791e-01	1.182338e+15	9.187125e+13	2.043069e+14	1.462578e+04	4.431619e+03	3.066227e+03	0	1.443864e-03
8.000000e+07	9.112426e+13	0.000000e+00	6.315791e-01	1.167043e+15	1.002030e+14	2.031903e+14	1.455822e+04	4.488063e+03	3.105281e+03	0	1.437095e-03
9.000000e+07	8.983800e+13	0.000000e+00	6.315791e-01	1.151838e+15	1.089229e+14	2.020820e+14	1.449152e+04	4.543416e+03	3.143580e+03	0	1.430302e-03
1.000000e+08	8.855937e+13	0.000000e+00	6.315791e-01	1.136727e+15	1.180194e+14	2.009820e+14	1.442568e+04	4.597666e+03	3.181115e+03	0	1.423484e-03
1.100000e+08	8.728870e+13	0.000000e+00	6.315791e-01	1.121715e+15	1.274789e+14	1.998902e+14	1.436070e+04	4.650801e+03	3.217879e+03	0	1.416643e-03
1.200000e+08	8.602635e+13	0.000000e+00	6.315791e-01	1.106804e+15	1.372859e+14	1.988064e+14	1.429657e+04	4.702810e+03	3.253864e+03	0	1.409780e-03
1.300000e+08	8.477268e+13	0.000000e+00	6.315791e-01	1.092000e+15	1.474228e+14	1.977306e+14	1.423329e+04	4.753683e+03	3.289063e+03	0	1.402899e-03
1.400000e+08	8.352805e+13	0.000000e+00	6.315791e-01	1.077307e+15	1.578703e+14	1.966629e+14	1.417085e+04	4.803411e+03	3.323470e+03	0	1.395999e-03
1.500000e+08	8.229281e+13	0.000000e+00	6.315791e-01	1.062727e+15	1.686075e+14	1.956030e+14	1.410924e+04	4.851986e+03	3.357079e+03	0	1.389083e-03
1.600000e+08	8.106733e+13	0.000000e+00	6.315791e-01	1.048266e+15	1.796121e+14	1.945509e+14	1.404846e+04	4.899402e+03	3.389885e+03	0	1.382153e-03
1.700000e+08	7.985196e+13	0.000000e+00	6.315791e-01	1.033927e+15	1.908603e+14	1.935066e+14	1.398851e+04	4.945652e+03	3.421886e+03	0	1.375211e-03
1.800000e+08	7.864707e+13	0.000000e+00	6.315791e-01	1.019714e+15	2.023273e+14	1.924700e+14	1.392936e+04	4.990732e+03	3.453076e+03	0	1.368259e-03
1.900000e+08	7.745300e+13	0.000000e+00	6.315791e-01	1.005631e+15	2.139872e+14	1.914410e+14	1.387103e+04	5.034639e+03	3.483456e+03	0	1.361300e-03
2.000000e+08	7.627010e+13	0.000000e+00	6.315791e-01	9.916830e+14	2.258134e+14	1.904197e+14	1.381349e+04	5.077371e+03	3.513022e+03	0	1.354334e-03
2.100000e+08	7.509870e+13	0.000000e+00	6.315791e-01	9.778723e+14	2.377787e+14	1.894058e+14	1.375675e+04	5.118928e+03	3.541775e+03	0	1.347364e-03
2.200000e+08	7.393914e+13	0.000000e+00	6.315791e-01	9.642031e+14	2.498556e+14	1.883993e+14	1.370080e+04	5.159310e+03	3.569715e+03	0	1.340394e-03
2.300000e+08	7.279172e+13	0.000000e+00	6.315791e-01	9.506787e+14	2.620162e+14	1.874003e+14	1.364562e+04	5.198520e+03	3.596845e+03	0	1.333424e-03
2.400000e+08	7.165675e+13	0.000000e+00	6.315791e-01	9.373027e+14	2.742327e+14	1.864086e+14	1.359121e+04	5.236562e+03	3.623166e+03	0	1.326457e-03
2.500000e+08	7.053451e+13	0.000000e+00	6.315791e-01	9.240781e+14	2.864773e+14	1.854241e+14	1.353756e+04	5.273440e+03	3.648681e+03	0	1.319496e-03
2.600000e+08	6.942529e+13	0.000000e+00	6.315791e-01	9.110080e+14	2.987227e+14	1.844468e+14	1.348466e+04	5.309160e+03	3.673396e+03	0	1.312543e-03
2.700000e+08	6.832932e+13	0.000000e+00	6.315791e-01	8.980952e+14	3.109420e+14	1.834767e+14	1.343251e+04	5.343731e+03	3.697316e+03	0	1.305600e-03
2.800000e+08	6.724686e+13	0.000000e+00	6.315791e-01	8.853424e+14	3.231089e+14	1.825137e+14	1.338109e+04	5.377161e+03	3.720446e+03	0	1.298668e-03
2.900000e+08	6.617812e+13	0.000000e+00	6.315791e-01	8.727518e+14	3.351977e+14	1.815577e+14	1.333040e+04	5.409460e+03	3.742794e+03	0	1.291752e-03
3.000000e+08	6.512329e+13	0.000000e+00	6.315791e-01	8.603257e+14	3.471841e+14	1.806087e+14	1.328042e+04	5.440640e+03	3.764367e+03	0	1.284852e-03
3.100000e+08	6.408257e+13	0.000000e+00	6.315791e-01	8.480661e+14	3.590442e+14	1.796666e+14	1.323115e+04	5.470714e+03	3.785175e+03	0	1.277971e-03
3.200000e+08	6.305611e+13	0.000000e+00	6.315791e-01	8.359747e+14	3.707557e+14	1.787313e+14	1.318258e+04	5.499694e+03	3.805226e+03	0	1.271111e-03
3.300000e+08	6.204404e+13	0.000000e+00	6.315791e-01	8.240530e+14	3.822970e+14	1.778028e+14	1.313470e+04	5.527595e+03	3.824531e+03	0	1.264273e-03
3.400000e+08	6.104650e+13	0.000000e+00	6.315791e-01	8.123022e+14	3.936484e+14	1.768811e+14	1.308750e+04	5.554434e+03	3.843101e+03	0	1.257461e-03
3.500000e+08	6.006357e+13	0.000000e+00	6.315791e-01	8.007234e+14	4.047909e+14	1.759661e+14	1.304097e+04	5.580226e+03	3.860946e+03	0	1.250676e-03
3.600000e+08	5.909533e+13	0.000000e+00	6.315791e-01	7.893173e+14	4.157071e+14	1.750577e+14	1.299509e+04	5.604989e+03	3.878080e+03	0	1.243919e-03
3.700000e+08	5.814184e+13	0.000000e+00	6.315791e-01	7.780845e+14	4.263811e+14	1.741559e+14	1.294987e+04	5.628741e+03	3.894514e+03	0	1.237192e-03
3.800000e+08	5.720314e+13	0.000000e+00	6.315791e-01	7.670255e+14	4.367983e+14	1.732606e+14	1.290529e+04	5.651501e+03	3.910261e+03	0	1.230498e-03
3.900000e+08	5.627925e+13	0.000000e+00	6.315791e-01	7.561402e+14	4.469455e+14	1.723718e+14	1.286133e+04	5.673288e+03	3.925335e+03	0	1.223837e-03
4.000000e+08	5.537017e+13	0.000000e+00	6.315791e-01	7.454286e+14	4.568110e+14	1.714894e+14	1.281800e+04	5.694122e+03	3.939751e+03	0	1.217212e-03
4.100000e+08	5.447588e+13	0.000000e+00	6.315791e-01	7.348903e+14	4.663845e+14	1.706133e+14	1.277528e+04	5.714024e+03	3.953521e+03	0	1.210623e-03
4.200000e+08	5.359633e+13	0.000000e+00	6.315791e-01	7.245250e+14	4.756569e+14	1.697436e+14	1.273316e+04	5.733014e+03	3.966660e+03	0	1.204073e-03
4.300000e+08	5.273149e+13	0.000000e+00	6.315791e-01	7.143319e+14	4.846206e+14	1.688801e+14	1.269163e+04	5.751114e+03	3.979183e+03	0	1.197561e-03
4.400000e+08	5.188129e+13	0.000000e+00	6.315791e-01	7.043102e+14	4.932693e+14	1.680229e+14	1.265068e+04	5.768345e+03	3.991105e+03	0	1.191090e-03
4.500000e+08	5.104563e+13	0.000000e+00	6.315791e-01	6.944588e+14	5.015977e+14	1.671718e+14	1.261030e+04	5.784728e+03	4.002441e+03	0	1.184660e-03
4.600000e+08	5.022443e+13	0.000000e+00	6.315791e-01	6.847765e+14	5.096023e+14	1.663268e+14	1.257049e+04	5.800287e+03	4.013206e+03	0	1.178273e-03
4.700000e+08	4.941757e+13	0.000000e+00	6.315791e-01	6.752621e+14	5.172800e+14	1.654879e+14	1.253122e+04	5.815041e+03	4.023414e+03	0	1.171929e-03
4.800000e+08	4.862493e+13	0.000000e+00	6.315791e-01	6.659139e+14	5.246293e+14	1.646550e+14	1.249250e+04	5.829014e+03	4.033082e+03	0	1.165630e-03
4.900000e+08	4.784637e+13	0.000000e+00	6.315791e-01	6.567305e+14	5.316495e+14	1.638281e+14	1.245432e+04	5.842228e+03	4.042225e+03	0	1.159375e-03
5.000000e+08	4.708176e+13	0.000000e+00	6.315791e-01	6.477101e+14	5.383409e+14	1.630070e+14	1.241665e+04	5.854703e+03	4.050857e+03	0	1.153166e-03
5.100000e+08	4.633094e+13	0.000000e+00	6.315791e-01	6.388508e+14	5.447050e+14	1.621919e+14	1.237951e+04	5.866463e+03	4.058993e+03	0	1.147003e-03
5.200000e+08	4.559374e+13	0.000000e+00	6.315791e-01	6.301508e+14	5.507436e+14	1.613825e+14	1.234286e+04	5.877528e+03	4.066649e+03	0	1.140887e-03
5.300000e+08	4.487000e+13	0.000000e+00	6.315791e-01	6.216080e+14	5.564597e+14	1.605790e+14	1.230672e+04	5.887920e+03	4.073839e+03	0	1.134818e-03
5.400000e+08	4.415954e+13	0.000000e+00	6.315791e-01	6.132203e+14	5.618567e+14	1.597811e+14	1.227106e+04	5.897660e+03	4.080578e+03	0	1.128797e-03
5.500000e+08	4.346217e+13	0.000000e+00	6.315791e-01	6.049857e+14	5.669387e+14	1.589889e+14	1.223588e+04	5.906769e+03	4.086881e+03	0	1.122823e-03
5.600000e+08	4.277771e+13	0.000000e+00	6.315791e-01	5.969017e+14	5.717108e+14	1.582024e+14	1.220117e+04	5.915268e+03	4.092761e+03	0	1.116898e-03
5.700000e+08	4.210597e+13	0.000000e+00	6.315791e-01	5.889663e+14	5.761778e+14	1.574214e+14	1.216693e+04	5.923177e+03	4.098233e+03	0	1.111021e-03
5.800000e+08	4.144673e+13	0.000000e+00	6.315791e-01	5.811770e+14	5.803458e+14	1.566460e+14	1.213313e+04	5.930515e+03	4.103311e+03	0	1.105192e-03
5.900000e+08	4.079982e+13	0.000000e+00	6.315791e-01	5.735315e+14	5.842208e+14	1.558761e+14	1.209978e+04	5.937303e+03	4.108007e+03	0	1.099412e-03
6.000000e+08	4.016501e+13	0.000000e+00	6.315791e-01	5.660274e+14	5.878092e+14	1.551116e+14	1.206687e+04	5.943560e+03	4.112336e+03	0	1.093680e-03
6.100000e+08	3.954211e+13	0.000000e+00	6.315791e-01	5.586623e+14	5.911179e+14	1.543526e+14	1.203439e+04	5.949304e+03	4.116310e+03	0	1.087997e-03
6.200000e+08	3.893090e+13	0.000000e+00	6.315791e-01	5.514338e+14	5.941541e+14	1.535989e+14	1.200233e+04	5.954554e+03	4.119943e+03	0	1.082362e-03
6.300000e+08	3.833119e+13	0.000000e+00	6.315791e-01	5.443394e+14	5.969248e+14	1.528505e+14	1.197068e+04	5.959328e+03	4.123246e+03	0	1.076775e-03
6.400000e+08	3.774275e+13	0.000000e+00	6.315791e-01	5.373767e+14	5.994375e+14	1.521074e+14	1.193943e+04	5.963643e+03	4.126232e+03	0	1.071237e-03
6.500000e+08	3.716538e+13	0.000000e+00	6.315791e-01	5.305433e+14	6.016997e+14	1.513695e+14	1.190859e+04	5.967517e+03	4.128912e+03	0	1.065746e-03
6.600000e+08	3.659888e+13	0.000000e+00	6.315791e-01	5.238367e+14	6.037190e+14	1.506368e+14	1.187813e+04	5.970966e+03	4.131298e+03	0	1.060304e-03
6.700000e+08	3.604303e+13	0.000000e+00	6.315791e-01	5.172545e+14	6.055035e+14	1.499093e+14	1.184806e+04	5.974007e+03	4.133402e+03	0	1.054908e-03
6.800000e+08	3.549763e+13	0.000000e+00	6.315791e-01	5.107943e+14	6.070604e+14	1.491869e+14	1.181836e+04	5.976654e+03	4.135234e+03	0	1.049560e-03
6.900000e+08	3.496246e+13	0.000000e+00	6.315791e-01	5.044537e+14	6.083978e+14	1.484696e+14	1.178904e+04	5.978924e+03	4.136805e+03	0	1.044259e-03
7.000000e+08	3.443734e+13	0.000000e+00	6.315791e-01	4.982302e+14	6.095232e+14	1.477573e+14	1.176007e+04	5.980832e+03	4.138125e+03	0	1.039005e-03
7.100000e+08	3.392204e+13	0.000000e+00	6.315791e-01	4.921216e+14	6.104445e+14	1.470499e+14	1.173146e+04	5.982392e+03	4.139204e+03	0	1.033796e-03
7.200000e+08	3.341638e+13	0.000000e+00	6.315791e-01	4.861255e+14	6.111691e+14	1.463475e+14	1.170321e+04	5.983617e+03	4.140052e+03	0	1.028634e-03
7.300000e+08	3.292016e+13	0.000000e+00	6.315791e-01	4.802396e+14	6.117046e+14	1.456501e+14	1.167529e+04	5.984522e+03	4.140678e+03	0	1.023517e-03
7.400000e+08	3.243317e+13	0.000000e+00	6.315791e-01	4.744616e+14	6.120584e+14	1.449575e+14	1.164771e+04	5.985120e+03	4.141091e+03	0	1.018445e-03
7.500000e+08	3.195523e+13	0.000000e+00	6.315791e-01	4.687893e+14	6.122379e+14	1.442697e+14	1.162046e+04	5.985423e+03	4.141301e+03	0	1.013417e-03
7.600000e+08	3.148614e+13	0.000000e+00	6.315791e-01	4.632204e+14	6.122501e+14	1.435867e+14	1.159354e+04	5.985443e+03	4.141315e+03	0	1.008434e-03
7.700000e+08	3.102573e+13	0.000000e+00	6.315791e-01	4.577528e+14	6.121021e+14	1.429085e+14	1.156693e+04	5.985194e+03	4.141142e+03	0	1.003494e-03
7.800000e+08	3.057380e+13	0.000000e+00	6.315791e-01	4.523843e+14	6.118009e+14	1.422349e+14	1.154064e+04	5.984685e+03	4.140790e+03	0	9.985981e-04
7.900000e+08	3.013016e+13	0.000000e+00	6.315791e-01	4.471129e+14	6.113530e+14	1.415661e+14	1.151465e+04	5.983928e+03	4.140267e+03	0	9.937446e-04
8.000000e+08	2.969466e+13	0.000000e+00	6.315791e-01	4.419363e+14	6.107653e+14	1.409019e+14	1.148897e+04	5.982935e+03	4.139579e+03	0	9.889334e-04
8.100000e+08	2.926710e+13	0.000000e+00	6.315791e-01	4.368527e+14	6.100440e+14	1.402423e+14	1.146358e+04	5.981714e+03	4.138735e+03	0	9.841641e-04
8.200000e+08	2.884732e+13	0.000000e+00	6.315791e-01	4.318600e+14	6.091954e+14	1.395873e+14	1.143848e+04	5.980277e+03	4.137740e+03	0	9.794361e-04
8.300000e+08	2.843515e+13	0.000000e+00	6.315791e-01	4.269562e+14	6.082254e+14	1.389368e+14	1.141367e+04	5.978632e+03	4.136602e+03	0	9.747489e-04
8.400000e+08	2.803042e+13	0.000000e+00	6.315791e-01	4.221395e+14	6.071400e+14	1.382907e+14	1.138914e+04	5.976790e+03	4.135328e+03	0	9.701021e-04
8.500000e+08	2.763297e+13	0.000000e+00	6.315791e-01	4.174078e+14	6.059451e+14	1.376492e+14	1.136488e+04	5.974758e+03	4.133922e+03	0	9.654952e-04
8.600000e+08	2.724264e+13	0.000000e+00	6.315791e-01	4.127595e+14	6.046460e+14	1.370121e+14	1.134090e+04	5.972546e+03	4.132392e+03	0	9.609276e-04
8.700000e+08	2.685928e+13	0.000000e+00	6.315791e-01	4.081926e+14	6.032480e+14	1.363793e+14	1.131718e+04	5.970162e+03	4.130742e+03	0	9.563989e-04
8.800000e+08	2.648273e+13	0.000000e+00	6.315791e-01	4.037055e+14	6.017563e+14	1.357509e+14	1.129372e+04	5.967614e+03	4.128979e+03	0	9.519085e-04
8.900000e+08	2.611285e+13	0.000000e+00	6.315791e-01	3.992963e+14	6.001760e+14	1.351268e+14	1.127052e+04	5.964909e+03	4.127108e+03	0	9.474559e-04
9.000000e+08	2.574948e+13	0.000000e+00	6.315791e-01	3.949635e+14	5.985120e+14	1.345070e+14	1.124758e+04	5.962055e+03	4.125133e+03	0	9.430407e-04
9.100000e+08	2.539250e+13	0.000000e+00	6.315791e-01	3.907052e+14	5.967686e+14	1.338915e+14	1.122488e+04	5.959059e+03	4.123060e+03	0	9.386624e-04
9.200000e+08	2.504175e+13	0.000000e+00	6.315791e-01	3.865199e+14	5.949506e+14	1.332802e+14	1.120242e+04	5.955928e+03	4.120894e+03	0	9.343204e-04
9.300000e+08	2.469710e+13	0.000000e+00	6.315791e-01	3.824061e+14	5.930623e+14	1.326730e+14	1.118020e+04	5.952668e+03	4.118638e+03	0	9.300142e-04
9.400000e+08	2.435842e+13	0.000000e+00	6.315791e-01	3.783622e+14	5.911077e+14	1.320700e+14	1.115822e+04	5.949286e+03	4.116298e+03	0	9.257435e-04
9.500000e+08	2.402558e+13	0.000000e+00	6.315791e-01	3.743866e+14	5.890907e+14	1.314711e+14	1.113647e+04	5.945787e+03	4.113877e+03	0	9.215075e-04
9.600000e+08	2.369845e+13	0.000000e+00	6.315791e-01	3.704779e+14	5.870156e+14	1.308763e+14	1.111495e+04	5.942178e+03	4.111380e+03	0	9.173060e-04
9.700000e+08	2.337690e+13	0.000000e+00	6.315791e-01	3.666346e+14	5.848856e+14	1.302856e+14	1.109366e+04	5.938464e+03	4.108810e+03	0	9.131384e-04
9.800000e+08	2.306083e+13	0.000000e+00	6.315791e-01	3.628554e+14	5.827043e+14	1.296988e+14	1.107258e+04	5.934651e+03	4.106172e+03	0	9.090042e-04
9.900000e+08	2.275010e+13	0.000000e+00	6.315791e-01	3.591388e+14	5.804752e+14	1.291161e+14	1.105172e+04	5.930743e+03	4.103468e+03	0	9.049030e-04
1.000000e+09	2.244460e+13	0.000000e+00	6.315791e-01	3.554836e+14	5.782017e+14	1.285373e+14	1.103107e+04	5.926745e+03	4.100702e+03	0	9.008343e-04
1.010000e+09	2.214422e+13	0.000000e+00	6.315791e-01	3.518883e+14	5.758867e+14	1.279625e+14	1.101063e+04	5.922663e+03	4.097877e+03	0	8.967975e-04
1.020000e+09	2.184885e+13	0.000000e+00	6.315791e-01	3.483518e+14	5.735330e+14	1.273915e+14	1.099040e+04	5.918500e+03	4.094997e+03	0	8.927924e-04
1.030000e+09	2.155838e+13	0.000000e+00	6.315791e-01	3.448728e+14	5.711440e+14	1.268244e+14	1.097037e+04	5.914262e+03	4.092065e+03	0	8.888183e-04
1.040000e+09	2.127271e+13	0.000000e+00	6.315791e-01	3.414500e+14	5.687220e+14	1.262611e+14	1.095054e+04	5.909951e+03	4.089082e+03	0	8.848749e-04
1.050000e+09	2.099173e+13	0.000000e+00	6.315791e-01	3.380822e+14	5.662698e+14	1.257017e+14	1.093091e+04	5.905574e+03	4.086053e+03	0	8.809618e-04
1.060000e+09	2.071535e+13	0.000000e+00	6.315791e-01	3.347684e+14	5.637894e+14	1.251460e+14	1.091147e+04	5.901132e+03	4.082980e+03	0	8.770783e-04
1.070000e+09	2.044347e+13	0.000000e+00	6.315791e-01	3.315073e+14	5.612840e+14	1.245940e+14	1.089222e+04	5.896630e+03	4.079865e+03	0	8.732243e-04
1.080000e+09	2.017599e+13	0.000000e+00	6.315791e-01	3.282979e+14	5.587552e+14	1.240458e+14	1.087315e+04	5.892072e+03	4.076711e+03	0	8.693991e-04
1.090000e+09	1.991281e+13	0.000000e+00	6.315791e-01	3.251391e+14	5.562057e+14	1.235012e+14	1.085427e+04	5.887460e+03	4.073521e+03	0	8.656025e-04
1.100000e+09	1.965386e+13	0.000000e+00	6.315791e-01	3.220298e+14	5.536371e+14	1.229603e+14	1.083557e+04	5.882798e+03	4.070295e+03	0	8.618339e-04
1.110000e+09	1.939903e+13	0.000000e+00	6.315791e-01	3.189690e+14	5.510515e+14	1.224231e+14	1.081705e+04	5.878090e+03	4.067037e+03	0	8.580929e-04
1.120000e+09	1.914826e+13	0.000000e+00	6.315791e-01	3.159557e+14	5.484507e+14	1.218894e+14	1.079871e+04	5.873337e+03	4.063749e+03	0	8.543792e-04
1.130000e+09	1.890144e+13	0.000000e+00	6.315791e-01	3.129889e+14	5.458369e+14	1.213593e+14	1.078053e+04	5.868544e+03	4.060433e+03	0	8.506924e-04
1.140000e+09	1.865850e+13	0.000000e+00	6.315791e-01	3.100677e+14	5.432114e+14	1.208328e+14	1.076253e+04	5.863712e+03	4.057090e+03	0	8.470320e-04
1.150000e+09	1.841935e+13	0.000000e+00	6.315791e-01	3.071911e+14	5.405758e+14	1.203097e+14	1.074470e+04	5.858845e+03	4.053722e+03	0	8.433977e-04
1.160000e+09	1.818393e+13	0.000000e+00	6.315791e-01	3.043582e+14	5.379319e+14	1.197902e+14	1.072702e+04	5.853944e+03	4.050331e+03	0	8.397891e-04
1.170000e+09	1.795215e+13	0.000000e+00	6.315791e-01	3.015682e+14	5.352811e+14	1.192741e+14	1.070952e+04	5.849013e+03	4.046919e+03	0	8.362057e-04
1.180000e+09	1.772395e+13	0.000000e+00	6.315791e-01	2.988201e+14	5.326246e+14	1.187614e+14	1.069217e+04	5.844053e+03	4.043487e+03	0	8.326473e-04
1.190000e+09	1.749923e+13	0.000000e+00	6.315791e-01	2.961132e+14	5.299637e+14	1.182522e+14	1.067498e+04	5.839067e+03	4.040037e+03	0	8.291134e-04
1.200000e+09	1.727795e+13	0.000000e+00	6.315791e-01	2.934465e+14	5.273000e+14	1.177463e+14	1.065794e+04	5.834056e+03	4.036571e+03	0	8.256038e-04
1.210000e+09	1.706002e+13	0.000000e+00	6.315791e-01	2.908193e+14	5.246344e+14	1.172438e+14	1.064106e+04	5.829024e+03	4.033089e+03	0	8.221180e-04
1.220000e+09	1.684538e+13	0.000000e+00	6.315791e-01	2.882309e+14	5.219680e+14	1.167446e+14	1.062433e+04	5.823971e+03	4.029593e+03	0	8.186556e-04
1.230000e+09	1.663397e+13	0.000000e+00	6.315791e-01	2.856804e+14	5.193021e+14	1.162488e+14	1.060775e+04	5.818900e+03	4.026084e+03	0	8.152164e-04
1.240000e+09	1.642571e+13	0.000000e+00	6.315791e-01	2.831671e+14	5.166374e+14	1.157562e+14	1.059131e+04	5.813813e+03	4.022564e+03	0	8.118000e-04
1.250000e+09	1.622056e+13	0.000000e+00	6.315791e-01	2.806902e+14	5.139751e+14	1.152668e+14	1.057502e+04	5.808710e+03	4.019034e+03	0	8.084060e-04
1.260000e+09	1.601844e+13	0.000000e+00	6.315791e-01	2.782491e+14	5.113163e+14	1.147807e+14	1.055887e+04	5.803595e+03	4.015494e+03	0	8.050342e-04
1.270000e+09	1.581929e+13	0.000000e+00	6.315791e-01	2.758430e+14	5.086612e+14	1.142978e+14	1.054286e+04	5.798467e+03	4.011947e+03	0	8.016841e-04
1.280000e+09	1.562306e+13	0.000000e+00	6.315791e-01	2.734714e+14	5.060111e+14	1.138180e+14	1.052699e+04	5.793329e+03	4.008392e+03	0	7.983555e-04
1.290000e+09	1.542970e+13	0.000000e+00	6.315791e-01	2.711334e+14	5.033667e+14	1.133414e+14	1.051125e+04	5.788182e+03	4.004831e+03	0	7.950481e-04
1.300000e+09	1.523913e+13	0.000000e+00	6.315791e-01	2.688284e+14	5.007287e+14	1.128680e+14	1.049565e+04	5.783028e+03	4.001265e+03	0	7.917615e-04
1.310000e+09	1.505132e+13	0.000000e+00	6.315791e-01	2.665559e+14	4.980977e+14	1.123976e+14	1.048018e+04	5.777868e+03	3.997694e+03	0	7.884954e-04
1.320000e+09	1.486621e+13	0.000000e+00	6.315791e-01	2.643152e+14	4.954744e+14	1.119303e+14	1.046484e+04	5.772702e+03	3.994120e+03	0	7.852496e-04
1.330000e+09	1.468374e+13	0.000000e+00	6.315791e-01	2.621057e+14	4.928594e+14	1.114661e+14	1.044963e+04	5.767533e+03	3.990543e+03	0	7.820236e-04
1.340000e+09	1.450387e+13	0.000000e+00	6.315791e-01	2.599269e+14	4.902531e+14	1.110049e+14	1.043454e+04	5.762361e+03	3.986965e+03	0	7.788173e-04
1.350000e+09	1.432655e+13	0.000000e+00	6.315791e-01	2.577780e+14	4.876563e+14	1.105468e+14	1.041958e+04	5.757187e+03	3.983385e+03	0	7.756304e-04
1.360000e+09	1.415172e+13	0.000000e+00	6.315791e-01	2.556586e+14	4.850692e+14	1.100916e+14	1.040475e+04	5.752013e+03	3.979805e+03	0	7.724625e-04
