#t		Qconv[W]	Ri[Rp]		R*[Rp]		Qc[W]		Qm[W]		Qr[W]		Tcmb[K]		Tl[K]		Tup[K]		RiFlag		Bs[T]
0.000000e+00	3.122141e+15	0.000000e+00	6.315789e-01	3.111078e+16	3.738490e+13	2.665327e+14	3.498639e+04	5.241222e+03	2.883224e+03	0	4.626959e-03
1.000000e+07	2.856180e+15	0.000000e+00	6.315789e-01	2.848645e+16	1.648616e+14	2.650559e+14	3.372093e+04	6.452392e+03	3.549495e+03	0	4.491657e-03
2.000000e+07	2.603568e+15	0.000000e+00	6.315789e-01	2.599443e+16	4.512829e+14	2.635902e+14	3.255809e+04	7.554129e+03	4.155566e+03	0	4.355129e-03
3.000000e+07	2.366808e+15	0.000000e+00	6.315789e-01	2.365917e+16	9.334284e+14	2.621354e+14	3.149347e+04	8.544581e+03	4.700419e+03	0	4.218899e-03
4.000000e+07	2.147664e+15	0.000000e+00	6.315789e-01	2.149787e+16	1.607577e+15	2.606914e+14	3.052156e+04	9.422188e+03	5.183195e+03	0	4.084450e-03
5.000000e+07	1.947250e+15	0.000000e+00	6.315789e-01	1.952134e+16	2.434145e+15	2.592583e+14	2.963597e+04	1.018692e+04	5.603876e+03	0	3.953229e-03
6.000000e+07	1.766018e+15	0.000000e+00	6.315789e-01	1.773390e+16	3.351221e+15	2.578358e+14	2.882976e+04	1.084115e+04	5.963776e+03	0	3.826571e-03
7.000000e+07	1.603765e+15	0.000000e+00	6.315789e-01	1.613347e+16	4.290431e+15	2.564239e+14	2.809566e+04	1.139003e+04	6.265716e+03	0	3.705598e-03
8.000000e+07	1.459694e+15	0.000000e+00	6.315789e-01	1.471212e+16	5.190174e+15	2.550225e+14	2.742638e+04	1.184114e+04	6.513873e+03	0	3.591138e-03
9.000000e+07	1.332548e+15	0.000000e+00	6.315789e-01	1.345742e+16	6.003715e+15	2.536316e+14	2.681489e+04	1.220388e+04	6.713421e+03	0	3.483686e-03
1.000000e+08	1.220769e+15	0.000000e+00	6.315789e-01	1.235403e+16	6.701844e+15	2.522509e+14	2.625455e+04	1.248867e+04	6.870081e+03	0	3.383420e-03
1.100000e+08	1.122666e+15	0.000000e+00	6.315789e-01	1.138529e+16	7.271563e+15	2.508806e+14	2.573932e+04	1.270610e+04	6.989692e+03	0	3.290246e-03
1.200000e+08	1.036547e+15	0.000000e+00	6.315789e-01	1.053453e+16	7.712575e+15	2.495203e+14	2.526378e+04	1.286640e+04	7.077876e+03	0	3.203867e-03
1.300000e+08	9.608100e+14	0.000000e+00	6.315789e-01	9.785995e+15	8.033183e+15	2.481702e+14	2.482317e+04	1.297899e+04	7.139809e+03	0	3.123853e-03
1.400000e+08	8.939996e+14	0.000000e+00	6.315789e-01	9.125367e+15	8.246645e+15	2.468300e+14	2.441336e+04	1.305222e+04	7.180097e+03	0	3.049701e-03
1.500000e+08	8.348322e+14	0.000000e+00	6.315789e-01	8.540018e+15	8.368283e+15	2.454997e+14	2.403077e+04	1.309337e+04	7.202734e+03	0	2.980880e-03
1.600000e+08	7.821978e+14	0.000000e+00	6.315789e-01	8.019028e+15	8.413628e+15	2.441793e+14	2.367233e+04	1.310861e+04	7.211113e+03	0	2.916869e-03
1.700000e+08	7.351505e+14	0.000000e+00	6.315789e-01	7.553091e+15	8.397161e+15	2.428686e+14	2.333542e+04	1.310308e+04	7.208074e+03	0	2.857175e-03
1.800000e+08	6.928913e+14	0.000000e+00	6.315789e-01	7.134347e+15	8.331793e+15	2.415676e+14	2.301779e+04	1.308107e+04	7.195967e+03	0	2.801344e-03
1.900000e+08	6.547491e+14	0.000000e+00	6.315789e-01	6.756193e+15	8.228592e+15	2.402761e+14	2.271750e+04	1.304608e+04	7.176719e+03	0	2.748968e-03
2.000000e+08	6.201615e+14	0.000000e+00	6.315789e-01	6.413096e+15	8.096832e+15	2.389942e+14	2.243290e+04	1.300096e+04	7.151898e+03	0	2.699685e-03
2.100000e+08	5.886577e+14	0.000000e+00	6.315789e-01	6.100420e+15	7.944122e+15	2.377217e+14	2.216254e+04	1.294803e+04	7.122778e+03	0	2.653174e-03
2.200000e+08	5.598425e+14	0.000000e+00	6.315789e-01	5.814278e+15	7.776600e+15	2.364585e+14	2.190518e+04	1.288914e+04	7.090385e+03	0	2.609156e-03
2.300000e+08	5.333837e+14	0.000000e+00	6.315789e-01	5.551397e+15	7.599196e+15	2.352046e+14	2.165972e+04	1.282581e+04	7.055547e+03	0	2.567387e-03
2.400000e+08	5.090008e+14	0.000000e+00	6.315789e-01	5.309015e+15	7.415772e+15	2.339599e+14	2.142520e+04	1.275924e+04	7.018927e+03	0	2.527654e-03
2.500000e+08	4.864559e+14	0.000000e+00	6.315789e-01	5.084791e+15	7.229346e+15	2.327243e+14	2.120078e+04	1.269040e+04	6.981057e+03	0	2.489770e-03
2.600000e+08	4.655466e+14	0.000000e+00	6.315789e-01	4.876729e+15	7.042257e+15	2.314978e+14	2.098572e+04	1.262006e+04	6.942363e+03	0	2.453574e-03
2.700000e+08	4.460993e+14	0.000000e+00	6.315789e-01	4.683119e+15	6.856283e+15	2.302802e+14	2.077933e+04	1.254884e+04	6.903183e+03	0	2.418923e-03
2.800000e+08	4.279650e+14	0.000000e+00	6.315789e-01	4.502493e+15	6.672761e+15	2.290715e+14	2.058104e+04	1.247723e+04	6.863788e+03	0	2.385691e-03
2.900000e+08	4.110145e+14	0.000000e+00	6.315789e-01	4.333576e+15	6.492684e+15	2.278717e+14	2.039029e+04	1.240561e+04	6.824391e+03	0	2.353769e-03
3.000000e+08	3.951356e+14	0.000000e+00	6.315789e-01	4.175263e+15	6.316764e+15	2.266805e+14	2.020661e+04	1.233430e+04	6.785161e+03	0	2.323059e-03
3.100000e+08	3.802303e+14	0.000000e+00	6.315789e-01	4.026588e+15	6.145498e+15	2.254981e+14	2.002956e+04	1.226352e+04	6.746229e+03	0	2.293473e-03
3.200000e+08	3.662126e+14	0.000000e+00	6.315789e-01	3.886700e+15	5.979220e+15	2.243243e+14	1.985874e+04	1.219348e+04	6.707699e+03	0	2.264936e-03
3.300000e+08	3.530066e+14	0.000000e+00	6.315789e-01	3.754852e+15	5.818123e+15	2.231590e+14	1.969378e+04	1.212431e+04	6.669649e+03	0	2.237376e-03
3.400000e+08	3.405451e+14	0.000000e+00	6.315789e-01	3.630380e+15	5.662312e+15	2.220021e+14	1.953435e+04	1.205613e+04	6.632139e+03	0	2.210733e-03
3.500000e+08	3.287683e+14	0.000000e+00	6.315789e-01	3.512694e+15	5.511806e+15	2.208537e+14	1.938014e+04	1.198900e+04	6.595215e+03	0	2.184949e-03
3.600000e+08	3.176227e+14	0.000000e+00	6.315789e-01	3.401266e+15	5.366564e+15	2.197135e+14	1.923087e+04	1.192300e+04	6.558907e+03	0	2.159974e-03
3.700000e+08	3.070606e+14	0.000000e+00	6.315789e-01	3.295624e+15	5.226516e+15	2.185817e+14	1.908629e+04	1.185816e+04	6.523238e+03	0	2.135762e-03
3.800000e+08	2.970389e+14	0.000000e+00	6.315789e-01	3.195342e+15	5.091545e+15	2.174580e+14	1.894614e+04	1.179451e+04	6.488223e+03	0	2.112269e-03
3.900000e+08	2.875189e+14	0.000000e+00	6.315789e-01	3.100038e+15	4.961516e+15	2.163425e+14	1.881022e+04	1.173206e+04	6.453869e+03	0	2.089458e-03
4.000000e+08	2.784652e+14	0.000000e+00	6.315789e-01	3.009363e+15	4.836281e+15	2.152350e+14	1.867830e+04	1.167082e+04	6.420178e+03	0	2.067292e-03
4.100000e+08	2.698462e+14	0.000000e+00	6.315789e-01	2.923002e+15	4.715682e+15	2.141355e+14	1.855021e+04	1.161078e+04	6.387149e+03	0	2.045739e-03
4.200000e+08	2.616326e+14	0.000000e+00	6.315789e-01	2.840669e+15	4.599545e+15	2.130439e+14	1.842574e+04	1.155193e+04	6.354778e+03	0	2.024769e-03
4.300000e+08	2.537980e+14	0.000000e+00	6.315789e-01	2.762100e+15	4.487708e+15	2.119601e+14	1.830475e+04	1.149427e+04	6.323056e+03	0	2.004353e-03
4.400000e+08	2.463183e+14	0.000000e+00	6.315789e-01	2.687057e+15	4.379999e+15	2.108842e+14	1.818708e+04	1.143777e+04	6.291975e+03	0	1.984466e-03
4.500000e+08	2.391711e+14	0.000000e+00	6.315789e-01	2.615320e+15	4.276250e+15	2.098160e+14	1.807256e+04	1.138241e+04	6.261524e+03	0	1.965083e-03
4.600000e+08	2.323361e+14	0.000000e+00	6.315789e-01	2.546686e+15	4.176297e+15	2.087555e+14	1.796108e+04	1.132818e+04	6.231690e+03	0	1.946183e-03
4.700000e+08	2.257944e+14	0.000000e+00	6.315789e-01	2.480969e+15	4.079981e+15	2.077026e+14	1.785249e+04	1.127504e+04	6.202461e+03	0	1.927743e-03
4.800000e+08	2.195289e+14	0.000000e+00	6.315789e-01	2.417999e+15	3.987144e+15	2.066572e+14	1.774667e+04	1.122299e+04	6.173824e+03	0	1.909745e-03
4.900000e+08	2.135234e+14	0.000000e+00	6.315789e-01	2.357616e+15	3.897635e+15	2.056193e+14	1.764352e+04	1.117198e+04	6.145765e+03	0	1.892169e-03
5.000000e+08	2.077631e+14	0.000000e+00	6.315789e-01	2.299674e+15	3.811311e+15	2.045889e+14	1.754292e+04	1.112200e+04	6.118269e+03	0	1.874998e-03
5.100000e+08	2.022344e+14	0.000000e+00	6.315789e-01	2.244037e+15	3.728030e+15	2.035657e+14	1.744476e+04	1.107301e+04	6.091322e+03	0	1.858217e-03
5.200000e+08	1.969245e+14	0.000000e+00	6.315789e-01	2.190579e+15	3.647663e+15	2.025499e+14	1.734897e+04	1.102500e+04	6.064912e+03	0	1.841810e-03
5.300000e+08	1.918216e+14	0.000000e+00	6.315789e-01	2.139182e+15	3.570079e+15	2.015414e+14	1.725543e+04	1.097794e+04	6.039022e+03	0	1.825761e-03
5.400000e+08	1.869146e+14	0.000000e+00	6.315789e-01	2.089738e+15	3.495154e+15	2.005400e+14	1.716407e+04	1.093180e+04	6.013640e+03	0	1.810058e-03
5.500000e+08	1.821933e+14	0.000000e+00	6.315789e-01	2.042144e+15	3.422777e+15	1.995458e+14	1.707480e+04	1.088655e+04	5.988751e+03	0	1.794688e-03
5.600000e+08	1.776481e+14	0.000000e+00	6.315789e-01	1.996305e+15	3.352833e+15	1.985586e+14	1.698754e+04	1.084218e+04	5.964343e+03	0	1.779638e-03
5.700000e+08	1.732701e+14	0.000000e+00	6.315789e-01	1.952133e+15	3.285218e+15	1.975784e+14	1.690223e+04	1.079866e+04	5.940402e+03	0	1.764897e-03
5.800000e+08	1.690508e+14	0.000000e+00	6.315789e-01	1.909545e+15	3.219832e+15	1.966052e+14	1.681879e+04	1.075597e+04	5.916915e+03	0	1.750453e-03
5.900000e+08	1.649824e+14	0.000000e+00	6.315789e-01	1.868462e+15	3.156579e+15	1.956389e+14	1.673716e+04	1.071408e+04	5.893870e+03	0	1.736297e-03
6.000000e+08	1.610577e+14	0.000000e+00	6.315789e-01	1.828812e+15	3.095367e+15	1.946794e+14	1.665727e+04	1.067297e+04	5.871254e+03	0	1.722418e-03
6.100000e+08	1.572696e+14	0.000000e+00	6.315789e-01	1.790526e+15	3.036111e+15	1.937267e+14	1.657905e+04	1.063261e+04	5.849057e+03	0	1.708807e-03
6.200000e+08	1.536117e+14	0.000000e+00	6.315789e-01	1.753540e+15	2.978726e+15	1.927807e+14	1.650247e+04	1.059300e+04	5.827265e+03	0	1.695455e-03
6.300000e+08	1.500780e+14	0.000000e+00	6.315789e-01	1.717794e+15	2.923136e+15	1.918414e+14	1.642745e+04	1.055410e+04	5.805868e+03	0	1.682353e-03
6.400000e+08	1.466627e+14	0.000000e+00	6.315789e-01	1.683231e+15	2.869266e+15	1.909088e+14	1.635395e+04	1.051591e+04	5.784855e+03	0	1.669493e-03
6.500000e+08	1.433604e+14	0.000000e+00	6.315789e-01	1.649797e+15	2.817046e+15	1.899827e+14	1.628192e+04	1.047839e+04	5.764216e+03	0	1.656868e-03
6.600000e+08	1.401660e+14	0.000000e+00	6.315789e-01	1.617441e+15	2.766407e+15	1.890631e+14	1.621131e+04	1.044153e+04	5.743940e+03	0	1.644469e-03
6.700000e+08	1.370748e+14	0.000000e+00	6.315789e-01	1.586117e+15	2.717286e+15	1.881500e+14	1.614207e+04	1.040531e+04	5.724017e+03	0	1.632290e-03
6.800000e+08	1.340822e+14	0.000000e+00	6.315789e-01	1.555779e+15	2.669620e+15	1.872433e+14	1.607416e+04	1.036972e+04	5.704438e+03	0	1.620324e-03
6.900000e+08	1.311840e+14	0.000000e+00	6.315789e-01	1.526384e+15	2.623353e+15	1.863430e+14	1.600754e+04	1.033474e+04	5.685194e+03	0	1.608564e-03
7.000000e+08	1.283760e+14	0.000000e+00	6.315789e-01	1.497893e+15	2.578429e+15	1.854490e+14	1.594217e+04	1.030035e+04	5.666276e+03	0	1.597004e-03
7.100000e+08	1.256546e+14	0.000000e+00	6.315789e-01	1.470268e+15	2.534797e+15	1.845612e+14	1.587802e+04	1.026653e+04	5.647675e+03	0	1.585639e-03
7.200000e+08	1.230160e+14	0.000000e+00	6.315789e-01	1.443472e+15	2.492405e+15	1.836797e+14	1.581503e+04	1.023328e+04	5.629382e+03	0	1.574461e-03
7.300000e+08	1.204569e+14	0.000000e+00	6.315789e-01	1.417472e+15	2.451206e+15	1.828043e+14	1.575319e+04	1.020057e+04	5.611390e+03	0	1.563467e-03
7.400000e+08	1.179740e+14	0.000000e+00	6.315789e-01	1.392234e+15	2.411153e+15	1.819350e+14	1.569246e+04	1.016840e+04	5.593690e+03	0	1.552650e-03
7.500000e+08	1.155643e+14	0.000000e+00	6.315789e-01	1.367729e+15	2.372204e+15	1.810718e+14	1.563279e+04	1.013674e+04	5.576276e+03	0	1.542006e-03
7.600000e+08	1.132247e+14	0.000000e+00	6.315789e-01	1.343928e+15	2.334318e+15	1.802145e+14	1.557417e+04	1.010559e+04	5.559139e+03	0	1.531529e-03
7.700000e+08	1.109525e+14	0.000000e+00	6.315789e-01	1.320802e+15	2.297456e+15	1.793633e+14	1.551657e+04	1.007493e+04	5.542273e+03	0	1.521215e-03
7.800000e+08	1.087452e+14	0.000000e+00	6.315789e-01	1.298326e+15	2.261578e+15	1.785180e+14	1.545995e+04	1.004475e+04	5.525671e+03	0	1.511059e-03
7.900000e+08	1.066001e+14	0.000000e+00	6.315789e-01	1.276475e+15	2.226650e+15	1.776785e+14	1.540428e+04	1.001504e+04	5.509327e+03	0	1.501057e-03
8.000000e+08	1.045149e+14	0.000000e+00	6.315789e-01	1.255224e+15	2.192637e+15	1.768449e+14	1.534955e+04	9.985784e+03	5.493233e+03	0	1.491206e-03
8.100000e+08	1.024874e+14	0.000000e+00	6.315789e-01	1.234551e+15	2.159505e+15	1.760170e+14	1.529572e+04	9.956973e+03	5.477383e+03	0	1.481500e-03
8.200000e+08	1.005153e+14	0.000000e+00	6.315789e-01	1.214435e+15	2.127225e+15	1.751949e+14	1.524277e+04	9.928595e+03	5.461772e+03	0	1.471936e-03
8.300000e+08	9.859662e+13	0.000000e+00	6.315789e-01	1.194855e+15	2.095766e+15	1.743784e+14	1.519068e+04	9.900640e+03	5.446394e+03	0	1.462510e-03
8.400000e+08	9.672939e+13	0.000000e+00	6.315789e-01	1.175792e+15	2.065099e+15	1.735676e+14	1.513942e+04	9.873098e+03	5.431243e+03	0	1.453219e-03
8.500000e+08	9.491174e+13	0.000000e+00	6.315789e-01	1.157226e+15	2.035197e+15	1.727624e+14	1.508898e+04	9.845959e+03	5.416314e+03	0	1.444058e-03
8.600000e+08	9.314187e+13	0.000000e+00	6.315789e-01	1.139141e+15	2.006034e+15	1.719628e+14	1.503933e+04	9.819213e+03	5.401601e+03	0	1.435026e-03
8.700000e+08	9.141809e+13	0.000000e+00	6.315789e-01	1.121518e+15	1.977584e+15	1.711686e+14	1.499045e+04	9.792851e+03	5.387099e+03	0	1.426118e-03
8.800000e+08	8.973876e+13	0.000000e+00	6.315789e-01	1.104342e+15	1.949824e+15	1.703799e+14	1.494232e+04	9.766864e+03	5.372803e+03	0	1.417332e-03
8.900000e+08	8.810233e+13	0.000000e+00	6.315789e-01	1.087598e+15	1.922729e+15	1.695966e+14	1.489492e+04	9.741244e+03	5.358709e+03	0	1.408663e-03
9.000000e+08	8.650730e+13	0.000000e+00	6.315789e-01	1.071270e+15	1.896280e+15	1.688187e+14	1.484824e+04	9.715981e+03	5.344812e+03	0	1.400111e-03
9.100000e+08	8.495227e+13	0.000000e+00	6.315789e-01	1.055344e+15	1.870453e+15	1.680462e+14	1.480226e+04	9.691068e+03	5.331107e+03	0	1.391670e-03
9.200000e+08	8.343586e+13	0.000000e+00	6.315789e-01	1.039807e+15	1.845230e+15	1.672789e+14	1.475695e+04	9.666496e+03	5.317590e+03	0	1.383340e-03
9.300000e+08	8.195677e+13	0.000000e+00	6.315789e-01	1.024645e+15	1.820590e+15	1.665168e+14	1.471231e+04	9.642259e+03	5.304257e+03	0	1.375117e-03
9.400000e+08	8.051376e+13	0.000000e+00	6.315789e-01	1.009846e+15	1.796515e+15	1.657600e+14	1.466832e+04	9.618348e+03	5.291104e+03	0	1.366999e-03
9.500000e+08	7.910563e+13	0.000000e+00	6.315789e-01	9.953992e+14	1.772986e+15	1.650084e+14	1.462495e+04	9.594756e+03	5.278126e+03	0	1.358983e-03
9.600000e+08	7.773124e+13	0.000000e+00	6.315789e-01	9.812917e+14	1.749987e+15	1.642618e+14	1.458221e+04	9.571476e+03	5.265319e+03	0	1.351066e-03
9.700000e+08	7.638949e+13	0.000000e+00	6.315789e-01	9.675130e+14	1.727501e+15	1.635204e+14	1.454006e+04	9.548502e+03	5.252681e+03	0	1.343247e-03
9.800000e+08	7.507932e+13	0.000000e+00	6.315789e-01	9.540525e+14	1.705513e+15	1.627840e+14	1.449851e+04	9.525826e+03	5.240207e+03	0	1.335524e-03
9.900000e+08	7.379973e+13	0.000000e+00	6.315789e-01	9.409003e+14	1.684007e+15	1.620526e+14	1.445753e+04	9.503443e+03	5.227894e+03	0	1.327893e-03
1.000000e+09	7.254975e+13	0.000000e+00	6.315789e-01	9.280465e+14	1.662968e+15	1.613262e+14	1.441711e+04	9.481345e+03	5.215738e+03	0	1.320353e-03
1.010000e+09	7.132844e+13	0.000000e+00	6.315789e-01	9.154820e+14	1.642382e+15	1.606047e+14	1.437724e+04	9.459528e+03	5.203736e+03	0	1.312902e-03
1.020000e+09	7.013492e+13	0.000000e+00	6.315789e-01	9.031977e+14	1.622235e+15	1.598881e+14	1.433791e+04	9.437985e+03	5.191885e+03	0	1.305538e-03
1.030000e+09	6.896833e+13	0.000000e+00	6.315789e-01	8.911850e+14	1.602516e+15	1.591763e+14	1.429910e+04	9.416710e+03	5.180182e+03	0	1.298259e-03
1.040000e+09	6.782783e+13	0.000000e+00	6.315789e-01	8.794358e+14	1.583210e+15	1.584693e+14	1.426081e+04	9.395698e+03	5.168623e+03	0	1.291063e-03
1.050000e+09	6.671264e+13	0.000000e+00	6.315789e-01	8.679420e+14	1.564306e+15	1.577672e+14	1.422301e+04	9.374943e+03	5.157206e+03	0	1.283948e-03
1.060000e+09	6.562199e+13	0.000000e+00	6.315789e-01	8.566960e+14	1.545793e+15	1.570697e+14	1.418571e+04	9.354441e+03	5.145927e+03	0	1.276913e-03
1.070000e+09	6.455515e+13	0.000000e+00	6.315789e-01	8.456905e+14	1.527658e+15	1.563770e+14	1.414889e+04	9.334185e+03	5.134784e+03	0	1.269955e-03
1.080000e+09	6.351142e+13	0.000000e+00	6.315789e-01	8.349184e+14	1.509893e+15	1.556889e+14	1.411254e+04	9.314172e+03	5.123775e+03	0	1.263074e-03
1.090000e+09	6.249011e+13	0.000000e+00	6.315789e-01	8.243730e+14	1.492484e+15	1.550054e+14	1.407666e+04	9.294396e+03	5.112896e+03	0	1.256267e-03
1.100000e+09	6.149056e+13	0.000000e+00	6.315789e-01	8.140475e+14	1.475422e+15	1.543265e+14	1.404122e+04	9.274852e+03	5.102145e+03	0	1.249533e-03
1.110000e+09	6.051216e+13	0.000000e+00	6.315789e-01	8.039358e+14	1.458700e+15	1.536522e+14	1.400622e+04	9.255536e+03	5.091519e+03	0	1.242870e-03
1.120000e+09	5.955428e+13	0.000000e+00	6.315789e-01	7.940317e+14	1.442306e+15	1.529824e+14	1.397166e+04	9.236444e+03	5.081016e+03	0	1.236277e-03
1.130000e+09	5.861636e+13	0.000000e+00	6.315789e-01	7.843294e+14	1.426231e+15	1.523171e+14	1.393752e+04	9.217570e+03	5.070634e+03	0	1.229752e-03
1.140000e+09	5.769781e+13	0.000000e+00	6.315789e-01	7.748232e+14	1.410468e+15	1.516562e+14	1.390380e+04	9.198912e+03	5.060370e+03	0	1.223295e-03
1.150000e+09	5.679810e+13	0.000000e+00	6.315789e-01	7.655076e+14	1.395007e+15	1.509998e+14	1.387048e+04	9.180465e+03	5.050222e+03	0	1.216903e-03
1.160000e+09	5.591670e+13	0.000000e+00	6.315789e-01	7.563774e+14	1.379841e+15	1.503477e+14	1.383756e+04	9.162224e+03	5.040188e+03	0	1.210576e-03
1.170000e+09	5.505310e+13	0.000000e+00	6.315789e-01	7.474275e+14	1.364960e+15	1.497000e+14	1.380503e+04	9.144186e+03	5.030265e+03	0	1.204311e-03
1.180000e+09	5.420682e+13	0.000000e+00	6.315789e-01	7.386530e+14	1.350360e+15	1.490565e+14	1.377289e+04	9.126348e+03	5.020452e+03	0	1.198108e-03
1.190000e+09	5.337738e+13	0.000000e+00	6.315789e-01	7.300492e+14	1.336030e+15	1.484174e+14	1.374112e+04	9.108705e+03	5.010746e+03	0	1.191966e-03
1.200000e+09	5.256434e+13	0.000000e+00	6.315789e-01	7.216114e+14	1.321965e+15	1.477825e+14	1.370972e+04	9.091253e+03	5.001146e+03	0	1.185883e-03
1.210000e+09	5.176724e+13	0.000000e+00	6.315789e-01	7.133353e+14	1.308158e+15	1.471518e+14	1.367868e+04	9.073990e+03	4.991650e+03	0	1.179858e-03
1.220000e+09	5.098566e+13	0.000000e+00	6.315789e-01	7.052166e+14	1.294602e+15	1.465253e+14	1.364799e+04	9.056912e+03	4.982255e+03	0	1.173890e-03
1.230000e+09	5.021919e+13	0.000000e+00	6.315789e-01	6.972512e+14	1.281291e+15	1.459029e+14	1.361766e+04	9.040016e+03	4.972960e+03	0	1.167978e-03
1.240000e+09	4.946744e+13	0.000000e+00	6.315789e-01	6.894351e+14	1.268218e+15	1.452846e+14	1.358766e+04	9.023297e+03	4.963763e+03	0	1.162121e-03
1.250000e+09	4.873002e+13	0.000000e+00	6.315789e-01	6.817643e+14	1.255378e+15	1.446705e+14	1.355800e+04	9.006754e+03	4.954663e+03	0	1.156317e-03
1.260000e+09	4.800655e+13	0.000000e+00	6.315789e-01	6.742353e+14	1.242764e+15	1.440603e+14	1.352866e+04	8.990383e+03	4.945657e+03	0	1.150566e-03
1.270000e+09	4.729669e+13	0.000000e+00	6.315789e-01	6.668443e+14	1.230372e+15	1.434542e+14	1.349965e+04	8.974181e+03	4.936744e+03	0	1.144867e-03
1.280000e+09	4.660008e+13	0.000000e+00	6.315789e-01	6.595879e+14	1.218195e+15	1.428521e+14	1.347096e+04	8.958144e+03	4.927922e+03	0	1.139218e-03
1.290000e+09	4.591638e+13	0.000000e+00	6.315789e-01	6.524627e+14	1.206228e+15	1.422540e+14	1.344258e+04	8.942271e+03	4.919190e+03	0	1.133619e-03
1.300000e+09	4.524527e+13	0.000000e+00	6.315789e-01	6.454655e+14	1.194467e+15	1.416597e+14	1.341450e+04	8.926558e+03	4.910547e+03	0	1.128069e-03
1.310000e+09	4.458644e+13	0.000000e+00	6.315789e-01	6.385930e+14	1.182906e+15	1.410694e+14	1.338672e+04	8.911003e+03	4.901990e+03	0	1.122567e-03
1.320000e+09	4.393957e+13	0.000000e+00	6.315789e-01	6.318422e+14	1.171540e+15	1.404829e+14	1.335924e+04	8.895603e+03	4.893518e+03	0	1.117112e-03
1.330000e+09	4.330438e+13	0.000000e+00	6.315789e-01	6.252100e+14	1.160366e+15	1.399003e+14	1.333204e+04	8.880355e+03	4.885130e+03	0	1.111703e-03
1.340000e+09	4.268057e+13	0.000000e+00	6.315789e-01	6.186938e+14	1.149378e+15	1.393214e+14	1.330513e+04	8.865257e+03	4.876824e+03	0	1.106339e-03
1.350000e+09	4.206788e+13	0.000000e+00	6.315789e-01	6.122905e+14	1.138571e+15	1.387464e+14	1.327850e+04	8.850306e+03	4.868600e+03	0	1.101019e-03
1.360000e+09	4.146602e+13	0.000000e+00	6.315789e-01	6.059976e+14	1.127942e+15	1.381751e+14	1.325215e+04	8.835500e+03	4.860455e+03	0	1.095743e-03
