#t		Qconv[W]	Ri[Rp]		R*[Rp]		Qc[W]		Qm[W]		Qr[W]		Tcmb[K]		Tl[K]		Tup[K]		RiFlag		Bs[T]
0.000000e+00	3.767457e+15	0.000000e+00	6.283185e-01	3.305614e+16	2.843214e+13	3.488723e+14	3.844827e+04	5.516321e+03	3.024630e+03	0	4.905031e-03
1.000000e+07	3.557638e+15	0.000000e+00	6.283185e-01	3.124639e+16	9.977480e+13	3.469393e+14	3.747067e+04	6.503255e+03	3.565772e+03	0	4.812229e-03
2.000000e+07	3.350215e+15	0.000000e+00	6.283185e-01	2.945839e+16	2.522449e+14	3.450208e+14	3.654490e+04	7.433349e+03	4.075748e+03	0	4.716827e-03
3.000000e+07	3.147080e+15	0.000000e+00	6.283185e-01	2.770822e+16	5.152613e+14	3.431165e+14	3.567059e+04	8.304398e+03	4.553349e+03	0	4.619500e-03
4.000000e+07	2.949878e+15	0.000000e+00	6.283185e-01	2.600985e+16	9.070310e+14	3.412265e+14	3.484687e+04	9.113950e+03	4.997231e+03	0	4.520922e-03
5.000000e+07	2.760052e+15	0.000000e+00	6.283185e-01	2.437549e+16	1.431065e+15	3.393506e+14	3.407241e+04	9.859641e+03	5.406097e+03	0	4.421790e-03
6.000000e+07	2.578845e+15	0.000000e+00	6.283185e-01	2.281566e+16	2.076007e+15	3.374887e+14	3.334553e+04	1.053959e+04	5.778915e+03	0	4.322823e-03
7.000000e+07	2.407274e+15	0.000000e+00	6.283185e-01	2.133898e+16	2.818059e+15	3.356407e+14	3.266420e+04	1.115274e+04	6.115109e+03	0	4.224749e-03
8.000000e+07	2.246098e+15	0.000000e+00	6.283185e-01	1.995181e+16	3.625093e+15	3.338064e+14	3.202611e+04	1.169914e+04	6.414703e+03	0	4.128275e-03
9.000000e+07	2.095786e+15	0.000000e+00	6.283185e-01	1.865809e+16	4.461391e+15	3.319857e+14	3.142875e+04	1.218003e+04	6.678382e+03	0	4.034051e-03
1.000000e+08	1.956516e+15	0.000000e+00	6.283185e-01	1.745924e+16	5.292097e+15	3.301785e+14	3.086946e+04	1.259785e+04	6.907472e+03	0	3.942638e-03
1.100000e+08	1.828189e+15	0.000000e+00	6.283185e-01	1.635436e+16	6.086647e+15	3.283848e+14	3.034552e+04	1.295601e+04	7.103855e+03	0	3.854482e-03
1.200000e+08	1.710468e+15	0.000000e+00	6.283185e-01	1.534052e+16	6.820924e+15	3.266044e+14	2.985422e+04	1.325875e+04	7.269847e+03	0	3.769908e-03
1.300000e+08	1.602835e+15	0.000000e+00	6.283185e-01	1.441323e+16	7.478045e+15	3.248371e+14	2.939292e+04	1.351080e+04	7.408048e+03	0	3.689113e-03
1.400000e+08	1.504641e+15	0.000000e+00	6.283185e-01	1.356690e+16	8.048152e+15	3.230829e+14	2.895910e+04	1.371717e+04	7.521201e+03	0	3.612185e-03
1.500000e+08	1.415161e+15	0.000000e+00	6.283185e-01	1.279533e+16	8.527493e+15	3.213417e+14	2.855039e+04	1.388290e+04	7.612071e+03	0	3.539112e-03
1.600000e+08	1.333643e+15	0.000000e+00	6.283185e-01	1.209205e+16	8.917144e+15	3.196133e+14	2.816462e+04	1.401287e+04	7.683339e+03	0	3.469809e-03
1.700000e+08	1.259338e+15	0.000000e+00	6.283185e-01	1.145064e+16	9.221658e+15	3.178977e+14	2.779976e+04	1.411172e+04	7.737536e+03	0	3.404132e-03
1.800000e+08	1.191526e+15	0.000000e+00	6.283185e-01	1.086495e+16	9.447874e+15	3.161948e+14	2.745401e+04	1.418368e+04	7.776995e+03	0	3.341901e-03
1.900000e+08	1.129536e+15	0.000000e+00	6.283185e-01	1.032921e+16	9.603883e+15	3.145044e+14	2.712571e+04	1.423262e+04	7.803825e+03	0	3.282911e-03
2.000000e+08	1.072752e+15	0.000000e+00	6.283185e-01	9.838144e+15	9.698267e+15	3.128264e+14	2.681340e+04	1.426195e+04	7.819909e+03	0	3.226949e-03
2.100000e+08	1.020615e+15	0.000000e+00	6.283185e-01	9.386976e+15	9.739506e+15	3.111608e+14	2.651575e+04	1.427471e+04	7.826902e+03	0	3.173801e-03
2.200000e+08	9.726258e+14	0.000000e+00	6.283185e-01	8.971429e+15	9.735646e+15	3.095074e+14	2.623159e+04	1.427351e+04	7.826249e+03	0	3.123256e-03
2.300000e+08	9.283413e+14	0.000000e+00	6.283185e-01	8.587706e+15	9.694088e+15	3.078661e+14	2.595985e+04	1.426066e+04	7.819199e+03	0	3.075116e-03
2.400000e+08	8.873697e+14	0.000000e+00	6.283185e-01	8.232452e+15	9.621448e+15	3.062369e+14	2.569960e+04	1.423809e+04	7.806826e+03	0	3.029195e-03
2.500000e+08	8.493660e+14	0.000000e+00	6.283185e-01	7.902712e+15	9.523565e+15	3.046196e+14	2.544999e+04	1.420749e+04	7.790050e+03	0	2.985318e-03
2.600000e+08	8.140273e+14	0.000000e+00	6.283185e-01	7.595890e+15	9.405480e+15	3.030141e+14	2.521026e+04	1.417029e+04	7.769651e+03	0	2.943328e-03
2.700000e+08	7.810874e+14	0.000000e+00	6.283185e-01	7.309706e+15	9.271532e+15	3.014204e+14	2.497973e+04	1.412769e+04	7.746294e+03	0	2.903079e-03
2.800000e+08	7.503128e+14	0.000000e+00	6.283185e-01	7.042157e+15	9.125400e+15	2.998383e+14	2.475780e+04	1.408072e+04	7.720542e+03	0	2.864440e-03
2.900000e+08	7.214979e+14	0.000000e+00	6.283185e-01	6.791482e+15	8.970163e+15	2.982678e+14	2.454389e+04	1.403025e+04	7.692868e+03	0	2.827292e-03
3.000000e+08	6.944619e+14	0.000000e+00	6.283185e-01	6.556130e+15	8.808413e+15	2.967087e+14	2.433751e+04	1.397701e+04	7.663675e+03	0	2.791527e-03
3.100000e+08	6.690453e+14	0.000000e+00	6.283185e-01	6.334734e+15	8.642279e+15	2.951610e+14	2.413821e+04	1.392161e+04	7.633297e+03	0	2.757047e-03
3.200000e+08	6.451070e+14	0.000000e+00	6.283185e-01	6.126082e+15	8.473515e+15	2.936245e+14	2.394557e+04	1.386456e+04	7.602020e+03	0	2.723765e-03
3.300000e+08	6.225218e+14	0.000000e+00	6.283185e-01	5.929101e+15	8.303574e+15	2.920992e+14	2.375921e+04	1.380631e+04	7.570079e+03	0	2.691600e-03
3.400000e+08	6.011786e+14	0.000000e+00	6.283185e-01	5.742836e+15	8.133620e+15	2.905850e+14	2.357878e+04	1.374721e+04	7.537675e+03	0	2.660481e-03
3.500000e+08	5.809783e+14	0.000000e+00	6.283185e-01	5.566436e+15	7.964585e+15	2.890817e+14	2.340395e+04	1.368757e+04	7.504975e+03	0	2.630343e-03
3.600000e+08	5.618320e+14	0.000000e+00	6.283185e-01	5.399139e+15	7.797236e+15	2.875894e+14	2.323444e+04	1.362765e+04	7.472116e+03	0	2.601125e-03
3.700000e+08	5.436604e+14	0.000000e+00	6.283185e-01	5.240262e+15	7.632151e+15	2.861079e+14	2.306998e+04	1.356764e+04	7.439215e+03	0	2.572774e-03
3.800000e+08	5.263918e+14	0.000000e+00	6.283185e-01	5.089190e+15	7.469797e+15	2.846371e+14	2.291031e+04	1.350773e+04	7.406368e+03	0	2.545240e-03
3.900000e+08	5.099618e+14	0.000000e+00	6.283185e-01	4.945368e+15	7.310527e+15	2.831769e+14	2.275519e+04	1.344807e+04	7.373655e+03	0	2.518478e-03
4.000000e+08	4.943119e+14	0.000000e+00	6.283185e-01	4.808294e+15	7.154609e+15	2.817272e+14	2.260442e+04	1.338877e+04	7.341140e+03	0	2.492448e-03
4.100000e+08	4.793893e+14	0.000000e+00	6.283185e-01	4.677512e+15	7.002222e+15	2.802881e+14	2.245779e+04	1.332993e+04	7.308879e+03	0	2.467110e-03
4.200000e+08	4.651457e+14	0.000000e+00	6.283185e-01	4.552610e+15	6.853502e+15	2.788593e+14	2.231511e+04	1.327164e+04	7.276915e+03	0	2.442429e-03
4.300000e+08	4.515374e+14	0.000000e+00	6.283185e-01	4.433208e+15	6.708533e+15	2.774408e+14	2.217620e+04	1.321395e+04	7.245283e+03	0	2.418375e-03
4.400000e+08	4.385241e+14	0.000000e+00	6.283185e-01	4.318961e+15	6.567344e+15	2.760324e+14	2.204090e+04	1.315692e+04	7.214012e+03	0	2.394915e-03
4.500000e+08	4.260692e+14	0.000000e+00	6.283185e-01	4.209553e+15	6.429956e+15	2.746343e+14	2.190906e+04	1.310058e+04	7.183123e+03	0	2.372024e-03
4.600000e+08	4.141390e+14	0.000000e+00	6.283185e-01	4.104693e+15	6.296338e+15	2.732461e+14	2.178053e+04	1.304498e+04	7.152635e+03	0	2.349675e-03
4.700000e+08	4.027023e+14	0.000000e+00	6.283185e-01	4.004114e+15	6.166464e+15	2.718679e+14	2.165517e+04	1.299013e+04	7.122560e+03	0	2.327843e-03
4.800000e+08	3.917306e+14	0.000000e+00	6.283185e-01	3.907569e+15	6.040273e+15	2.704996e+14	2.153286e+04	1.293605e+04	7.092908e+03	0	2.306507e-03
4.900000e+08	3.811974e+14	0.000000e+00	6.283185e-01	3.814831e+15	5.917703e+15	2.691411e+14	2.141347e+04	1.288275e+04	7.063685e+03	0	2.285646e-03
5.000000e+08	3.710785e+14	0.000000e+00	6.283185e-01	3.725689e+15	5.798675e+15	2.677923e+14	2.129689e+04	1.283024e+04	7.034894e+03	0	2.265240e-03
5.100000e+08	3.613510e+14	0.000000e+00	6.283185e-01	3.639947e+15	5.683103e+15	2.664531e+14	2.118301e+04	1.277853e+04	7.006539e+03	0	2.245271e-03
5.200000e+08	3.519940e+14	0.000000e+00	6.283185e-01	3.557424e+15	5.570902e+15	2.651235e+14	2.107174e+04	1.272760e+04	6.978617e+03	0	2.225721e-03
5.300000e+08	3.429879e+14	0.000000e+00	6.283185e-01	3.477951e+15	5.461979e+15	2.638033e+14	2.096296e+04	1.267747e+04	6.951129e+03	0	2.206575e-03
5.400000e+08	3.343145e+14	0.000000e+00	6.283185e-01	3.401371e+15	5.356243e+15	2.624926e+14	2.085659e+04	1.262812e+04	6.924071e+03	0	2.187816e-03
5.500000e+08	3.259569e+14	0.000000e+00	6.283185e-01	3.327537e+15	5.253592e+15	2.611912e+14	2.075255e+04	1.257955e+04	6.897440e+03	0	2.169430e-03
5.600000e+08	3.178992e+14	0.000000e+00	6.283185e-01	3.256312e+15	5.153934e+15	2.598990e+14	2.065075e+04	1.253175e+04	6.871230e+03	0	2.151405e-03
5.700000e+08	3.101266e+14	0.000000e+00	6.283185e-01	3.187569e+15	5.057175e+15	2.586161e+14	2.055111e+04	1.248471e+04	6.845437e+03	0	2.133726e-03
5.800000e+08	3.026252e+14	0.000000e+00	6.283185e-01	3.121188e+15	4.963221e+15	2.573422e+14	2.045356e+04	1.243842e+04	6.820054e+03	0	2.116382e-03
5.900000e+08	2.953821e+14	0.000000e+00	6.283185e-01	3.057056e+15	4.871977e+15	2.560773e+14	2.035802e+04	1.239286e+04	6.795077e+03	0	2.099361e-03
6.000000e+08	2.883850e+14	0.000000e+00	6.283185e-01	2.995067e+15	4.783353e+15	2.548215e+14	2.026444e+04	1.234803e+04	6.770497e+03	0	2.082651e-03
6.100000e+08	2.816225e+14	0.000000e+00	6.283185e-01	2.935123e+15	4.697264e+15	2.535745e+14	2.017273e+04	1.230392e+04	6.746308e+03	0	2.066243e-03
6.200000e+08	2.750838e+14	0.000000e+00	6.283185e-01	2.877131e+15	4.613617e+15	2.523363e+14	2.008285e+04	1.226050e+04	6.722503e+03	0	2.050127e-03
6.300000e+08	2.687588e+14	0.000000e+00	6.283185e-01	2.821002e+15	4.532333e+15	2.511068e+14	1.999473e+04	1.221777e+04	6.699075e+03	0	2.034292e-03
6.400000e+08	2.626380e+14	0.000000e+00	6.283185e-01	2.766655e+15	4.453330e+15	2.498860e+14	1.990832e+04	1.217572e+04	6.676016e+03	0	2.018730e-03
6.500000e+08	2.567123e+14	0.000000e+00	6.283185e-01	2.714011e+15	4.376528e+15	2.486738e+14	1.982356e+04	1.213433e+04	6.653320e+03	0	2.003432e-03
6.600000e+08	2.509733e+14	0.000000e+00	6.283185e-01	2.662997e+15	4.301853e+15	2.474702e+14	1.974040e+04	1.209358e+04	6.630978e+03	0	1.988390e-03
6.700000e+08	2.454130e+14	0.000000e+00	6.283185e-01	2.613543e+15	4.229228e+15	2.462750e+14	1.965880e+04	1.205347e+04	6.608985e+03	0	1.973596e-03
6.800000e+08	2.400238e+14	0.000000e+00	6.283185e-01	2.565583e+15	4.158584e+15	2.450882e+14	1.957870e+04	1.201398e+04	6.587331e+03	0	1.959042e-03
6.900000e+08	2.347984e+14	0.000000e+00	6.283185e-01	2.519056e+15	4.089850e+15	2.439097e+14	1.950006e+04	1.197509e+04	6.566011e+03	0	1.944721e-03
7.000000e+08	2.297302e+14	0.000000e+00	6.283185e-01	2.473903e+15	4.022962e+15	2.427395e+14	1.942283e+04	1.193680e+04	6.545017e+03	0	1.930627e-03
7.100000e+08	2.248127e+14	0.000000e+00	6.283185e-01	2.430067e+15	3.957856e+15	2.415775e+14	1.934698e+04	1.189910e+04	6.524342e+03	0	1.916752e-03
7.200000e+08	2.200398e+14	0.000000e+00	6.283185e-01	2.387497e+15	3.894472e+15	2.404236e+14	1.927247e+04	1.186196e+04	6.503979e+03	0	1.903090e-03
7.300000e+08	2.154057e+14	0.000000e+00	6.283185e-01	2.346142e+15	3.832748e+15	2.392778e+14	1.919925e+04	1.182538e+04	6.483922e+03	0	1.889636e-03
7.400000e+08	2.109050e+14	0.000000e+00	6.283185e-01	2.305953e+15	3.772630e+15	2.381399e+14	1.912730e+04	1.178934e+04	6.464163e+03	0	1.876382e-03
7.500000e+08	2.065324e+14	0.000000e+00	6.283185e-01	2.266887e+15	3.714061e+15	2.370100e+14	1.905657e+04	1.175384e+04	6.444697e+03	0	1.863324e-03
7.600000e+08	2.022830e+14	0.000000e+00	6.283185e-01	2.228900e+15	3.656990e+15	2.358880e+14	1.898702e+04	1.171886e+04	6.425516e+03	0	1.850456e-03
7.700000e+08	1.981520e+14	0.000000e+00	6.283185e-01	2.191951e+15	3.601366e+15	2.347738e+14	1.891864e+04	1.168439e+04	6.406616e+03	0	1.837773e-03
7.800000e+08	1.941350e+14	0.000000e+00	6.283185e-01	2.156001e+15	3.547142e+15	2.336673e+14	1.885139e+04	1.165041e+04	6.387988e+03	0	1.825269e-03
7.900000e+08	1.902278e+14	0.000000e+00	6.283185e-01	2.121013e+15	3.494269e+15	2.325685e+14	1.878523e+04	1.161693e+04	6.369629e+03	0	1.812941e-03
8.000000e+08	1.864262e+14	0.000000e+00	6.283185e-01	2.086951e+15	3.442705e+15	2.314774e+14	1.872013e+04	1.158392e+04	6.351531e+03	0	1.800783e-03
8.100000e+08	1.827264e+14	0.000000e+00	6.283185e-01	2.053783e+15	3.392403e+15	2.303937e+14	1.865608e+04	1.155138e+04	6.333689e+03	0	1.788790e-03
8.200000e+08	1.791247e+14	0.000000e+00	6.283185e-01	2.021476e+15	3.343326e+15	2.293176e+14	1.859304e+04	1.151930e+04	6.316097e+03	0	1.776959e-03
8.300000e+08	1.756175e+14	0.000000e+00	6.283185e-01	1.989999e+15	3.295431e+15	2.282490e+14	1.853098e+04	1.148766e+04	6.298751e+03	0	1.765285e-03
8.400000e+08	1.722015e+14	0.000000e+00	6.283185e-01	1.959323e+15	3.248681e+15	2.271877e+14	1.846989e+04	1.145646e+04	6.281644e+03	0	1.753765e-03
8.500000e+08	1.688735e+14	0.000000e+00	6.283185e-01	1.929420e+15	3.203039e+15	2.261337e+14	1.840973e+04	1.142569e+04	6.264772e+03	0	1.742393e-03
8.600000e+08	1.656305e+14	0.000000e+00	6.283185e-01	1.900263e+15	3.158472e+15	2.250870e+14	1.835048e+04	1.139534e+04	6.248130e+03	0	1.731167e-03
8.700000e+08	1.624694e+14	0.000000e+00	6.283185e-01	1.871827e+15	3.114941e+15	2.240475e+14	1.829212e+04	1.136540e+04	6.231712e+03	0	1.720083e-03
8.800000e+08	1.593874e+14	0.000000e+00	6.283185e-01	1.844088e+15	3.072416e+15	2.230152e+14	1.823464e+04	1.133585e+04	6.215514e+03	0	1.709138e-03
8.900000e+08	1.563820e+14	0.000000e+00	6.283185e-01	1.817021e+15	3.030867e+15	2.219899e+14	1.817800e+04	1.130671e+04	6.199531e+03	0	1.698327e-03
9.000000e+08	1.534505e+14	0.000000e+00	6.283185e-01	1.790604e+15	2.990262e+15	2.209717e+14	1.812218e+04	1.127794e+04	6.183759e+03	0	1.687648e-03
9.100000e+08	1.505904e+14	0.000000e+00	6.283185e-01	1.764817e+15	2.950571e+15	2.199605e+14	1.806718e+04	1.124955e+04	6.168193e+03	0	1.677097e-03
9.200000e+08	1.477994e+14	0.000000e+00	6.283185e-01	1.739638e+15	2.911770e+15	2.189561e+14	1.801296e+04	1.122153e+04	6.152829e+03	0	1.666671e-03
9.300000e+08	1.450753e+14	0.000000e+00	6.283185e-01	1.715048e+15	2.873827e+15	2.179587e+14	1.795951e+04	1.119387e+04	6.137663e+03	0	1.656368e-03
9.400000e+08	1.424158e+14	0.000000e+00	6.283185e-01	1.691027e+15	2.836718e+15	2.169681e+14	1.790681e+04	1.116656e+04	6.122690e+03	0	1.646184e-03
9.500000e+08	1.398189e+14	0.000000e+00	6.283185e-01	1.667559e+15	2.800420e+15	2.159842e+14	1.785485e+04	1.113960e+04	6.107908e+03	0	1.636117e-03
9.600000e+08	1.372826e+14	0.000000e+00	6.283185e-01	1.644625e+15	2.764906e+15	2.150071e+14	1.780360e+04	1.111298e+04	6.093311e+03	0	1.626163e-03
9.700000e+08	1.348050e+14	0.000000e+00	6.283185e-01	1.622208e+15	2.730154e+15	2.140366e+14	1.775306e+04	1.108669e+04	6.078896e+03	0	1.616321e-03
9.800000e+08	1.323842e+14	0.000000e+00	6.283185e-01	1.600293e+15	2.696142e+15	2.130727e+14	1.770320e+04	1.106073e+04	6.064660e+03	0	1.606588e-03
9.900000e+08	1.300185e+14	0.000000e+00	6.283185e-01	1.578864e+15	2.662847e+15	2.121153e+14	1.765401e+04	1.103508e+04	6.050599e+03	0	1.596960e-03
1.000000e+09	1.277062e+14	0.000000e+00	6.283185e-01	1.557906e+15	2.630249e+15	2.111645e+14	1.760547e+04	1.100975e+04	6.036708e+03	0	1.587436e-03
1.010000e+09	1.254456e+14	0.000000e+00	6.283185e-01	1.537406e+15	2.598329e+15	2.102201e+14	1.755758e+04	1.098472e+04	6.022986e+03	0	1.578014e-03
1.020000e+09	1.232353e+14	0.000000e+00	6.283185e-01	1.517349e+15	2.567067e+15	2.092821e+14	1.751032e+04	1.096000e+04	6.009429e+03	0	1.568691e-03
1.030000e+09	1.210736e+14	0.000000e+00	6.283185e-01	1.497722e+15	2.536444e+15	2.083504e+14	1.746366e+04	1.093557e+04	5.996033e+03	0	1.559464e-03
1.040000e+09	1.189591e+14	0.000000e+00	6.283185e-01	1.478513e+15	2.506442e+15	2.074251e+14	1.741761e+04	1.091142e+04	5.982795e+03	0	1.550333e-03
1.050000e+09	1.168904e+14	0.000000e+00	6.283185e-01	1.459709e+15	2.477044e+15	2.065060e+14	1.737215e+04	1.088756e+04	5.969712e+03	0	1.541294e-03
1.060000e+09	1.148663e+14	0.000000e+00	6.283185e-01	1.441298e+15	2.448233e+15	2.055931e+14	1.732726e+04	1.086398e+04	5.956782e+03	0	1.532345e-03
1.070000e+09	1.128853e+14	0.000000e+00	6.283185e-01	1.423270e+15	2.419994e+15	2.046863e+14	1.728293e+04	1.084067e+04	5.944001e+03	0	1.523485e-03
1.080000e+09	1.109463e+14	0.000000e+00	6.283185e-01	1.405613e+15	2.392309e+15	2.037857e+14	1.723916e+04	1.081763e+04	5.931367e+03	0	1.514712e-03
1.090000e+09	1.090480e+14	0.000000e+00	6.283185e-01	1.388318e+15	2.365165e+15	2.028911e+14	1.719593e+04	1.079485e+04	5.918876e+03	0	1.506023e-03
1.100000e+09	1.071893e+14	0.000000e+00	6.283185e-01	1.371372e+15	2.338546e+15	2.020025e+14	1.715322e+04	1.077232e+04	5.906526e+03	0	1.497417e-03
1.110000e+09	1.053691e+14	0.000000e+00	6.283185e-01	1.354768e+15	2.312440e+15	2.011198e+14	1.711104e+04	1.075005e+04	5.894315e+03	0	1.488893e-03
1.120000e+09	1.035862e+14	0.000000e+00	6.283185e-01	1.338495e+15	2.286830e+15	2.002431e+14	1.706936e+04	1.072803e+04	5.882240e+03	0	1.480448e-03
1.130000e+09	1.018397e+14	0.000000e+00	6.283185e-01	1.322544e+15	2.261708e+15	1.993723e+14	1.702818e+04	1.070625e+04	5.870298e+03	0	1.472080e-03
1.140000e+09	1.001286e+14	0.000000e+00	6.283185e-01	1.306907e+15	2.237055e+15	1.985072e+14	1.698750e+04	1.068471e+04	5.858486e+03	0	1.463789e-03
1.150000e+09	9.845183e+13	0.000000e+00	6.283185e-01	1.291576e+15	2.212863e+15	1.976480e+14	1.694729e+04	1.066340e+04	5.846804e+03	0	1.455572e-03
1.160000e+09	9.680852e+13	0.000000e+00	6.283185e-01	1.276541e+15	2.189119e+15	1.967944e+14	1.690754e+04	1.064232e+04	5.835247e+03	0	1.447428e-03
1.170000e+09	9.519774e+13	0.000000e+00	6.283185e-01	1.261795e+15	2.165811e+15	1.959466e+14	1.686826e+04	1.062147e+04	5.823815e+03	0	1.439355e-03
1.180000e+09	9.361864e+13	0.000000e+00	6.283185e-01	1.247330e+15	2.142929e+15	1.951044e+14	1.682944e+04	1.060085e+04	5.812504e+03	0	1.431352e-03
1.190000e+09	9.207037e+13	0.000000e+00	6.283185e-01	1.233139e+15	2.120462e+15	1.942678e+14	1.679105e+04	1.058044e+04	5.801313e+03	0	1.423418e-03
1.200000e+09	9.055211e+13	0.000000e+00	6.283185e-01	1.219215e+15	2.098398e+15	1.934368e+14	1.675310e+04	1.056024e+04	5.790240e+03	0	1.415550e-03
1.210000e+09	8.906308e+13	0.000000e+00	6.283185e-01	1.205551e+15	2.076729e+15	1.926112e+14	1.671558e+04	1.054025e+04	5.779281e+03	0	1.407748e-03
1.220000e+09	8.760251e+13	0.000000e+00	6.283185e-01	1.192141e+15	2.055443e+15	1.917912e+14	1.667847e+04	1.052048e+04	5.768437e+03	0	1.400010e-03
1.230000e+09	8.616968e+13	0.000000e+00	6.283185e-01	1.178976e+15	2.034533e+15	1.909765e+14	1.664178e+04	1.050090e+04	5.757703e+03	0	1.392335e-03
1.240000e+09	8.476386e+13	0.000000e+00	6.283185e-01	1.166053e+15	2.013988e+15	1.901673e+14	1.660549e+04	1.048152e+04	5.747079e+03	0	1.384722e-03
1.250000e+09	8.338437e+13	0.000000e+00	6.283185e-01	1.153364e+15	1.993799e+15	1.893634e+14	1.656959e+04	1.046234e+04	5.736563e+03	0	1.377169e-03
1.260000e+09	8.203055e+13	0.000000e+00	6.283185e-01	1.140903e+15	1.973959e+15	1.885647e+14	1.653409e+04	1.044336e+04	5.726153e+03	0	1.369675e-03
1.270000e+09	8.070174e+13	0.000000e+00	6.283185e-01	1.128666e+15	1.954459e+15	1.877714e+14	1.649896e+04	1.042456e+04	5.715847e+03	0	1.362239e-03
1.280000e+09	7.939732e+13	0.000000e+00	6.283185e-01	1.116645e+15	1.935290e+15	1.869833e+14	1.646422e+04	1.040595e+04	5.705643e+03	0	1.354860e-03
1.290000e+09	7.811668e+13	0.000000e+00	6.283185e-01	1.104837e+15	1.916445e+15	1.862003e+14	1.642984e+04	1.038753e+04	5.695540e+03	0	1.347536e-03
1.300000e+09	7.685925e+13	0.000000e+00	6.283185e-01	1.093236e+15	1.897916e+15	1.854225e+14	1.639582e+04	1.036928e+04	5.685535e+03	0	1.340266e-03
1.310000e+09	7.562445e+13	0.000000e+00	6.283185e-01	1.081836e+15	1.879695e+15	1.846498e+14	1.636216e+04	1.035121e+04	5.675628e+03	0	1.333050e-03
1.320000e+09	7.441172e+13	0.000000e+00	6.283185e-01	1.070634e+15	1.861775e+15	1.838821e+14	1.632884e+04	1.033332e+04	5.665817e+03	0	1.325886e-03
1.330000e+09	7.322055e+13	0.000000e+00	6.283185e-01	1.059624e+15	1.844151e+15	1.831195e+14	1.629588e+04	1.031560e+04	5.656100e+03	0	1.318773e-03
1.340000e+09	7.205040e+13	0.000000e+00	6.283185e-01	1.048802e+15	1.826814e+15	1.823618e+14	1.626325e+04	1.029804e+04	5.646475e+03	0	1.311710e-03
1.350000e+09	7.090078e+13	0.000000e+00	6.283185e-01	1.038163e+15	1.809759e+15	1.816091e+14	1.623095e+04	1.028066e+04	5.636942e+03	0	1.304696e-03
1.360000e+09	6.977119e+13	0.000000e+00	6.283185e-01	1.027704e+15	1.792978e+15	1.808613e+14	1.619897e+04	1.026343e+04	5.627498e+03	0	1.297730e-03
