#t		Qconv[W]	Ri[Rp]		R*[Rp]		Qc[W]		Qm[W]		Qr[W]		Tcmb[K]		Tl[K]		Tup[K]		RiFlag		Bs[T]
0.000000e+00	2.341435e+12	0.000000e+00	4.275863e-01	1.024841e+14	5.754260e+13	1.084598e+14	6.297039e+03	3.078836e+03	2.217251e+03	0	5.577293e-04
1.000000e+07	2.236677e+12	0.000000e+00	4.275863e-01	9.797952e+13	5.909882e+13	1.078588e+14	6.240192e+03	3.091752e+03	2.226553e+03	0	5.492843e-04
2.000000e+07	2.139209e+12	0.000000e+00	4.275863e-01	9.378788e+13	6.061660e+13	1.072624e+14	6.185805e+03	3.104105e+03	2.235449e+03	0	5.411868e-04
3.000000e+07	2.048339e+12	0.000000e+00	4.275863e-01	8.987943e+13	6.209614e+13	1.066704e+14	6.133710e+03	3.115926e+03	2.243962e+03	0	5.334127e-04
4.000000e+07	1.963454e+12	0.000000e+00	4.275863e-01	8.622799e+13	6.353768e+13	1.060828e+14	6.083756e+03	3.127240e+03	2.252110e+03	0	5.259402e-04
5.000000e+07	1.884016e+12	0.000000e+00	4.275863e-01	8.281040e+13	6.494147e+13	1.054996e+14	6.035802e+03	3.138075e+03	2.259913e+03	0	5.187494e-04
6.000000e+07	1.809546e+12	0.000000e+00	4.275863e-01	7.960618e+13	6.630781e+13	1.049208e+14	5.989722e+03	3.148454e+03	2.267387e+03	0	5.118225e-04
7.000000e+07	1.739621e+12	0.000000e+00	4.275863e-01	7.659711e+13	6.763701e+13	1.043462e+14	5.945403e+03	3.158397e+03	2.274548e+03	0	5.051430e-04
8.000000e+07	1.673861e+12	0.000000e+00	4.275863e-01	7.376692e+13	6.892938e+13	1.037760e+14	5.902736e+03	3.167926e+03	2.281410e+03	0	4.986960e-04
9.000000e+07	1.611928e+12	0.000000e+00	4.275863e-01	7.110109e+13	7.018529e+13	1.032099e+14	5.861627e+03	3.177059e+03	2.287987e+03	0	4.924679e-04
1.000000e+08	1.553517e+12	0.000000e+00	4.275863e-01	6.858657e+13	7.140512e+13	1.026481e+14	5.821985e+03	3.185812e+03	2.294291e+03	0	4.864462e-04
1.100000e+08	1.498356e+12	0.000000e+00	4.275863e-01	6.621166e+13	7.258925e+13	1.020905e+14	5.783728e+03	3.194203e+03	2.300334e+03	0	4.806192e-04
1.200000e+08	1.446198e+12	0.000000e+00	4.275863e-01	6.396576e+13	7.373808e+13	1.015370e+14	5.746780e+03	3.202247e+03	2.306127e+03	0	4.749764e-04
1.300000e+08	1.396820e+12	0.000000e+00	4.275863e-01	6.183934e+13	7.485205e+13	1.009875e+14	5.711072e+03	3.209957e+03	2.311680e+03	0	4.695080e-04
1.400000e+08	1.350022e+12	0.000000e+00	4.275863e-01	5.982374e+13	7.593159e+13	1.004422e+14	5.676537e+03	3.217348e+03	2.317002e+03	0	4.642049e-04
1.500000e+08	1.305620e+12	0.000000e+00	4.275863e-01	5.791109e+13	7.697716e+13	9.990086e+13	5.643116e+03	3.224432e+03	2.322104e+03	0	4.590589e-04
1.600000e+08	1.263447e+12	0.000000e+00	4.275863e-01	5.609426e+13	7.798922e+13	9.936354e+13	5.610752e+03	3.231221e+03	2.326992e+03	0	4.540620e-04
1.700000e+08	1.223352e+12	0.000000e+00	4.275863e-01	5.436673e+13	7.896825e+13	9.883018e+13	5.579392e+03	3.237725e+03	2.331677e+03	0	4.492071e-04
1.800000e+08	1.185196e+12	0.000000e+00	4.275863e-01	5.272254e+13	7.991475e+13	9.830076e+13	5.548989e+03	3.243957e+03	2.336164e+03	0	4.444875e-04
1.900000e+08	1.148852e+12	0.000000e+00	4.275863e-01	5.115624e+13	8.082921e+13	9.777523e+13	5.519496e+03	3.249925e+03	2.340463e+03	0	4.398968e-04
2.000000e+08	1.114204e+12	0.000000e+00	4.275863e-01	4.966284e+13	8.171214e+13	9.725357e+13	5.490871e+03	3.255640e+03	2.344578e+03	0	4.354293e-04
2.100000e+08	1.081144e+12	0.000000e+00	4.275863e-01	4.823774e+13	8.256405e+13	9.673575e+13	5.463073e+03	3.261111e+03	2.348518e+03	0	4.310795e-04
2.200000e+08	1.049575e+12	0.000000e+00	4.275863e-01	4.687674e+13	8.338549e+13	9.622173e+13	5.436066e+03	3.266346e+03	2.352288e+03	0	4.268422e-04
2.300000e+08	1.019406e+12	0.000000e+00	4.275863e-01	4.557593e+13	8.417695e+13	9.571148e+13	5.409813e+03	3.271354e+03	2.355895e+03	0	4.227127e-04
2.400000e+08	9.905540e+11	0.000000e+00	4.275863e-01	4.433174e+13	8.493899e+13	9.520498e+13	5.384283e+03	3.276143e+03	2.359344e+03	0	4.186864e-04
2.500000e+08	9.629408e+11	0.000000e+00	4.275863e-01	4.314083e+13	8.567214e+13	9.470218e+13	5.359443e+03	3.280720e+03	2.362640e+03	0	4.147591e-04
2.600000e+08	9.364951e+11	0.000000e+00	4.275863e-01	4.200014e+13	8.637694e+13	9.420306e+13	5.335265e+03	3.285093e+03	2.365789e+03	0	4.109269e-04
2.700000e+08	9.111509e+11	0.000000e+00	4.275863e-01	4.090683e+13	8.705393e+13	9.370760e+13	5.311721e+03	3.289268e+03	2.368796e+03	0	4.071860e-04
2.800000e+08	8.868466e+11	0.000000e+00	4.275863e-01	3.985825e+13	8.770366e+13	9.321575e+13	5.288784e+03	3.293252e+03	2.371665e+03	0	4.035329e-04
2.900000e+08	8.635250e+11	0.000000e+00	4.275863e-01	3.885194e+13	8.832667e+13	9.272749e+13	5.266431e+03	3.297052e+03	2.374402e+03	0	3.999642e-04
3.000000e+08	8.411330e+11	0.000000e+00	4.275863e-01	3.788563e+13	8.892352e+13	9.224279e+13	5.244637e+03	3.300674e+03	2.377010e+03	0	3.964767e-04
3.100000e+08	8.196211e+11	0.000000e+00	4.275863e-01	3.695718e+13	8.949475e+13	9.176162e+13	5.223382e+03	3.304123e+03	2.379494e+03	0	3.930675e-04
3.200000e+08	7.989429e+11	0.000000e+00	4.275863e-01	3.606460e+13	9.004088e+13	9.128395e+13	5.202643e+03	3.307405e+03	2.381858e+03	0	3.897338e-04
3.300000e+08	7.790555e+11	0.000000e+00	4.275863e-01	3.520605e+13	9.056249e+13	9.080976e+13	5.182401e+03	3.310527e+03	2.384105e+03	0	3.864728e-04
3.400000e+08	7.599185e+11	0.000000e+00	4.275863e-01	3.437980e+13	9.106007e+13	9.033900e+13	5.162637e+03	3.313492e+03	2.386241e+03	0	3.832820e-04
3.500000e+08	7.414941e+11	0.000000e+00	4.275863e-01	3.358421e+13	9.153420e+13	8.987167e+13	5.143334e+03	3.316306e+03	2.388267e+03	0	3.801591e-04
3.600000e+08	7.237471e+11	0.000000e+00	4.275863e-01	3.281778e+13	9.198541e+13	8.940772e+13	5.124474e+03	3.318974e+03	2.390188e+03	0	3.771016e-04
3.700000e+08	7.066442e+11	0.000000e+00	4.275863e-01	3.207908e+13	9.241420e+13	8.894713e+13	5.106042e+03	3.321500e+03	2.392008e+03	0	3.741075e-04
3.800000e+08	6.901545e+11	0.000000e+00	4.275863e-01	3.136676e+13	9.282110e+13	8.848988e+13	5.088021e+03	3.323889e+03	2.393729e+03	0	3.711746e-04
3.900000e+08	6.742487e+11	0.000000e+00	4.275863e-01	3.067959e+13	9.320664e+13	8.803593e+13	5.070398e+03	3.326146e+03	2.395354e+03	0	3.683009e-04
4.000000e+08	6.588994e+11	0.000000e+00	4.275863e-01	3.001637e+13	9.357133e+13	8.758526e+13	5.053158e+03	3.328274e+03	2.396887e+03	0	3.654847e-04
4.100000e+08	6.440807e+11	0.000000e+00	4.275863e-01	2.937600e+13	9.391568e+13	8.713784e+13	5.036289e+03	3.330278e+03	2.398330e+03	0	3.627239e-04
4.200000e+08	6.297683e+11	0.000000e+00	4.275863e-01	2.875743e+13	9.424020e+13	8.669364e+13	5.019776e+03	3.332162e+03	2.399686e+03	0	3.600170e-04
4.300000e+08	6.159393e+11	0.000000e+00	4.275863e-01	2.815968e+13	9.454536e+13	8.625264e+13	5.003610e+03	3.333929e+03	2.400959e+03	0	3.573623e-04
4.400000e+08	6.025720e+11	0.000000e+00	4.275863e-01	2.758181e+13	9.483167e+13	8.581482e+13	4.987777e+03	3.335583e+03	2.402150e+03	0	3.547582e-04
4.500000e+08	5.896460e+11	0.000000e+00	4.275863e-01	2.702294e+13	9.509961e+13	8.538014e+13	4.972267e+03	3.337127e+03	2.403262e+03	0	3.522031e-04
4.600000e+08	5.771420e+11	0.000000e+00	4.275863e-01	2.648226e+13	9.534966e+13	8.494858e+13	4.957069e+03	3.338565e+03	2.404298e+03	0	3.496957e-04
4.700000e+08	5.650419e+11	0.000000e+00	4.275863e-01	2.595896e+13	9.558227e+13	8.452012e+13	4.942174e+03	3.339901e+03	2.405259e+03	0	3.472346e-04
4.800000e+08	5.533283e+11	0.000000e+00	4.275863e-01	2.545232e+13	9.579791e+13	8.409473e+13	4.927570e+03	3.341136e+03	2.406149e+03	0	3.448184e-04
4.900000e+08	5.419848e+11	0.000000e+00	4.275863e-01	2.496162e+13	9.599703e+13	8.367238e+13	4.913251e+03	3.342276e+03	2.406970e+03	0	3.424458e-04
5.000000e+08	5.309961e+11	0.000000e+00	4.275863e-01	2.448621e+13	9.618009e+13	8.325305e+13	4.899205e+03	3.343322e+03	2.407723e+03	0	3.401156e-04
5.100000e+08	5.203475e+11	0.000000e+00	4.275863e-01	2.402545e+13	9.634752e+13	8.283672e+13	4.885426e+03	3.344277e+03	2.408411e+03	0	3.378267e-04
5.200000e+08	5.100250e+11	0.000000e+00	4.275863e-01	2.357874e+13	9.649975e+13	8.242336e+13	4.871904e+03	3.345145e+03	2.409036e+03	0	3.355778e-04
5.300000e+08	5.000155e+11	0.000000e+00	4.275863e-01	2.314552e+13	9.663719e+13	8.201295e+13	4.858632e+03	3.345927e+03	2.409599e+03	0	3.333680e-04
5.400000e+08	4.903063e+11	0.000000e+00	4.275863e-01	2.272524e+13	9.676029e+13	8.160546e+13	4.845603e+03	3.346627e+03	2.410103e+03	0	3.311962e-04
5.500000e+08	4.808857e+11	0.000000e+00	4.275863e-01	2.231740e+13	9.686943e+13	8.120087e+13	4.832809e+03	3.347247e+03	2.410550e+03	0	3.290612e-04
5.600000e+08	4.717422e+11	0.000000e+00	4.275863e-01	2.192150e+13	9.696500e+13	8.079916e+13	4.820243e+03	3.347790e+03	2.410941e+03	0	3.269623e-04
5.700000e+08	4.628650e+11	0.000000e+00	4.275863e-01	2.153709e+13	9.704742e+13	8.040030e+13	4.807899e+03	3.348257e+03	2.411277e+03	0	3.248984e-04
5.800000e+08	4.542440e+11	0.000000e+00	4.275863e-01	2.116371e+13	9.711705e+13	8.000427e+13	4.795770e+03	3.348652e+03	2.411562e+03	0	3.228686e-04
5.900000e+08	4.458693e+11	0.000000e+00	4.275863e-01	2.080096e+13	9.717427e+13	7.961104e+13	4.783851e+03	3.348977e+03	2.411795e+03	0	3.208721e-04
6.000000e+08	4.377317e+11	0.000000e+00	4.275863e-01	2.044842e+13	9.721947e+13	7.922061e+13	4.772134e+03	3.349233e+03	2.411980e+03	0	3.189080e-04
6.100000e+08	4.298222e+11	0.000000e+00	4.275863e-01	2.010572e+13	9.725298e+13	7.883293e+13	4.760615e+03	3.349422e+03	2.412116e+03	0	3.169755e-04
6.200000e+08	4.221325e+11	0.000000e+00	4.275863e-01	1.977249e+13	9.727517e+13	7.844799e+13	4.749288e+03	3.349548e+03	2.412207e+03	0	3.150739e-04
6.300000e+08	4.146543e+11	0.000000e+00	4.275863e-01	1.944839e+13	9.728636e+13	7.806577e+13	4.738148e+03	3.349611e+03	2.412253e+03	0	3.132022e-04
6.400000e+08	4.073801e+11	0.000000e+00	4.275863e-01	1.913309e+13	9.728693e+13	7.768624e+13	4.727190e+03	3.349614e+03	2.412255e+03	0	3.113599e-04
6.500000e+08	4.003024e+11	0.000000e+00	4.275863e-01	1.882626e+13	9.727716e+13	7.730939e+13	4.716408e+03	3.349559e+03	2.412215e+03	0	3.095462e-04
6.600000e+08	3.934142e+11	0.000000e+00	4.275863e-01	1.852760e+13	9.725741e+13	7.693519e+13	4.705798e+03	3.349447e+03	2.412134e+03	0	3.077604e-04
6.700000e+08	3.867089e+11	0.000000e+00	4.275863e-01	1.823683e+13	9.722796e+13	7.656362e+13	4.695356e+03	3.349281e+03	2.412014e+03	0	3.060019e-04
6.800000e+08	3.801799e+11	0.000000e+00	4.275863e-01	1.795367e+13	9.718914e+13	7.619466e+13	4.685077e+03	3.349061e+03	2.411856e+03	0	3.042700e-04
6.900000e+08	3.738211e+11	0.000000e+00	4.275863e-01	1.767785e+13	9.714124e+13	7.582829e+13	4.674957e+03	3.348789e+03	2.411661e+03	0	3.025641e-04
7.000000e+08	3.676267e+11	0.000000e+00	4.275863e-01	1.740912e+13	9.708457e+13	7.546449e+13	4.664991e+03	3.348468e+03	2.411429e+03	0	3.008836e-04
7.100000e+08	3.615909e+11	0.000000e+00	4.275863e-01	1.714724e+13	9.701938e+13	7.510323e+13	4.655176e+03	3.348098e+03	2.411163e+03	0	2.992278e-04
7.200000e+08	3.557085e+11	0.000000e+00	4.275863e-01	1.689197e+13	9.694598e+13	7.474450e+13	4.645508e+03	3.347682e+03	2.410863e+03	0	2.975963e-04
7.300000e+08	3.499742e+11	0.000000e+00	4.275863e-01	1.664310e+13	9.686463e+13	7.438828e+13	4.635983e+03	3.347220e+03	2.410530e+03	0	2.959885e-04
7.400000e+08	3.443830e+11	0.000000e+00	4.275863e-01	1.640040e+13	9.677558e+13	7.403454e+13	4.626598e+03	3.346714e+03	2.410166e+03	0	2.944038e-04
7.500000e+08	3.389303e+11	0.000000e+00	4.275863e-01	1.616368e+13	9.667911e+13	7.368327e+13	4.617350e+03	3.346166e+03	2.409771e+03	0	2.928417e-04
7.600000e+08	3.336115e+11	0.000000e+00	4.275863e-01	1.593273e+13	9.657546e+13	7.333445e+13	4.608234e+03	3.345576e+03	2.409346e+03	0	2.913018e-04
7.700000e+08	3.284221e+11	0.000000e+00	4.275863e-01	1.570738e+13	9.646487e+13	7.298805e+13	4.599247e+03	3.344946e+03	2.408893e+03	0	2.897834e-04
7.800000e+08	3.233580e+11	0.000000e+00	4.275863e-01	1.548743e+13	9.634759e+13	7.264406e+13	4.590388e+03	3.344278e+03	2.408411e+03	0	2.882863e-04
7.900000e+08	3.184152e+11	0.000000e+00	4.275863e-01	1.527272e+13	9.622383e+13	7.230246e+13	4.581651e+03	3.343572e+03	2.407903e+03	0	2.868098e-04
8.000000e+08	3.135898e+11	0.000000e+00	4.275863e-01	1.506307e+13	9.609386e+13	7.196323e+13	4.573036e+03	3.342829e+03	2.407368e+03	0	2.853536e-04
8.100000e+08	3.088780e+11	0.000000e+00	4.275863e-01	1.485834e+13	9.595786e+13	7.162635e+13	4.564538e+03	3.342052e+03	2.406809e+03	0	2.839172e-04
8.200000e+08	3.042763e+11	0.000000e+00	4.275863e-01	1.465836e+13	9.581606e+13	7.129180e+13	4.556155e+03	3.341240e+03	2.406224e+03	0	2.825003e-04
8.300000e+08	2.997813e+11	0.000000e+00	4.275863e-01	1.446298e+13	9.566866e+13	7.095957e+13	4.547884e+03	3.340396e+03	2.405616e+03	0	2.811022e-04
8.400000e+08	2.953897e+11	0.000000e+00	4.275863e-01	1.427207e+13	9.551586e+13	7.062963e+13	4.539723e+03	3.339520e+03	2.404985e+03	0	2.797228e-04
8.500000e+08	2.910982e+11	0.000000e+00	4.275863e-01	1.408548e+13	9.535788e+13	7.030196e+13	4.531670e+03	3.338612e+03	2.404332e+03	0	2.783616e-04
8.600000e+08	2.869038e+11	0.000000e+00	4.275863e-01	1.390309e+13	9.519488e+13	6.997656e+13	4.523721e+03	3.337675e+03	2.403657e+03	0	2.770182e-04
8.700000e+08	2.828036e+11	0.000000e+00	4.275863e-01	1.372476e+13	9.502709e+13	6.965339e+13	4.515875e+03	3.336709e+03	2.402961e+03	0	2.756922e-04
8.800000e+08	2.787948e+11	0.000000e+00	4.275863e-01	1.355039e+13	9.485465e+13	6.933245e+13	4.508129e+03	3.335715e+03	2.402245e+03	0	2.743833e-04
8.900000e+08	2.748745e+11	0.000000e+00	4.275863e-01	1.337984e+13	9.467775e+13	6.901371e+13	4.500481e+03	3.334694e+03	2.401510e+03	0	2.730911e-04
9.000000e+08	2.710403e+11	0.000000e+00	4.275863e-01	1.321300e+13	9.449656e+13	6.869716e+13	4.492929e+03	3.333646e+03	2.400755e+03	0	2.718154e-04
9.100000e+08	2.672895e+11	0.000000e+00	4.275863e-01	1.304977e+13	9.431127e+13	6.838278e+13	4.485470e+03	3.332574e+03	2.399983e+03	0	2.705557e-04
9.200000e+08	2.636197e+11	0.000000e+00	4.275863e-01	1.289004e+13	9.412201e+13	6.807056e+13	4.478104e+03	3.331476e+03	2.399193e+03	0	2.693118e-04
9.300000e+08	2.600285e+11	0.000000e+00	4.275863e-01	1.273371e+13	9.392896e+13	6.776047e+13	4.470827e+03	3.330355e+03	2.398385e+03	0	2.680833e-04
9.400000e+08	2.565137e+11	0.000000e+00	4.275863e-01	1.258068e+13	9.373224e+13	6.745249e+13	4.463638e+03	3.329212e+03	2.397561e+03	0	2.668699e-04
9.500000e+08	2.530732e+11	0.000000e+00	4.275863e-01	1.243086e+13	9.353205e+13	6.714662e+13	4.456535e+03	3.328045e+03	2.396722e+03	0	2.656714e-04
9.600000e+08	2.497047e+11	0.000000e+00	4.275863e-01	1.228415e+13	9.332849e+13	6.684284e+13	4.449516e+03	3.326858e+03	2.395866e+03	0	2.644874e-04
9.700000e+08	2.464062e+11	0.000000e+00	4.275863e-01	1.214047e+13	9.312173e+13	6.654112e+13	4.442580e+03	3.325650e+03	2.394996e+03	0	2.633177e-04
9.800000e+08	2.431759e+11	0.000000e+00	4.275863e-01	1.199974e+13	9.291188e+13	6.624146e+13	4.435725e+03	3.324421e+03	2.394112e+03	0	2.621619e-04
9.900000e+08	2.400117e+11	0.000000e+00	4.275863e-01	1.186186e+13	9.269910e+13	6.594384e+13	4.428949e+03	3.323174e+03	2.393213e+03	0	2.610199e-04
1.000000e+09	2.369118e+11	0.000000e+00	4.275863e-01	1.172677e+13	9.248350e+13	6.564823e+13	4.422250e+03	3.321907e+03	2.392301e+03	0	2.598913e-04
1.010000e+09	2.338746e+11	0.000000e+00	4.275863e-01	1.159439e+13	9.226521e+13	6.535463e+13	4.415628e+03	3.320623e+03	2.391376e+03	0	2.587759e-04
1.020000e+09	2.308982e+11	0.000000e+00	4.275863e-01	1.146463e+13	9.204435e+13	6.506302e+13	4.409080e+03	3.319321e+03	2.390439e+03	0	2.576734e-04
1.030000e+09	2.279810e+11	0.000000e+00	4.275863e-01	1.133744e+13	9.182104e+13	6.477338e+13	4.402604e+03	3.318003e+03	2.389489e+03	0	2.565836e-04
1.040000e+09	2.251214e+11	0.000000e+00	4.275863e-01	1.121274e+13	9.159539e+13	6.448570e+13	4.396201e+03	3.316668e+03	2.388528e+03	0	2.555064e-04
1.050000e+09	2.223179e+11	0.000000e+00	4.275863e-01	1.109046e+13	9.136753e+13	6.419996e+13	4.389867e+03	3.315318e+03	2.387556e+03	0	2.544413e-04
1.060000e+09	2.195689e+11	0.000000e+00	4.275863e-01	1.097054e+13	9.113753e+13	6.391615e+13	4.383603e+03	3.313952e+03	2.386572e+03	0	2.533882e-04
1.070000e+09	2.168731e+11	0.000000e+00	4.275863e-01	1.085293e+13	9.090552e+13	6.363426e+13	4.377406e+03	3.312572e+03	2.385578e+03	0	2.523469e-04
1.080000e+09	2.142291e+11	0.000000e+00	4.275863e-01	1.073755e+13	9.067161e+13	6.335425e+13	4.371275e+03	3.311178e+03	2.384574e+03	0	2.513172e-04
1.090000e+09	2.116354e+11	0.000000e+00	4.275863e-01	1.062435e+13	9.043586e+13	6.307613e+13	4.365209e+03	3.309770e+03	2.383561e+03	0	2.502989e-04
1.100000e+09	2.090907e+11	0.000000e+00	4.275863e-01	1.051327e+13	9.019840e+13	6.279988e+13	4.359207e+03	3.308349e+03	2.382537e+03	0	2.492916e-04
1.110000e+09	2.065939e+11	0.000000e+00	4.275863e-01	1.040427e+13	8.995932e+13	6.252548e+13	4.353267e+03	3.306916e+03	2.381505e+03	0	2.482954e-04
1.120000e+09	2.041437e+11	0.000000e+00	4.275863e-01	1.029727e+13	8.971869e+13	6.225292e+13	4.347389e+03	3.305471e+03	2.380464e+03	0	2.473099e-04
1.130000e+09	2.017388e+11	0.000000e+00	4.275863e-01	1.019225e+13	8.947661e+13	6.198219e+13	4.341570e+03	3.304014e+03	2.379415e+03	0	2.463349e-04
1.140000e+09	1.993782e+11	0.000000e+00	4.275863e-01	1.008914e+13	8.923317e+13	6.171326e+13	4.335812e+03	3.302545e+03	2.378358e+03	0	2.453703e-04
1.150000e+09	1.970608e+11	0.000000e+00	4.275863e-01	9.987890e+12	8.898844e+13	6.144613e+13	4.330111e+03	3.301066e+03	2.377293e+03	0	2.444159e-04
1.160000e+09	1.947853e+11	0.000000e+00	4.275863e-01	9.888466e+12	8.874248e+13	6.118078e+13	4.324467e+03	3.299577e+03	2.376220e+03	0	2.434715e-04
1.170000e+09	1.925509e+11	0.000000e+00	4.275863e-01	9.790816e+12	8.849541e+13	6.091720e+13	4.318879e+03	3.298078e+03	2.375140e+03	0	2.425370e-04
1.180000e+09	1.903565e+11	0.000000e+00	4.275863e-01	9.694898e+12	8.824729e+13	6.065537e+13	4.313346e+03	3.296569e+03	2.374054e+03	0	2.416121e-04
1.190000e+09	1.882010e+11	0.000000e+00	4.275863e-01	9.600669e+12	8.799816e+13	6.039528e+13	4.307867e+03	3.295051e+03	2.372960e+03	0	2.406967e-04
1.200000e+09	1.860836e+11	0.000000e+00	4.275863e-01	9.508088e+12	8.774814e+13	6.013692e+13	4.302441e+03	3.293524e+03	2.371861e+03	0	2.397906e-04
1.210000e+09	1.840034e+11	0.000000e+00	4.275863e-01	9.417116e+12	8.749724e+13	5.988027e+13	4.297067e+03	3.291989e+03	2.370755e+03	0	2.388937e-04
1.220000e+09	1.819594e+11	0.000000e+00	4.275863e-01	9.327712e+12	8.724558e+13	5.962532e+13	4.291745e+03	3.290445e+03	2.369644e+03	0	2.380058e-04
1.230000e+09	1.799507e+11	0.000000e+00	4.275863e-01	9.239840e+12	8.699319e+13	5.937206e+13	4.286473e+03	3.288894e+03	2.368527e+03	0	2.371268e-04
1.240000e+09	1.779766e+11	0.000000e+00	4.275863e-01	9.153464e+12	8.674014e+13	5.912048e+13	4.281250e+03	3.287336e+03	2.367404e+03	0	2.362565e-04
1.250000e+09	1.760362e+11	0.000000e+00	4.275863e-01	9.068548e+12	8.648649e+13	5.887055e+13	4.276076e+03	3.285770e+03	2.366277e+03	0	2.353947e-04
1.260000e+09	1.741286e+11	0.000000e+00	4.275863e-01	8.985058e+12	8.623230e+13	5.862227e+13	4.270950e+03	3.284198e+03	2.365144e+03	0	2.345414e-04
1.270000e+09	1.722533e+11	0.000000e+00	4.275863e-01	8.902960e+12	8.597761e+13	5.837563e+13	4.265871e+03	3.282619e+03	2.364007e+03	0	2.336964e-04
1.280000e+09	1.704093e+11	0.000000e+00	4.275863e-01	8.822222e+12	8.572251e+13	5.813061e+13	4.260838e+03	3.281033e+03	2.362866e+03	0	2.328594e-04
1.290000e+09	1.685959e+11	0.000000e+00	4.275863e-01	8.742813e+12	8.546701e+13	5.788720e+13	4.255851e+03	3.279442e+03	2.361720e+03	0	2.320305e-04
1.300000e+09	1.668126e+11	0.000000e+00	4.275863e-01	8.664703e+12	8.521117e+13	5.764539e+13	4.250908e+03	3.277846e+03	2.360570e+03	0	2.312095e-04
1.310000e+09	1.650585e+11	0.000000e+00	4.275863e-01	8.587861e+12	8.495506e+13	5.740516e+13	4.246009e+03	3.276244e+03	2.359416e+03	0	2.303962e-04
1.320000e+09	1.633330e+11	0.000000e+00	4.275863e-01	8.512259e+12	8.469871e+13	5.716651e+13	4.241154e+03	3.274637e+03	2.358259e+03	0	2.295906e-04
1.330000e+09	1.616354e+11	0.000000e+00	4.275863e-01	8.437870e+12	8.444217e+13	5.692942e+13	4.236341e+03	3.273025e+03	2.357098e+03	0	2.287924e-04
1.340000e+09	1.599652e+11	0.000000e+00	4.275863e-01	8.364665e+12	8.418547e+13	5.669387e+13	4.231571e+03	3.271408e+03	2.355934e+03	0	2.280016e-04
1.350000e+09	1.583217e+11	0.000000e+00	4.275863e-01	8.292618e+12	8.392869e+13	5.645987e+13	4.226841e+03	3.269787e+03	2.354766e+03	0	2.272181e-04
1.360000e+09	1.567043e+11	0.000000e+00	4.275863e-01	8.221704e+12	8.367183e+13	5.622738e+13	4.222152e+03	3.268162e+03	2.353596e+03	0	2.264417e-04
