#t		Qconv[W]	Ri[Rp]		R*[Rp]		Qc[W]		Qm[W]		Qr[W]		Tcmb[K]		Tl[K]		Tup[K]		RiFlag		Bs[T]
0.000000e+00	3.281937e+14	0.000000e+00	4.178082e-01	8.016074e+15	6.932426e+13	2.543061e+14	2.008381e+04	5.472190e+03	2.508763e+03	0	2.793715e-03
1.000000e+07	2.446358e+14	0.000000e+00	4.178082e-01	5.982067e+15	1.068421e+14	2.528970e+14	1.847117e+04	5.839283e+03	2.677060e+03	0	2.533059e-03
2.000000e+07	1.900423e+14	0.000000e+00	4.178082e-01	4.652774e+15	1.436036e+14	2.514985e+14	1.723891e+04	6.113380e+03	2.802721e+03	0	2.328567e-03
3.000000e+07	1.522965e+14	0.000000e+00	4.178082e-01	3.733463e+15	1.781344e+14	2.501105e+14	1.626346e+04	6.326171e+03	2.900277e+03	0	2.162894e-03
4.000000e+07	1.250353e+14	0.000000e+00	4.178082e-01	3.069332e+15	2.099046e+14	2.487328e+14	1.547006e+04	6.496162e+03	2.978211e+03	0	2.025270e-03
5.000000e+07	1.046544e+14	0.000000e+00	4.178082e-01	2.572687e+15	2.388221e+14	2.473654e+14	1.481076e+04	6.634933e+03	3.041831e+03	0	1.908642e-03
6.000000e+07	8.898539e+13	0.000000e+00	4.178082e-01	2.190763e+15	2.649907e+14	2.460081e+14	1.425332e+04	6.750122e+03	3.094640e+03	0	1.808194e-03
7.000000e+07	7.665824e+13	0.000000e+00	4.178082e-01	1.890218e+15	2.885951e+14	2.446610e+14	1.377523e+04	6.846999e+03	3.139054e+03	0	1.720514e-03
8.000000e+07	6.677139e+13	0.000000e+00	4.178082e-01	1.649106e+15	3.098468e+14	2.433239e+14	1.336025e+04	6.929325e+03	3.176797e+03	0	1.643118e-03
9.000000e+07	5.871097e+13	0.000000e+00	4.178082e-01	1.452486e+15	3.289574e+14	2.419968e+14	1.299635e+04	6.999867e+03	3.209138e+03	0	1.574146e-03
1.000000e+08	5.204668e+13	0.000000e+00	4.178082e-01	1.289881e+15	3.461280e+14	2.406795e+14	1.267443e+04	7.060715e+03	3.237034e+03	0	1.512178e-03
1.100000e+08	4.646921e+13	0.000000e+00	4.178082e-01	1.153759e+15	3.615436e+14	2.393720e+14	1.238747e+04	7.113478e+03	3.261223e+03	0	1.456109e-03
1.200000e+08	4.175135e+13	0.000000e+00	4.178082e-01	1.038587e+15	3.753725e+14	2.380741e+14	1.212994e+04	7.159419e+03	3.282285e+03	0	1.405062e-03
1.300000e+08	3.772297e+13	0.000000e+00	4.178082e-01	9.402224e+14	3.877661e+14	2.367859e+14	1.189743e+04	7.199546e+03	3.300682e+03	0	1.358336e-03
1.400000e+08	3.425449e+13	0.000000e+00	4.178082e-01	8.555078e+14	3.988608e+14	2.355072e+14	1.168640e+04	7.234676e+03	3.316787e+03	0	1.315360e-03
1.500000e+08	3.124573e+13	0.000000e+00	4.178082e-01	7.820030e+14	4.087783e+14	2.342380e+14	1.149394e+04	7.265477e+03	3.330908e+03	0	1.275662e-03
1.600000e+08	2.861820e+13	0.000000e+00	4.178082e-01	7.177956e+14	4.176283e+14	2.329781e+14	1.131764e+04	7.292503e+03	3.343298e+03	0	1.238852e-03
1.700000e+08	2.630965e+13	0.000000e+00	4.178082e-01	6.613685e+14	4.255085e+14	2.317276e+14	1.115551e+04	7.316216e+03	3.354170e+03	0	1.204602e-03
1.800000e+08	2.427013e+13	0.000000e+00	4.178082e-01	6.115049e+14	4.325073e+14	2.304862e+14	1.100588e+04	7.337008e+03	3.363702e+03	0	1.172635e-03
1.900000e+08	2.245922e+13	0.000000e+00	4.178082e-01	5.672192e+14	4.387036e+14	2.292540e+14	1.086730e+04	7.355212e+03	3.372048e+03	0	1.142712e-03
2.000000e+08	2.084386e+13	0.000000e+00	4.178082e-01	5.277056e+14	4.441689e+14	2.280309e+14	1.073858e+04	7.371112e+03	3.379337e+03	0	1.114632e-03
2.100000e+08	1.939681e+13	0.000000e+00	4.178082e-01	4.923000e+14	4.489674e+14	2.268167e+14	1.061867e+04	7.384955e+03	3.385684e+03	0	1.088217e-03
2.200000e+08	1.809545e+13	0.000000e+00	4.178082e-01	4.604509e+14	4.531572e+14	2.256115e+14	1.050667e+04	7.396953e+03	3.391184e+03	0	1.063315e-03
2.300000e+08	1.692085e+13	0.000000e+00	4.178082e-01	4.316967e+14	4.567908e+14	2.244151e+14	1.040180e+04	7.407293e+03	3.395925e+03	0	1.039791e-03
2.400000e+08	1.585709e+13	0.000000e+00	4.178082e-01	4.056490e+14	4.599159e+14	2.232275e+14	1.030337e+04	7.416139e+03	3.399980e+03	0	1.017528e-03
2.500000e+08	1.489067e+13	0.000000e+00	4.178082e-01	3.819787e+14	4.625758e+14	2.220486e+14	1.021080e+04	7.423632e+03	3.403416e+03	0	9.964223e-04
2.600000e+08	1.401011e+13	0.000000e+00	4.178082e-01	3.604054e+14	4.648096e+14	2.208783e+14	1.012354e+04	7.429902e+03	3.406290e+03	0	9.763806e-04
2.700000e+08	1.320555e+13	0.000000e+00	4.178082e-01	3.406892e+14	4.666534e+14	2.197166e+14	1.004115e+04	7.435059e+03	3.408654e+03	0	9.573208e-04
2.800000e+08	1.246854e+13	0.000000e+00	4.178082e-01	3.226233e+14	4.681396e+14	2.185634e+14	9.963201e+03	7.439206e+03	3.410555e+03	0	9.391693e-04
2.900000e+08	1.179176e+13	0.000000e+00	4.178082e-01	3.060293e+14	4.692979e+14	2.174185e+14	9.889333e+03	7.442431e+03	3.412034e+03	0	9.218598e-04
3.000000e+08	1.116886e+13	0.000000e+00	4.178082e-01	2.907521e+14	4.701557e+14	2.162821e+14	9.819215e+03	7.444816e+03	3.413127e+03	0	9.053328e-04
3.100000e+08	1.059430e+13	0.000000e+00	4.178082e-01	2.766566e+14	4.707375e+14	2.151539e+14	9.752554e+03	7.446432e+03	3.413868e+03	0	8.895343e-04
3.200000e+08	1.006323e+13	0.000000e+00	4.178082e-01	2.636246e+14	4.710665e+14	2.140339e+14	9.689086e+03	7.447344e+03	3.414287e+03	0	8.744154e-04
3.300000e+08	9.571410e+12	0.000000e+00	4.178082e-01	2.515521e+14	4.711633e+14	2.129220e+14	9.628572e+03	7.447613e+03	3.414410e+03	0	8.599317e-04
3.400000e+08	9.115087e+12	0.000000e+00	4.178082e-01	2.403479e+14	4.710471e+14	2.118182e+14	9.570798e+03	7.447291e+03	3.414262e+03	0	8.460427e-04
3.500000e+08	8.690950e+12	0.000000e+00	4.178082e-01	2.299308e+14	4.707355e+14	2.107225e+14	9.515568e+03	7.446426e+03	3.413865e+03	0	8.327112e-04
3.600000e+08	8.296063e+12	0.000000e+00	4.178082e-01	2.202294e+14	4.702446e+14	2.096347e+14	9.462706e+03	7.445063e+03	3.413241e+03	0	8.199034e-04
3.700000e+08	7.927818e+12	0.000000e+00	4.178082e-01	2.111798e+14	4.695893e+14	2.085547e+14	9.412051e+03	7.443242e+03	3.412406e+03	0	8.075881e-04
3.800000e+08	7.583888e+12	0.000000e+00	4.178082e-01	2.027252e+14	4.687833e+14	2.074826e+14	9.363455e+03	7.440999e+03	3.411377e+03	0	7.957365e-04
3.900000e+08	7.262193e+12	0.000000e+00	4.178082e-01	1.948149e+14	4.678391e+14	2.064182e+14	9.316785e+03	7.438368e+03	3.410171e+03	0	7.843224e-04
4.000000e+08	6.960871e+12	0.000000e+00	4.178082e-01	1.874032e+14	4.667685e+14	2.053615e+14	9.271918e+03	7.435381e+03	3.408802e+03	0	7.733211e-04
4.100000e+08	6.678248e+12	0.000000e+00	4.178082e-01	1.804493e+14	4.655820e+14	2.043125e+14	9.228741e+03	7.432064e+03	3.407281e+03	0	7.627101e-04
4.200000e+08	6.412818e+12	0.000000e+00	4.178082e-01	1.739164e+14	4.642895e+14	2.032709e+14	9.187151e+03	7.428443e+03	3.405621e+03	0	7.524685e-04
4.300000e+08	6.163223e+12	0.000000e+00	4.178082e-01	1.677713e+14	4.629001e+14	2.022369e+14	9.147053e+03	7.424544e+03	3.403833e+03	0	7.425767e-04
4.400000e+08	5.928235e+12	0.000000e+00	4.178082e-01	1.619840e+14	4.614224e+14	2.012104e+14	9.108358e+03	7.420387e+03	3.401928e+03	0	7.330166e-04
4.500000e+08	5.706741e+12	0.000000e+00	4.178082e-01	1.565272e+14	4.598640e+14	2.001912e+14	9.070986e+03	7.415992e+03	3.399913e+03	0	7.237713e-04
4.600000e+08	5.497732e+12	0.000000e+00	4.178082e-01	1.513763e+14	4.582322e+14	1.991793e+14	9.034861e+03	7.411378e+03	3.397798e+03	0	7.148252e-04
4.700000e+08	5.300290e+12	0.000000e+00	4.178082e-01	1.465089e+14	4.565336e+14	1.981747e+14	8.999915e+03	7.406563e+03	3.395590e+03	0	7.061634e-04
4.800000e+08	5.113581e+12	0.000000e+00	4.178082e-01	1.419046e+14	4.547743e+14	1.971773e+14	8.966083e+03	7.401563e+03	3.393298e+03	0	6.977723e-04
4.900000e+08	4.936842e+12	0.000000e+00	4.178082e-01	1.375446e+14	4.529602e+14	1.961870e+14	8.933305e+03	7.396391e+03	3.390927e+03	0	6.896389e-04
5.000000e+08	4.769377e+12	0.000000e+00	4.178082e-01	1.334120e+14	4.510964e+14	1.952038e+14	8.901525e+03	7.391062e+03	3.388483e+03	0	6.817511e-04
5.100000e+08	4.610548e+12	0.000000e+00	4.178082e-01	1.294911e+14	4.491877e+14	1.942276e+14	8.870693e+03	7.385588e+03	3.385974e+03	0	6.740977e-04
5.200000e+08	4.459773e+12	0.000000e+00	4.178082e-01	1.257677e+14	4.472388e+14	1.932584e+14	8.840759e+03	7.379981e+03	3.383403e+03	0	6.666679e-04
5.300000e+08	4.316514e+12	0.000000e+00	4.178082e-01	1.222287e+14	4.452541e+14	1.922961e+14	8.811679e+03	7.374252e+03	3.380777e+03	0	6.594518e-04
5.400000e+08	4.180280e+12	0.000000e+00	4.178082e-01	1.188621e+14	4.432370e+14	1.913407e+14	8.783411e+03	7.368411e+03	3.378099e+03	0	6.524398e-04
5.500000e+08	4.050617e+12	0.000000e+00	4.178082e-01	1.156566e+14	4.411914e+14	1.903920e+14	8.755915e+03	7.362468e+03	3.375374e+03	0	6.456231e-04
5.600000e+08	3.927108e+12	0.000000e+00	4.178082e-01	1.126022e+14	4.391206e+14	1.894501e+14	8.729155e+03	7.356430e+03	3.372606e+03	0	6.389933e-04
5.700000e+08	3.809367e+12	0.000000e+00	4.178082e-01	1.096894e+14	4.370276e+14	1.885149e+14	8.703097e+03	7.350307e+03	3.369799e+03	0	6.325424e-04
5.800000e+08	3.697039e+12	0.000000e+00	4.178082e-01	1.069094e+14	4.349154e+14	1.875863e+14	8.677707e+03	7.344106e+03	3.366956e+03	0	6.262629e-04
5.900000e+08	3.589795e+12	0.000000e+00	4.178082e-01	1.042542e+14	4.327866e+14	1.866644e+14	8.652956e+03	7.337833e+03	3.364080e+03	0	6.201478e-04
6.000000e+08	3.487329e+12	0.000000e+00	4.178082e-01	1.017164e+14	4.306437e+14	1.857489e+14	8.628816e+03	7.331496e+03	3.361175e+03	0	6.141903e-04
6.100000e+08	3.389359e+12	0.000000e+00	4.178082e-01	9.928896e+13	4.284889e+14	1.848399e+14	8.605258e+03	7.325101e+03	3.358243e+03	0	6.083841e-04
6.200000e+08	3.295623e+12	0.000000e+00	4.178082e-01	9.696555e+13	4.263244e+14	1.839373e+14	8.582259e+03	7.318653e+03	3.355287e+03	0	6.027231e-04
6.300000e+08	3.205878e+12	0.000000e+00	4.178082e-01	9.474019e+13	4.241521e+14	1.830411e+14	8.559794e+03	7.312158e+03	3.352309e+03	0	5.972016e-04
6.400000e+08	3.119897e+12	0.000000e+00	4.178082e-01	9.260732e+13	4.219739e+14	1.821513e+14	8.537841e+03	7.305620e+03	3.349312e+03	0	5.918143e-04
6.500000e+08	3.037470e+12	0.000000e+00	4.178082e-01	9.056178e+13	4.197914e+14	1.812677e+14	8.516379e+03	7.299045e+03	3.346298e+03	0	5.865558e-04
6.600000e+08	2.958400e+12	0.000000e+00	4.178082e-01	8.859876e+13	4.176062e+14	1.803903e+14	8.495387e+03	7.292436e+03	3.343268e+03	0	5.814213e-04
6.700000e+08	2.882504e+12	0.000000e+00	4.178082e-01	8.671377e+13	4.154198e+14	1.795190e+14	8.474848e+03	7.285798e+03	3.340225e+03	0	5.764062e-04
6.800000e+08	2.809611e+12	0.000000e+00	4.178082e-01	8.490264e+13	4.132334e+14	1.786539e+14	8.454742e+03	7.279135e+03	3.337170e+03	0	5.715059e-04
6.900000e+08	2.739562e+12	0.000000e+00	4.178082e-01	8.316144e+13	4.110484e+14	1.777949e+14	8.435054e+03	7.272450e+03	3.334105e+03	0	5.667163e-04
7.000000e+08	2.672208e+12	0.000000e+00	4.178082e-01	8.148652e+13	4.088658e+14	1.769419e+14	8.415766e+03	7.265746e+03	3.331032e+03	0	5.620334e-04
7.100000e+08	2.607409e+12	0.000000e+00	4.178082e-01	7.987445e+13	4.066867e+14	1.760949e+14	8.396865e+03	7.259027e+03	3.327951e+03	0	5.574532e-04
7.200000e+08	2.545034e+12	0.000000e+00	4.178082e-01	7.832204e+13	4.045122e+14	1.752537e+14	8.378335e+03	7.252296e+03	3.324865e+03	0	5.529721e-04
7.300000e+08	2.484960e+12	0.000000e+00	4.178082e-01	7.682626e+13	4.023430e+14	1.744185e+14	8.360162e+03	7.245554e+03	3.321775e+03	0	5.485865e-04
7.400000e+08	2.427073e+12	0.000000e+00	4.178082e-01	7.538430e+13	4.001800e+14	1.735891e+14	8.342335e+03	7.238806e+03	3.318681e+03	0	5.442933e-04
7.500000e+08	2.371265e+12	0.000000e+00	4.178082e-01	7.399353e+13	3.980240e+14	1.727655e+14	8.324840e+03	7.232052e+03	3.315584e+03	0	5.400890e-04
7.600000e+08	2.317434e+12	0.000000e+00	4.178082e-01	7.265143e+13	3.958758e+14	1.719476e+14	8.307665e+03	7.225296e+03	3.312487e+03	0	5.359708e-04
7.700000e+08	2.265485e+12	0.000000e+00	4.178082e-01	7.135569e+13	3.937359e+14	1.711354e+14	8.290801e+03	7.218539e+03	3.309389e+03	0	5.319356e-04
7.800000e+08	2.215328e+12	0.000000e+00	4.178082e-01	7.010410e+13	3.916048e+14	1.703288e+14	8.274235e+03	7.211784e+03	3.306292e+03	0	5.279807e-04
7.900000e+08	2.166880e+12	0.000000e+00	4.178082e-01	6.889459e+13	3.894833e+14	1.695279e+14	8.257957e+03	7.205031e+03	3.303196e+03	0	5.241033e-04
8.000000e+08	2.120059e+12	0.000000e+00	4.178082e-01	6.772520e+13	3.873718e+14	1.687325e+14	8.241959e+03	7.198284e+03	3.300103e+03	0	5.203010e-04
8.100000e+08	2.074793e+12	0.000000e+00	4.178082e-01	6.659410e+13	3.852707e+14	1.679426e+14	8.226231e+03	7.191543e+03	3.297013e+03	0	5.165712e-04
8.200000e+08	2.031009e+12	0.000000e+00	4.178082e-01	6.549955e+13	3.831803e+14	1.671582e+14	8.210764e+03	7.184810e+03	3.293926e+03	0	5.129117e-04
8.300000e+08	1.988641e+12	0.000000e+00	4.178082e-01	6.443991e+13	3.811013e+14	1.663792e+14	8.195549e+03	7.178087e+03	3.290843e+03	0	5.093200e-04
8.400000e+08	1.947626e+12	0.000000e+00	4.178082e-01	6.341364e+13	3.790339e+14	1.656056e+14	8.180579e+03	7.171374e+03	3.287766e+03	0	5.057942e-04
8.500000e+08	1.907904e+12	0.000000e+00	4.178082e-01	6.241927e+13	3.769783e+14	1.648373e+14	8.165847e+03	7.164673e+03	3.284694e+03	0	5.023320e-04
8.600000e+08	1.869420e+12	0.000000e+00	4.178082e-01	6.145542e+13	3.749349e+14	1.640743e+14	8.151343e+03	7.157984e+03	3.281627e+03	0	4.989315e-04
8.700000e+08	1.832119e+12	0.000000e+00	4.178082e-01	6.052078e+13	3.729040e+14	1.633166e+14	8.137063e+03	7.151310e+03	3.278568e+03	0	4.955908e-04
8.800000e+08	1.795952e+12	0.000000e+00	4.178082e-01	5.961410e+13	3.708856e+14	1.625641e+14	8.122998e+03	7.144651e+03	3.275515e+03	0	4.923080e-04
8.900000e+08	1.760870e+12	0.000000e+00	4.178082e-01	5.873423e+13	3.688801e+14	1.618167e+14	8.109143e+03	7.138008e+03	3.272469e+03	0	4.890813e-04
9.000000e+08	1.726828e+12	0.000000e+00	4.178082e-01	5.788004e+13	3.668877e+14	1.610745e+14	8.095491e+03	7.131382e+03	3.269431e+03	0	4.859091e-04
9.100000e+08	1.693784e+12	0.000000e+00	4.178082e-01	5.705047e+13	3.649084e+14	1.603374e+14	8.082036e+03	7.124773e+03	3.266402e+03	0	4.827897e-04
9.200000e+08	1.661697e+12	0.000000e+00	4.178082e-01	5.624453e+13	3.629424e+14	1.596053e+14	8.068773e+03	7.118183e+03	3.263380e+03	0	4.797216e-04
9.300000e+08	1.630527e+12	0.000000e+00	4.178082e-01	5.546127e+13	3.609898e+14	1.588783e+14	8.055696e+03	7.111611e+03	3.260367e+03	0	4.767031e-04
9.400000e+08	1.600239e+12	0.000000e+00	4.178082e-01	5.469977e+13	3.590509e+14	1.581561e+14	8.042801e+03	7.105060e+03	3.257364e+03	0	4.737329e-04
9.500000e+08	1.570796e+12	0.000000e+00	4.178082e-01	5.395920e+13	3.571255e+14	1.574390e+14	8.030081e+03	7.098528e+03	3.254369e+03	0	4.708096e-04
9.600000e+08	1.542167e+12	0.000000e+00	4.178082e-01	5.323872e+13	3.552139e+14	1.567267e+14	8.017533e+03	7.092017e+03	3.251384e+03	0	4.679317e-04
9.700000e+08	1.514320e+12	0.000000e+00	4.178082e-01	5.253756e+13	3.533160e+14	1.560193e+14	8.005151e+03	7.085528e+03	3.248409e+03	0	4.650980e-04
9.800000e+08	1.487223e+12	0.000000e+00	4.178082e-01	5.185498e+13	3.514318e+14	1.553166e+14	7.992932e+03	7.079060e+03	3.245444e+03	0	4.623073e-04
9.900000e+08	1.460850e+12	0.000000e+00	4.178082e-01	5.119028e+13	3.495615e+14	1.546188e+14	7.980870e+03	7.072615e+03	3.242489e+03	0	4.595582e-04
1.000000e+09	1.435172e+12	0.000000e+00	4.178082e-01	5.054279e+13	3.477051e+14	1.539257e+14	7.968962e+03	7.066192e+03	3.239544e+03	0	4.568497e-04
1.010000e+09	1.410164e+12	0.000000e+00	4.178082e-01	4.991188e+13	3.458626e+14	1.532373e+14	7.957204e+03	7.059792e+03	3.236610e+03	0	4.541806e-04
1.020000e+09	1.385801e+12	0.000000e+00	4.178082e-01	4.929692e+13	3.440339e+14	1.525535e+14	7.945592e+03	7.053415e+03	3.233687e+03	0	4.515498e-04
1.030000e+09	1.362059e+12	0.000000e+00	4.178082e-01	4.869735e+13	3.422190e+14	1.518744e+14	7.934122e+03	7.047062e+03	3.230774e+03	0	4.489562e-04
1.040000e+09	1.338916e+12	0.000000e+00	4.178082e-01	4.811260e+13	3.404180e+14	1.511999e+14	7.922791e+03	7.040732e+03	3.227872e+03	0	4.463989e-04
1.050000e+09	1.316351e+12	0.000000e+00	4.178082e-01	4.754214e+13	3.386308e+14	1.505299e+14	7.911595e+03	7.034427e+03	3.224982e+03	0	4.438769e-04
1.060000e+09	1.294342e+12	0.000000e+00	4.178082e-01	4.698548e+13	3.368574e+14	1.498645e+14	7.900531e+03	7.028146e+03	3.222102e+03	0	4.413892e-04
1.070000e+09	1.272870e+12	0.000000e+00	4.178082e-01	4.644213e+13	3.350977e+14	1.492035e+14	7.889596e+03	7.021890e+03	3.219234e+03	0	4.389348e-04
1.080000e+09	1.251917e+12	0.000000e+00	4.178082e-01	4.591163e+13	3.333517e+14	1.485470e+14	7.878787e+03	7.015658e+03	3.216377e+03	0	4.365130e-04
1.090000e+09	1.231464e+12	0.000000e+00	4.178082e-01	4.539353e+13	3.316194e+14	1.478949e+14	7.868100e+03	7.009451e+03	3.213531e+03	0	4.341228e-04
1.100000e+09	1.211495e+12	0.000000e+00	4.178082e-01	4.488742e+13	3.299006e+14	1.472471e+14	7.857534e+03	7.003270e+03	3.210697e+03	0	4.317634e-04
1.110000e+09	1.191993e+12	0.000000e+00	4.178082e-01	4.439289e+13	3.281953e+14	1.466038e+14	7.847085e+03	6.997113e+03	3.207875e+03	0	4.294341e-04
1.120000e+09	1.172941e+12	0.000000e+00	4.178082e-01	4.390955e+13	3.265036e+14	1.459647e+14	7.836750e+03	6.990981e+03	3.205064e+03	0	4.271340e-04
1.130000e+09	1.154327e+12	0.000000e+00	4.178082e-01	4.343703e+13	3.248252e+14	1.453299e+14	7.826527e+03	6.984875e+03	3.202264e+03	0	4.248623e-04
1.140000e+09	1.136134e+12	0.000000e+00	4.178082e-01	4.297498e+13	3.231601e+14	1.446993e+14	7.816414e+03	6.978795e+03	3.199477e+03	0	4.226185e-04
1.150000e+09	1.118349e+12	0.000000e+00	4.178082e-01	4.252306e+13	3.215083e+14	1.440730e+14	7.806407e+03	6.972740e+03	3.196701e+03	0	4.204016e-04
1.160000e+09	1.100958e+12	0.000000e+00	4.178082e-01	4.208094e+13	3.198696e+14	1.434508e+14	7.796505e+03	6.966710e+03	3.193936e+03	0	4.182112e-04
1.170000e+09	1.083950e+12	0.000000e+00	4.178082e-01	4.164831e+13	3.182441e+14	1.428328e+14	7.786706e+03	6.960706e+03	3.191184e+03	0	4.160464e-04
1.180000e+09	1.067312e+12	0.000000e+00	4.178082e-01	4.122486e+13	3.166315e+14	1.422189e+14	7.777007e+03	6.954727e+03	3.188443e+03	0	4.139067e-04
1.190000e+09	1.051033e+12	0.000000e+00	4.178082e-01	4.081032e+13	3.150318e+14	1.416091e+14	7.767406e+03	6.948774e+03	3.185714e+03	0	4.117915e-04
1.200000e+09	1.035100e+12	0.000000e+00	4.178082e-01	4.040441e+13	3.134450e+14	1.410033e+14	7.757901e+03	6.942847e+03	3.182996e+03	0	4.097001e-04
1.210000e+09	1.019504e+12	0.000000e+00	4.178082e-01	4.000685e+13	3.118708e+14	1.404015e+14	7.748490e+03	6.936945e+03	3.180291e+03	0	4.076320e-04
1.220000e+09	1.004233e+12	0.000000e+00	4.178082e-01	3.961739e+13	3.103093e+14	1.398037e+14	7.739171e+03	6.931069e+03	3.177597e+03	0	4.055865e-04
1.230000e+09	9.892788e+11	0.000000e+00	4.178082e-01	3.923580e+13	3.087604e+14	1.392099e+14	7.729943e+03	6.925219e+03	3.174914e+03	0	4.035632e-04
1.240000e+09	9.746310e+11	0.000000e+00	4.178082e-01	3.886183e+13	3.072238e+14	1.386200e+14	7.720803e+03	6.919394e+03	3.172244e+03	0	4.015615e-04
1.250000e+09	9.602805e+11	0.000000e+00	4.178082e-01	3.849525e+13	3.056997e+14	1.380340e+14	7.711749e+03	6.913594e+03	3.169585e+03	0	3.995809e-04
1.260000e+09	9.462184e+11	0.000000e+00	4.178082e-01	3.813585e+13	3.041877e+14	1.374519e+14	7.702781e+03	6.907820e+03	3.166938e+03	0	3.976208e-04
1.270000e+09	9.324364e+11	0.000000e+00	4.178082e-01	3.778342e+13	3.026879e+14	1.368736e+14	7.693896e+03	6.902072e+03	3.164303e+03	0	3.956809e-04
1.280000e+09	9.189262e+11	0.000000e+00	4.178082e-01	3.743776e+13	3.012002e+14	1.362991e+14	7.685092e+03	6.896348e+03	3.161679e+03	0	3.937606e-04
1.290000e+09	9.056799e+11	0.000000e+00	4.178082e-01	3.709867e+13	2.997244e+14	1.357284e+14	7.676369e+03	6.890650e+03	3.159066e+03	0	3.918594e-04
1.300000e+09	8.926900e+11	0.000000e+00	4.178082e-01	3.676597e+13	2.982605e+14	1.351614e+14	7.667724e+03	6.884978e+03	3.156466e+03	0	3.899769e-04
1.310000e+09	8.799492e+11	0.000000e+00	4.178082e-01	3.643947e+13	2.968082e+14	1.345981e+14	7.659157e+03	6.879330e+03	3.153876e+03	0	3.881127e-04
1.320000e+09	8.674504e+11	0.000000e+00	4.178082e-01	3.611900e+13	2.953677e+14	1.340386e+14	7.650665e+03	6.873707e+03	3.151299e+03	0	3.862664e-04
1.330000e+09	8.551868e+11	0.000000e+00	4.178082e-01	3.580440e+13	2.939386e+14	1.334826e+14	7.642247e+03	6.868110e+03	3.148732e+03	0	3.844374e-04
1.340000e+09	8.431520e+11	0.000000e+00	4.178082e-01	3.549550e+13	2.925210e+14	1.329304e+14	7.633903e+03	6.862537e+03	3.146178e+03	0	3.826255e-04
1.350000e+09	8.313396e+11	0.000000e+00	4.178082e-01	3.519215e+13	2.911147e+14	1.323817e+14	7.625630e+03	6.856989e+03	3.143634e+03	0	3.808303e-04
1.360000e+09	8.197436e+11	0.000000e+00	4.178082e-01	3.489419e+13	2.897198e+14	1.318366e+14	7.617427e+03	6.851466e+03	3.141102e+03	0	3.790513e-04
