#t		Qconv[W]	Ri[Rp]		R*[Rp]		Qc[W]		Qm[W]		Qr[W]		Tcmb[K]		Tl[K]		Tup[K]		RiFlag		Bs[T]
0.000000e+00	2.332274e+13	0.000000e+00	4.206898e-01	5.438848e+14	7.149250e+13	2.831310e+14	1.146876e+04	4.274611e+03	2.567105e+03	0	1.147193e-03
1.000000e+07	2.230119e+13	0.000000e+00	4.206898e-01	5.210481e+14	7.461783e+13	2.815622e+14	1.135953e+04	4.301262e+03	2.583110e+03	0	1.130194e-03
2.000000e+07	2.134968e+13	0.000000e+00	4.206898e-01	4.997695e+14	7.772687e+13	2.800052e+14	1.125481e+04	4.326939e+03	2.598530e+03	0	1.113886e-03
3.000000e+07	2.046159e+13	0.000000e+00	4.206898e-01	4.799023e+14	8.081771e+13	2.784598e+14	1.115430e+04	4.351698e+03	2.613399e+03	0	1.098221e-03
4.000000e+07	1.963110e+13	0.000000e+00	4.206898e-01	4.613171e+14	8.388857e+13	2.769260e+14	1.105773e+04	4.375591e+03	2.627748e+03	0	1.083158e-03
5.000000e+07	1.885305e+13	0.000000e+00	4.206898e-01	4.438996e+14	8.693785e+13	2.754036e+14	1.096484e+04	4.398664e+03	2.641604e+03	0	1.068655e-03
6.000000e+07	1.812289e+13	0.000000e+00	4.206898e-01	4.275482e+14	8.996400e+13	2.738925e+14	1.087540e+04	4.420959e+03	2.654994e+03	0	1.054676e-03
7.000000e+07	1.743652e+13	0.000000e+00	4.206898e-01	4.121725e+14	9.296565e+13	2.723927e+14	1.078922e+04	4.442516e+03	2.667940e+03	0	1.041190e-03
8.000000e+07	1.679034e+13	0.000000e+00	4.206898e-01	3.976918e+14	9.594148e+13	2.709041e+14	1.070609e+04	4.463371e+03	2.680463e+03	0	1.028166e-03
9.000000e+07	1.618108e+13	0.000000e+00	4.206898e-01	3.840339e+14	9.889031e+13	2.694265e+14	1.062584e+04	4.483555e+03	2.692585e+03	0	1.015576e-03
1.000000e+08	1.560582e+13	0.000000e+00	4.206898e-01	3.711339e+14	1.018110e+14	2.679599e+14	1.054832e+04	4.503101e+03	2.704323e+03	0	1.003396e-03
1.100000e+08	1.506195e+13	0.000000e+00	4.206898e-01	3.589335e+14	1.047024e+14	2.665041e+14	1.047336e+04	4.522035e+03	2.715694e+03	0	9.916015e-04
1.200000e+08	1.454709e+13	0.000000e+00	4.206898e-01	3.473799e+14	1.075637e+14	2.650592e+14	1.040084e+04	4.540385e+03	2.726714e+03	0	9.801717e-04
1.300000e+08	1.405910e+13	0.000000e+00	4.206898e-01	3.364257e+14	1.103939e+14	2.636250e+14	1.033063e+04	4.558174e+03	2.737397e+03	0	9.690866e-04
1.400000e+08	1.359603e+13	0.000000e+00	4.206898e-01	3.260274e+14	1.131922e+14	2.622013e+14	1.026260e+04	4.575425e+03	2.747757e+03	0	9.583281e-04
1.500000e+08	1.315614e+13	0.000000e+00	4.206898e-01	3.161461e+14	1.159579e+14	2.607882e+14	1.019665e+04	4.592160e+03	2.757807e+03	0	9.478790e-04
1.600000e+08	1.273780e+13	0.000000e+00	4.206898e-01	3.067460e+14	1.186901e+14	2.593856e+14	1.013268e+04	4.608398e+03	2.767559e+03	0	9.377238e-04
1.700000e+08	1.233956e+13	0.000000e+00	4.206898e-01	2.977944e+14	1.213883e+14	2.579933e+14	1.007059e+04	4.624158e+03	2.777024e+03	0	9.278478e-04
1.800000e+08	1.196009e+13	0.000000e+00	4.206898e-01	2.892618e+14	1.240518e+14	2.566112e+14	1.001029e+04	4.639457e+03	2.786212e+03	0	9.182373e-04
1.900000e+08	1.159815e+13	0.000000e+00	4.206898e-01	2.811209e+14	1.266800e+14	2.552393e+14	9.951697e+03	4.654312e+03	2.795133e+03	0	9.088797e-04
2.000000e+08	1.125264e+13	0.000000e+00	4.206898e-01	2.733466e+14	1.292726e+14	2.538776e+14	9.894739e+03	4.668738e+03	2.803796e+03	0	8.997632e-04
2.100000e+08	1.092250e+13	0.000000e+00	4.206898e-01	2.659161e+14	1.318289e+14	2.525258e+14	9.839340e+03	4.682750e+03	2.812211e+03	0	8.908766e-04
2.200000e+08	1.060681e+13	0.000000e+00	4.206898e-01	2.588083e+14	1.343486e+14	2.511840e+14	9.785432e+03	4.696362e+03	2.820386e+03	0	8.822096e-04
2.300000e+08	1.030469e+13	0.000000e+00	4.206898e-01	2.520037e+14	1.368313e+14	2.498520e+14	9.732951e+03	4.709586e+03	2.828327e+03	0	8.737525e-04
2.400000e+08	1.001533e+13	0.000000e+00	4.206898e-01	2.454845e+14	1.392767e+14	2.485298e+14	9.681837e+03	4.722435e+03	2.836044e+03	0	8.654963e-04
2.500000e+08	9.737986e+12	0.000000e+00	4.206898e-01	2.392339e+14	1.416844e+14	2.472172e+14	9.632032e+03	4.734922e+03	2.843543e+03	0	8.574323e-04
2.600000e+08	9.471972e+12	0.000000e+00	4.206898e-01	2.332368e+14	1.440543e+14	2.459143e+14	9.583484e+03	4.747056e+03	2.850830e+03	0	8.495526e-04
2.700000e+08	9.216648e+12	0.000000e+00	4.206898e-01	2.274787e+14	1.463860e+14	2.446209e+14	9.536141e+03	4.758849e+03	2.857912e+03	0	8.418495e-04
2.800000e+08	8.971423e+12	0.000000e+00	4.206898e-01	2.219467e+14	1.486795e+14	2.433369e+14	9.489957e+03	4.770310e+03	2.864795e+03	0	8.343160e-04
2.900000e+08	8.735747e+12	0.000000e+00	4.206898e-01	2.166283e+14	1.509345e+14	2.420624e+14	9.444886e+03	4.781451e+03	2.871485e+03	0	8.269453e-04
3.000000e+08	8.509108e+12	0.000000e+00	4.206898e-01	2.115122e+14	1.531509e+14	2.407971e+14	9.400886e+03	4.792279e+03	2.877988e+03	0	8.197312e-04
3.100000e+08	8.291029e+12	0.000000e+00	4.206898e-01	2.065878e+14	1.553286e+14	2.395410e+14	9.357917e+03	4.802803e+03	2.884309e+03	0	8.126676e-04
3.200000e+08	8.081066e+12	0.000000e+00	4.206898e-01	2.018451e+14	1.574676e+14	2.382940e+14	9.315939e+03	4.813033e+03	2.890452e+03	0	8.057488e-04
3.300000e+08	7.878805e+12	0.000000e+00	4.206898e-01	1.972749e+14	1.595678e+14	2.370562e+14	9.274917e+03	4.822976e+03	2.896423e+03	0	7.989696e-04
3.400000e+08	7.683858e+12	0.000000e+00	4.206898e-01	1.928686e+14	1.616293e+14	2.358273e+14	9.234817e+03	4.832640e+03	2.902227e+03	0	7.923248e-04
3.500000e+08	7.495862e+12	0.000000e+00	4.206898e-01	1.886180e+14	1.636520e+14	2.346073e+14	9.195605e+03	4.842032e+03	2.907868e+03	0	7.858096e-04
3.600000e+08	7.314478e+12	0.000000e+00	4.206898e-01	1.845156e+14	1.656359e+14	2.333962e+14	9.157250e+03	4.851161e+03	2.913350e+03	0	7.794194e-04
3.700000e+08	7.139387e+12	0.000000e+00	4.206898e-01	1.805543e+14	1.675812e+14	2.321939e+14	9.119724e+03	4.860031e+03	2.918677e+03	0	7.731500e-04
3.800000e+08	6.970292e+12	0.000000e+00	4.206898e-01	1.767274e+14	1.694880e+14	2.310002e+14	9.082996e+03	4.868651e+03	2.923854e+03	0	7.669972e-04
3.900000e+08	6.806912e+12	0.000000e+00	4.206898e-01	1.730287e+14	1.713562e+14	2.298152e+14	9.047042e+03	4.877027e+03	2.928884e+03	0	7.609571e-04
4.000000e+08	6.648982e+12	0.000000e+00	4.206898e-01	1.694523e+14	1.731862e+14	2.286387e+14	9.011834e+03	4.885165e+03	2.933771e+03	0	7.550259e-04
4.100000e+08	6.496256e+12	0.000000e+00	4.206898e-01	1.659925e+14	1.749780e+14	2.274707e+14	8.977349e+03	4.893071e+03	2.938518e+03	0	7.492001e-04
4.200000e+08	6.348500e+12	0.000000e+00	4.206898e-01	1.626443e+14	1.767318e+14	2.263112e+14	8.943563e+03	4.900750e+03	2.943130e+03	0	7.434764e-04
4.300000e+08	6.205494e+12	0.000000e+00	4.206898e-01	1.594028e+14	1.784478e+14	2.251600e+14	8.910454e+03	4.908208e+03	2.947609e+03	0	7.378514e-04
4.400000e+08	6.067030e+12	0.000000e+00	4.206898e-01	1.562631e+14	1.801262e+14	2.240170e+14	8.878000e+03	4.915452e+03	2.951959e+03	0	7.323221e-04
4.500000e+08	5.932912e+12	0.000000e+00	4.206898e-01	1.532211e+14	1.817673e+14	2.228823e+14	8.846181e+03	4.922485e+03	2.956183e+03	0	7.268856e-04
4.600000e+08	5.802955e+12	0.000000e+00	4.206898e-01	1.502725e+14	1.833712e+14	2.217557e+14	8.814977e+03	4.929313e+03	2.960284e+03	0	7.215391e-04
4.700000e+08	5.676984e+12	0.000000e+00	4.206898e-01	1.474135e+14	1.849382e+14	2.206373e+14	8.784370e+03	4.935940e+03	2.964264e+03	0	7.162798e-04
4.800000e+08	5.554834e+12	0.000000e+00	4.206898e-01	1.446402e+14	1.864687e+14	2.195268e+14	8.754341e+03	4.942373e+03	2.968127e+03	0	7.111051e-04
4.900000e+08	5.436348e+12	0.000000e+00	4.206898e-01	1.419494e+14	1.879628e+14	2.184243e+14	8.724873e+03	4.948615e+03	2.971875e+03	0	7.060127e-04
5.000000e+08	5.321378e+12	0.000000e+00	4.206898e-01	1.393375e+14	1.894209e+14	2.173296e+14	8.695950e+03	4.954670e+03	2.975512e+03	0	7.010002e-04
5.100000e+08	5.209781e+12	0.000000e+00	4.206898e-01	1.368015e+14	1.908432e+14	2.162428e+14	8.667556e+03	4.960543e+03	2.979039e+03	0	6.960653e-04
5.200000e+08	5.101426e+12	0.000000e+00	4.206898e-01	1.343383e+14	1.922302e+14	2.151637e+14	8.639676e+03	4.966239e+03	2.982460e+03	0	6.912057e-04
5.300000e+08	4.996185e+12	0.000000e+00	4.206898e-01	1.319452e+14	1.935820e+14	2.140924e+14	8.612294e+03	4.971761e+03	2.985776e+03	0	6.864195e-04
5.400000e+08	4.893937e+12	0.000000e+00	4.206898e-01	1.296195e+14	1.948991e+14	2.130286e+14	8.585397e+03	4.977113e+03	2.988990e+03	0	6.817046e-04
5.500000e+08	4.794569e+12	0.000000e+00	4.206898e-01	1.273584e+14	1.961818e+14	2.119725e+14	8.558972e+03	4.982300e+03	2.992105e+03	0	6.770592e-04
5.600000e+08	4.697970e+12	0.000000e+00	4.206898e-01	1.251598e+14	1.974305e+14	2.109238e+14	8.533005e+03	4.987324e+03	2.995122e+03	0	6.724813e-04
5.700000e+08	4.604038e+12	0.000000e+00	4.206898e-01	1.230211e+14	1.986454e+14	2.098826e+14	8.507483e+03	4.992190e+03	2.998045e+03	0	6.679692e-04
5.800000e+08	4.512674e+12	0.000000e+00	4.206898e-01	1.209402e+14	1.998271e+14	2.088488e+14	8.482395e+03	4.996902e+03	3.000874e+03	0	6.635211e-04
5.900000e+08	4.423783e+12	0.000000e+00	4.206898e-01	1.189151e+14	2.009758e+14	2.078223e+14	8.457729e+03	5.001462e+03	3.003612e+03	0	6.591355e-04
6.000000e+08	4.337276e+12	0.000000e+00	4.206898e-01	1.169436e+14	2.020920e+14	2.068030e+14	8.433473e+03	5.005874e+03	3.006262e+03	0	6.548107e-04
6.100000e+08	4.253067e+12	0.000000e+00	4.206898e-01	1.150238e+14	2.031759e+14	2.057910e+14	8.409618e+03	5.010141e+03	3.008825e+03	0	6.505453e-04
6.200000e+08	4.171075e+12	0.000000e+00	4.206898e-01	1.131541e+14	2.042281e+14	2.047861e+14	8.386152e+03	5.014267e+03	3.011303e+03	0	6.463376e-04
6.300000e+08	4.091221e+12	0.000000e+00	4.206898e-01	1.113324e+14	2.052489e+14	2.037884e+14	8.363065e+03	5.018255e+03	3.013698e+03	0	6.421864e-04
6.400000e+08	4.013432e+12	0.000000e+00	4.206898e-01	1.095574e+14	2.062388e+14	2.027976e+14	8.340348e+03	5.022108e+03	3.016011e+03	0	6.380902e-04
6.500000e+08	3.937636e+12	0.000000e+00	4.206898e-01	1.078272e+14	2.071980e+14	2.018139e+14	8.317991e+03	5.025828e+03	3.018246e+03	0	6.340478e-04
6.600000e+08	3.863765e+12	0.000000e+00	4.206898e-01	1.061404e+14	2.081271e+14	2.008370e+14	8.295986e+03	5.029419e+03	3.020402e+03	0	6.300577e-04
6.700000e+08	3.791753e+12	0.000000e+00	4.206898e-01	1.044956e+14	2.090264e+14	1.998671e+14	8.274323e+03	5.032884e+03	3.022483e+03	0	6.261189e-04
6.800000e+08	3.721539e+12	0.000000e+00	4.206898e-01	1.028913e+14	2.098963e+14	1.989039e+14	8.252994e+03	5.036225e+03	3.024489e+03	0	6.222301e-04
6.900000e+08	3.653063e+12	0.000000e+00	4.206898e-01	1.013262e+14	2.107373e+14	1.979475e+14	8.231990e+03	5.039445e+03	3.026423e+03	0	6.183901e-04
7.000000e+08	3.586267e+12	0.000000e+00	4.206898e-01	9.979904e+13	2.115498e+14	1.969978e+14	8.211305e+03	5.042546e+03	3.028286e+03	0	6.145978e-04
7.100000e+08	3.521097e+12	0.000000e+00	4.206898e-01	9.830854e+13	2.123341e+14	1.960548e+14	8.190929e+03	5.045532e+03	3.030079e+03	0	6.108522e-04
7.200000e+08	3.457501e+12	0.000000e+00	4.206898e-01	9.685356e+13	2.130907e+14	1.951183e+14	8.170857e+03	5.048404e+03	3.031804e+03	0	6.071522e-04
7.300000e+08	3.395427e+12	0.000000e+00	4.206898e-01	9.543294e+13	2.138201e+14	1.941884e+14	8.151080e+03	5.051166e+03	3.033462e+03	0	6.034967e-04
7.400000e+08	3.334827e+12	0.000000e+00	4.206898e-01	9.404562e+13	2.145226e+14	1.932650e+14	8.131592e+03	5.053819e+03	3.035056e+03	0	5.998849e-04
7.500000e+08	3.275656e+12	0.000000e+00	4.206898e-01	9.269055e+13	2.151986e+14	1.923480e+14	8.112386e+03	5.056367e+03	3.036585e+03	0	5.963156e-04
7.600000e+08	3.217867e+12	0.000000e+00	4.206898e-01	9.136672e+13	2.158487e+14	1.914374e+14	8.093455e+03	5.058810e+03	3.038053e+03	0	5.927881e-04
7.700000e+08	3.161420e+12	0.000000e+00	4.206898e-01	9.007317e+13	2.164730e+14	1.905331e+14	8.074793e+03	5.061152e+03	3.039459e+03	0	5.893015e-04
7.800000e+08	3.106272e+12	0.000000e+00	4.206898e-01	8.880899e+13	2.170722e+14	1.896352e+14	8.056394e+03	5.063395e+03	3.040806e+03	0	5.858547e-04
7.900000e+08	3.052383e+12	0.000000e+00	4.206898e-01	8.757327e+13	2.176466e+14	1.887434e+14	8.038252e+03	5.065541e+03	3.042095e+03	0	5.824471e-04
8.000000e+08	2.999717e+12	0.000000e+00	4.206898e-01	8.636516e+13	2.181966e+14	1.878579e+14	8.020362e+03	5.067591e+03	3.043326e+03	0	5.790777e-04
8.100000e+08	2.948235e+12	0.000000e+00	4.206898e-01	8.518385e+13	2.187226e+14	1.869785e+14	8.002717e+03	5.069549e+03	3.044502e+03	0	5.757459e-04
8.200000e+08	2.897903e+12	0.000000e+00	4.206898e-01	8.402853e+13	2.192251e+14	1.861051e+14	7.985313e+03	5.071415e+03	3.045623e+03	0	5.724507e-04
8.300000e+08	2.848687e+12	0.000000e+00	4.206898e-01	8.289846e+13	2.197043e+14	1.852378e+14	7.968143e+03	5.073193e+03	3.046690e+03	0	5.691915e-04
8.400000e+08	2.800555e+12	0.000000e+00	4.206898e-01	8.179288e+13	2.201608e+14	1.843765e+14	7.951203e+03	5.074883e+03	3.047705e+03	0	5.659675e-04
8.500000e+08	2.753474e+12	0.000000e+00	4.206898e-01	8.071109e+13	2.205950e+14	1.835212e+14	7.934489e+03	5.076488e+03	3.048669e+03	0	5.627780e-04
8.600000e+08	2.707414e+12	0.000000e+00	4.206898e-01	7.965242e+13	2.210071e+14	1.826717e+14	7.917994e+03	5.078010e+03	3.049583e+03	0	5.596223e-04
8.700000e+08	2.662347e+12	0.000000e+00	4.206898e-01	7.861620e+13	2.213978e+14	1.818281e+14	7.901715e+03	5.079450e+03	3.050448e+03	0	5.564998e-04
8.800000e+08	2.618243e+12	0.000000e+00	4.206898e-01	7.760180e+13	2.217672e+14	1.809903e+14	7.885646e+03	5.080810e+03	3.051265e+03	0	5.534097e-04
8.900000e+08	2.575076e+12	0.000000e+00	4.206898e-01	7.660860e+13	2.221158e+14	1.801582e+14	7.869784e+03	5.082092e+03	3.052035e+03	0	5.503515e-04
9.000000e+08	2.532820e+12	0.000000e+00	4.206898e-01	7.563602e+13	2.224440e+14	1.793319e+14	7.854125e+03	5.083298e+03	3.052759e+03	0	5.473245e-04
9.100000e+08	2.491449e+12	0.000000e+00	4.206898e-01	7.468349e+13	2.227521e+14	1.785112e+14	7.838663e+03	5.084429e+03	3.053438e+03	0	5.443281e-04
9.200000e+08	2.450938e+12	0.000000e+00	4.206898e-01	7.375046e+13	2.230406e+14	1.776962e+14	7.823395e+03	5.085486e+03	3.054073e+03	0	5.413618e-04
9.300000e+08	2.411265e+12	0.000000e+00	4.206898e-01	7.283638e+13	2.233098e+14	1.768867e+14	7.808317e+03	5.086472e+03	3.054665e+03	0	5.384248e-04
9.400000e+08	2.372406e+12	0.000000e+00	4.206898e-01	7.194076e+13	2.235602e+14	1.760827e+14	7.793426e+03	5.087388e+03	3.055215e+03	0	5.355168e-04
9.500000e+08	2.334339e+12	0.000000e+00	4.206898e-01	7.106310e+13	2.237919e+14	1.752843e+14	7.778716e+03	5.088235e+03	3.055724e+03	0	5.326371e-04
9.600000e+08	2.297043e+12	0.000000e+00	4.206898e-01	7.020291e+13	2.240055e+14	1.744912e+14	7.764185e+03	5.089016e+03	3.056193e+03	0	5.297852e-04
9.700000e+08	2.260497e+12	0.000000e+00	4.206898e-01	6.935974e+13	2.242012e+14	1.737036e+14	7.749830e+03	5.089730e+03	3.056622e+03	0	5.269605e-04
9.800000e+08	2.224682e+12	0.000000e+00	4.206898e-01	6.853312e+13	2.243794e+14	1.729214e+14	7.735646e+03	5.090381e+03	3.057012e+03	0	5.241627e-04
9.900000e+08	2.189578e+12	0.000000e+00	4.206898e-01	6.772264e+13	2.245405e+14	1.721444e+14	7.721631e+03	5.090968e+03	3.057365e+03	0	5.213911e-04
1.000000e+09	2.155166e+12	0.000000e+00	4.206898e-01	6.692787e+13	2.246849e+14	1.713728e+14	7.707781e+03	5.091494e+03	3.057681e+03	0	5.186452e-04
1.010000e+09	2.121430e+12	0.000000e+00	4.206898e-01	6.614841e+13	2.248127e+14	1.706063e+14	7.694092e+03	5.091960e+03	3.057961e+03	0	5.159247e-04
1.020000e+09	2.088350e+12	0.000000e+00	4.206898e-01	6.538385e+13	2.249245e+14	1.698451e+14	7.680563e+03	5.092367e+03	3.058205e+03	0	5.132290e-04
1.030000e+09	2.055911e+12	0.000000e+00	4.206898e-01	6.463383e+13	2.250205e+14	1.690890e+14	7.667189e+03	5.092717e+03	3.058415e+03	0	5.105577e-04
1.040000e+09	2.024095e+12	0.000000e+00	4.206898e-01	6.389798e+13	2.251011e+14	1.683380e+14	7.653968e+03	5.093010e+03	3.058591e+03	0	5.079104e-04
1.050000e+09	1.992888e+12	0.000000e+00	4.206898e-01	6.317593e+13	2.251665e+14	1.675921e+14	7.640897e+03	5.093248e+03	3.058734e+03	0	5.052866e-04
1.060000e+09	1.962273e+12	0.000000e+00	4.206898e-01	6.246734e+13	2.252171e+14	1.668512e+14	7.627973e+03	5.093432e+03	3.058845e+03	0	5.026858e-04
1.070000e+09	1.932237e+12	0.000000e+00	4.206898e-01	6.177188e+13	2.252533e+14	1.661153e+14	7.615194e+03	5.093564e+03	3.058924e+03	0	5.001077e-04
1.080000e+09	1.902764e+12	0.000000e+00	4.206898e-01	6.108923e+13	2.252752e+14	1.653844e+14	7.602556e+03	5.093643e+03	3.058972e+03	0	4.975519e-04
1.090000e+09	1.873840e+12	0.000000e+00	4.206898e-01	6.041906e+13	2.252833e+14	1.646584e+14	7.590058e+03	5.093673e+03	3.058990e+03	0	4.950180e-04
1.100000e+09	1.845453e+12	0.000000e+00	4.206898e-01	5.976107e+13	2.252778e+14	1.639372e+14	7.577696e+03	5.093653e+03	3.058978e+03	0	4.925055e-04
1.110000e+09	1.817588e+12	0.000000e+00	4.206898e-01	5.911497e+13	2.252590e+14	1.632209e+14	7.565468e+03	5.093585e+03	3.058937e+03	0	4.900142e-04
1.120000e+09	1.790234e+12	0.000000e+00	4.206898e-01	5.848047e+13	2.252273e+14	1.625094e+14	7.553372e+03	5.093469e+03	3.058867e+03	0	4.875435e-04
1.130000e+09	1.763378e+12	0.000000e+00	4.206898e-01	5.785729e+13	2.251828e+14	1.618027e+14	7.541405e+03	5.093307e+03	3.058770e+03	0	4.850933e-04
1.140000e+09	1.737008e+12	0.000000e+00	4.206898e-01	5.724517e+13	2.251260e+14	1.611006e+14	7.529566e+03	5.093101e+03	3.058646e+03	0	4.826630e-04
1.150000e+09	1.711112e+12	0.000000e+00	4.206898e-01	5.664383e+13	2.250570e+14	1.604033e+14	7.517851e+03	5.092849e+03	3.058495e+03	0	4.802524e-04
1.160000e+09	1.685679e+12	0.000000e+00	4.206898e-01	5.605303e+13	2.249761e+14	1.597106e+14	7.506259e+03	5.092555e+03	3.058318e+03	0	4.778611e-04
1.170000e+09	1.660698e+12	0.000000e+00	4.206898e-01	5.547251e+13	2.248837e+14	1.590225e+14	7.494787e+03	5.092219e+03	3.058116e+03	0	4.754888e-04
1.180000e+09	1.636159e+12	0.000000e+00	4.206898e-01	5.490205e+13	2.247800e+14	1.583390e+14	7.483434e+03	5.091841e+03	3.057889e+03	0	4.731352e-04
1.190000e+09	1.612050e+12	0.000000e+00	4.206898e-01	5.434140e+13	2.246652e+14	1.576601e+14	7.472197e+03	5.091422e+03	3.057638e+03	0	4.707999e-04
1.200000e+09	1.588364e+12	0.000000e+00	4.206898e-01	5.379034e+13	2.245396e+14	1.569856e+14	7.461075e+03	5.090965e+03	3.057363e+03	0	4.684826e-04
1.210000e+09	1.565088e+12	0.000000e+00	4.206898e-01	5.324865e+13	2.244034e+14	1.563157e+14	7.450065e+03	5.090468e+03	3.057065e+03	0	4.661829e-04
1.220000e+09	1.542215e+12	0.000000e+00	4.206898e-01	5.271611e+13	2.242570e+14	1.556501e+14	7.439165e+03	5.089934e+03	3.056744e+03	0	4.639007e-04
1.230000e+09	1.519734e+12	0.000000e+00	4.206898e-01	5.219253e+13	2.241005e+14	1.549890e+14	7.428374e+03	5.089363e+03	3.056401e+03	0	4.616356e-04
1.240000e+09	1.497637e+12	0.000000e+00	4.206898e-01	5.167768e+13	2.239342e+14	1.543322e+14	7.417690e+03	5.088755e+03	3.056036e+03	0	4.593873e-04
1.250000e+09	1.475915e+12	0.000000e+00	4.206898e-01	5.117139e+13	2.237583e+14	1.536798e+14	7.407111e+03	5.088113e+03	3.055650e+03	0	4.571555e-04
1.260000e+09	1.454560e+12	0.000000e+00	4.206898e-01	5.067346e+13	2.235731e+14	1.530317e+14	7.396635e+03	5.087435e+03	3.055244e+03	0	4.549399e-04
1.270000e+09	1.433564e+12	0.000000e+00	4.206898e-01	5.018370e+13	2.233788e+14	1.523878e+14	7.386261e+03	5.086724e+03	3.054817e+03	0	4.527403e-04
1.280000e+09	1.412918e+12	0.000000e+00	4.206898e-01	4.970194e+13	2.231755e+14	1.517482e+14	7.375986e+03	5.085980e+03	3.054370e+03	0	4.505564e-04
1.290000e+09	1.392615e+12	0.000000e+00	4.206898e-01	4.922800e+13	2.229637e+14	1.511128e+14	7.365810e+03	5.085204e+03	3.053904e+03	0	4.483879e-04
1.300000e+09	1.372648e+12	0.000000e+00	4.206898e-01	4.876170e+13	2.227433e+14	1.504816e+14	7.355731e+03	5.084396e+03	3.053419e+03	0	4.462345e-04
1.310000e+09	1.353008e+12	0.000000e+00	4.206898e-01	4.830288e+13	2.225148e+14	1.498545e+14	7.345747e+03	5.083558e+03	3.052915e+03	0	4.440960e-04
1.320000e+09	1.333689e+12	0.000000e+00	4.206898e-01	4.785138e+13	2.222782e+14	1.492315e+14	7.335857e+03	5.082689e+03	3.052393e+03	0	4.419722e-04
1.330000e+09	1.314684e+12	0.000000e+00	4.206898e-01	4.740705e+13	2.220338e+14	1.486125e+14	7.326059e+03	5.081791e+03	3.051854e+03	0	4.398628e-04
1.340000e+09	1.295985e+12	0.000000e+00	4.206898e-01	4.696972e+13	2.217818e+14	1.479977e+14	7.316351e+03	5.080864e+03	3.051297e+03	0	4.377675e-04
1.350000e+09	1.277588e+12	0.000000e+00	4.206898e-01	4.653925e+13	2.215224e+14	1.473868e+14	7.306733e+03	5.079909e+03	3.050724e+03	0	4.356861e-04
1.360000e+09	1.259484e+12	0.000000e+00	4.206898e-01	4.611550e+13	2.212557e+14	1.467799e+14	7.297202e+03	5.078926e+03	3.050134e+03	0	4.336184e-04
