#t		Qconv[W]	Ri[Rp]		R*[Rp]		Qc[W]		Qm[W]		Qr[W]		Tcmb[K]		Tl[K]		Tup[K]		RiFlag		Bs[T]
0.000000e+00	4.975858e+13	0.000000e+00	4.166666e-01	9.834746e+14	6.392603e+13	3.798625e+14	1.465549e+04	4.866128e+03	2.716693e+03	0	1.471700e-03
1.000000e+07	4.753625e+13	0.000000e+00	4.166666e-01	9.418868e+14	6.735981e+13	3.777578e+14	1.451126e+04	4.901686e+03	2.736544e+03	0	1.449456e-03
2.000000e+07	4.546868e+13	0.000000e+00	4.166666e-01	9.031768e+14	7.080203e+13	3.756688e+14	1.437302e+04	4.935952e+03	2.755674e+03	0	1.428129e-03
3.000000e+07	4.354108e+13	0.000000e+00	4.166666e-01	8.670699e+14	7.424958e+13	3.735955e+14	1.424038e+04	4.969004e+03	2.774127e+03	0	1.407656e-03
4.000000e+07	4.174041e+13	0.000000e+00	4.166666e-01	8.333246e+14	7.769954e+13	3.715376e+14	1.411295e+04	5.000915e+03	2.791943e+03	0	1.387977e-03
5.000000e+07	4.005516e+13	0.000000e+00	4.166666e-01	8.017273e+14	8.114929e+13	3.694950e+14	1.399041e+04	5.031750e+03	2.809157e+03	0	1.369040e-03
6.000000e+07	3.847515e+13	0.000000e+00	4.166666e-01	7.720889e+14	8.459627e+13	3.674677e+14	1.387245e+04	5.061568e+03	2.825804e+03	0	1.350797e-03
7.000000e+07	3.699129e+13	0.000000e+00	4.166666e-01	7.442412e+14	8.803818e+13	3.654555e+14	1.375879e+04	5.090423e+03	2.841914e+03	0	1.333204e-03
8.000000e+07	3.559553e+13	0.000000e+00	4.166666e-01	7.180342e+14	9.147282e+13	3.634583e+14	1.364916e+04	5.118366e+03	2.857514e+03	0	1.316220e-03
9.000000e+07	3.428062e+13	0.000000e+00	4.166666e-01	6.933339e+14	9.489815e+13	3.614759e+14	1.354335e+04	5.145441e+03	2.872629e+03	0	1.299809e-03
1.000000e+08	3.304011e+13	0.000000e+00	4.166666e-01	6.700200e+14	9.831222e+13	3.595082e+14	1.344112e+04	5.171691e+03	2.887284e+03	0	1.283938e-03
1.100000e+08	3.186816e+13	0.000000e+00	4.166666e-01	6.479844e+14	1.017133e+14	3.575551e+14	1.334229e+04	5.197154e+03	2.901500e+03	0	1.268574e-03
1.200000e+08	3.075953e+13	0.000000e+00	4.166666e-01	6.271296e+14	1.050996e+14	3.556165e+14	1.324667e+04	5.221866e+03	2.915297e+03	0	1.253690e-03
1.300000e+08	2.970949e+13	0.000000e+00	4.166666e-01	6.073677e+14	1.084696e+14	3.536923e+14	1.315408e+04	5.245861e+03	2.928693e+03	0	1.239258e-03
1.400000e+08	2.871374e+13	0.000000e+00	4.166666e-01	5.886189e+14	1.118217e+14	3.517823e+14	1.306438e+04	5.269170e+03	2.941705e+03	0	1.225256e-03
1.500000e+08	2.776840e+13	0.000000e+00	4.166666e-01	5.708109e+14	1.151546e+14	3.498864e+14	1.297741e+04	5.291820e+03	2.954351e+03	0	1.211659e-03
1.600000e+08	2.686993e+13	0.000000e+00	4.166666e-01	5.538780e+14	1.184669e+14	3.480045e+14	1.289305e+04	5.313839e+03	2.966644e+03	0	1.198447e-03
1.700000e+08	2.601511e+13	0.000000e+00	4.166666e-01	5.377602e+14	1.217573e+14	3.461365e+14	1.281115e+04	5.335252e+03	2.978598e+03	0	1.185601e-03
1.800000e+08	2.520099e+13	0.000000e+00	4.166666e-01	5.224029e+14	1.250247e+14	3.442823e+14	1.273162e+04	5.356082e+03	2.990227e+03	0	1.173102e-03
1.900000e+08	2.442489e+13	0.000000e+00	4.166666e-01	5.077560e+14	1.282678e+14	3.424417e+14	1.265433e+04	5.376350e+03	3.001543e+03	0	1.160934e-03
2.000000e+08	2.368434e+13	0.000000e+00	4.166666e-01	4.937738e+14	1.314858e+14	3.406147e+14	1.257918e+04	5.396079e+03	3.012557e+03	0	1.149081e-03
2.100000e+08	2.297709e+13	0.000000e+00	4.166666e-01	4.804141e+14	1.346774e+14	3.388011e+14	1.250609e+04	5.415286e+03	3.023280e+03	0	1.137527e-03
2.200000e+08	2.230106e+13	0.000000e+00	4.166666e-01	4.676382e+14	1.378420e+14	3.370008e+14	1.243495e+04	5.433989e+03	3.033722e+03	0	1.126260e-03
2.300000e+08	2.165433e+13	0.000000e+00	4.166666e-01	4.554107e+14	1.409784e+14	3.352138e+14	1.236568e+04	5.452207e+03	3.043893e+03	0	1.115266e-03
2.400000e+08	2.103515e+13	0.000000e+00	4.166666e-01	4.436987e+14	1.440859e+14	3.334398e+14	1.229820e+04	5.469956e+03	3.053802e+03	0	1.104533e-03
2.500000e+08	2.044189e+13	0.000000e+00	4.166666e-01	4.324719e+14	1.471637e+14	3.316788e+14	1.223245e+04	5.487249e+03	3.063456e+03	0	1.094050e-03
2.600000e+08	1.987304e+13	0.000000e+00	4.166666e-01	4.217022e+14	1.502111e+14	3.299308e+14	1.216834e+04	5.504103e+03	3.072866e+03	0	1.083806e-03
2.700000e+08	1.932721e+13	0.000000e+00	4.166666e-01	4.113637e+14	1.532273e+14	3.281955e+14	1.210581e+04	5.520531e+03	3.082037e+03	0	1.073791e-03
2.800000e+08	1.880311e+13	0.000000e+00	4.166666e-01	4.014323e+14	1.562118e+14	3.264728e+14	1.204480e+04	5.536545e+03	3.090977e+03	0	1.063996e-03
2.900000e+08	1.829955e+13	0.000000e+00	4.166666e-01	3.918858e+14	1.591639e+14	3.247628e+14	1.198525e+04	5.552159e+03	3.099694e+03	0	1.054412e-03
3.000000e+08	1.781540e+13	0.000000e+00	4.166666e-01	3.827032e+14	1.620830e+14	3.230652e+14	1.192711e+04	5.567383e+03	3.108194e+03	0	1.045030e-03
3.100000e+08	1.734963e+13	0.000000e+00	4.166666e-01	3.738654e+14	1.649687e+14	3.213800e+14	1.187031e+04	5.582230e+03	3.116483e+03	0	1.035842e-03
3.200000e+08	1.690127e+13	0.000000e+00	4.166666e-01	3.653542e+14	1.678204e+14	3.197070e+14	1.181482e+04	5.596709e+03	3.124566e+03	0	1.026841e-03
3.300000e+08	1.646943e+13	0.000000e+00	4.166666e-01	3.571529e+14	1.706377e+14	3.180463e+14	1.176058e+04	5.610832e+03	3.132451e+03	0	1.018020e-03
3.400000e+08	1.605327e+13	0.000000e+00	4.166666e-01	3.492458e+14	1.734201e+14	3.163975e+14	1.170754e+04	5.624608e+03	3.140142e+03	0	1.009372e-03
3.500000e+08	1.565199e+13	0.000000e+00	4.166666e-01	3.416182e+14	1.761674e+14	3.147608e+14	1.165567e+04	5.638046e+03	3.147644e+03	0	1.000891e-03
3.600000e+08	1.526486e+13	0.000000e+00	4.166666e-01	3.342564e+14	1.788791e+14	3.131359e+14	1.160493e+04	5.651155e+03	3.154963e+03	0	9.925698e-04
3.700000e+08	1.489120e+13	0.000000e+00	4.166666e-01	3.271475e+14	1.815549e+14	3.115227e+14	1.155527e+04	5.663944e+03	3.162103e+03	0	9.844039e-04
3.800000e+08	1.453035e+13	0.000000e+00	4.166666e-01	3.202794e+14	1.841946e+14	3.099213e+14	1.150665e+04	5.676421e+03	3.169069e+03	0	9.763874e-04
3.900000e+08	1.418172e+13	0.000000e+00	4.166666e-01	3.136409e+14	1.867978e+14	3.083314e+14	1.145905e+04	5.688595e+03	3.175865e+03	0	9.685151e-04
4.000000e+08	1.384473e+13	0.000000e+00	4.166666e-01	3.072213e+14	1.893644e+14	3.067530e+14	1.141243e+04	5.700471e+03	3.182495e+03	0	9.607822e-04
4.100000e+08	1.351885e+13	0.000000e+00	4.166666e-01	3.010106e+14	1.918942e+14	3.051860e+14	1.136676e+04	5.712059e+03	3.188965e+03	0	9.531838e-04
4.200000e+08	1.320357e+13	0.000000e+00	4.166666e-01	2.949993e+14	1.943870e+14	3.036302e+14	1.132200e+04	5.723365e+03	3.195276e+03	0	9.457155e-04
4.300000e+08	1.289842e+13	0.000000e+00	4.166666e-01	2.891787e+14	1.968426e+14	3.020857e+14	1.127813e+04	5.734396e+03	3.201435e+03	0	9.383732e-04
4.400000e+08	1.260295e+13	0.000000e+00	4.166666e-01	2.835403e+14	1.992609e+14	3.005523e+14	1.123512e+04	5.745158e+03	3.207443e+03	0	9.311526e-04
4.500000e+08	1.231675e+13	0.000000e+00	4.166666e-01	2.780763e+14	2.016418e+14	2.990299e+14	1.119294e+04	5.755657e+03	3.213305e+03	0	9.240499e-04
4.600000e+08	1.203941e+13	0.000000e+00	4.166666e-01	2.727793e+14	2.039853e+14	2.975185e+14	1.115157e+04	5.765901e+03	3.219023e+03	0	9.170615e-04
4.700000e+08	1.177055e+13	0.000000e+00	4.166666e-01	2.676421e+14	2.062914e+14	2.960178e+14	1.111098e+04	5.775894e+03	3.224602e+03	0	9.101837e-04
4.800000e+08	1.150983e+13	0.000000e+00	4.166666e-01	2.626582e+14	2.085598e+14	2.945280e+14	1.107115e+04	5.785642e+03	3.230045e+03	0	9.034131e-04
4.900000e+08	1.125690e+13	0.000000e+00	4.166666e-01	2.578212e+14	2.107908e+14	2.930488e+14	1.103206e+04	5.795151e+03	3.235354e+03	0	8.967466e-04
5.000000e+08	1.101146e+13	0.000000e+00	4.166666e-01	2.531252e+14	2.129842e+14	2.915801e+14	1.099368e+04	5.804427e+03	3.240532e+03	0	8.901810e-04
5.100000e+08	1.077318e+13	0.000000e+00	4.166666e-01	2.485646e+14	2.151401e+14	2.901220e+14	1.095600e+04	5.813474e+03	3.245583e+03	0	8.837134e-04
5.200000e+08	1.054180e+13	0.000000e+00	4.166666e-01	2.441339e+14	2.172585e+14	2.886743e+14	1.091899e+04	5.822298e+03	3.250509e+03	0	8.773408e-04
5.300000e+08	1.031703e+13	0.000000e+00	4.166666e-01	2.398280e+14	2.193396e+14	2.872369e+14	1.088264e+04	5.830903e+03	3.255313e+03	0	8.710606e-04
5.400000e+08	1.009863e+13	0.000000e+00	4.166666e-01	2.356423e+14	2.213834e+14	2.858097e+14	1.084692e+04	5.839294e+03	3.259998e+03	0	8.648701e-04
5.500000e+08	9.886339e+12	0.000000e+00	4.166666e-01	2.315720e+14	2.233900e+14	2.843927e+14	1.081182e+04	5.847476e+03	3.264566e+03	0	8.587668e-04
5.600000e+08	9.679933e+12	0.000000e+00	4.166666e-01	2.276128e+14	2.253596e+14	2.829858e+14	1.077733e+04	5.855452e+03	3.269019e+03	0	8.527483e-04
5.700000e+08	9.479188e+12	0.000000e+00	4.166666e-01	2.237605e+14	2.272921e+14	2.815888e+14	1.074342e+04	5.863229e+03	3.273361e+03	0	8.468123e-04
5.800000e+08	9.283895e+12	0.000000e+00	4.166666e-01	2.200113e+14	2.291879e+14	2.802018e+14	1.071009e+04	5.870809e+03	3.277592e+03	0	8.409564e-04
5.900000e+08	9.093852e+12	0.000000e+00	4.166666e-01	2.163613e+14	2.310471e+14	2.788246e+14	1.067730e+04	5.878197e+03	3.281717e+03	0	8.351787e-04
6.000000e+08	8.908868e+12	0.000000e+00	4.166666e-01	2.128070e+14	2.328698e+14	2.774572e+14	1.064506e+04	5.885396e+03	3.285736e+03	0	8.294769e-04
6.100000e+08	8.728762e+12	0.000000e+00	4.166666e-01	2.093448e+14	2.346563e+14	2.760994e+14	1.061335e+04	5.892412e+03	3.289653e+03	0	8.238491e-04
6.200000e+08	8.553360e+12	0.000000e+00	4.166666e-01	2.059717e+14	2.364066e+14	2.747512e+14	1.058215e+04	5.899246e+03	3.293469e+03	0	8.182933e-04
6.300000e+08	8.382495e+12	0.000000e+00	4.166666e-01	2.026844e+14	2.381211e+14	2.734125e+14	1.055145e+04	5.905904e+03	3.297186e+03	0	8.128078e-04
6.400000e+08	8.216009e+12	0.000000e+00	4.166666e-01	1.994800e+14	2.398000e+14	2.720833e+14	1.052123e+04	5.912389e+03	3.300806e+03	0	8.073907e-04
6.500000e+08	8.053752e+12	0.000000e+00	4.166666e-01	1.963556e+14	2.414435e+14	2.707634e+14	1.049149e+04	5.918704e+03	3.304332e+03	0	8.020403e-04
6.600000e+08	7.895578e+12	0.000000e+00	4.166666e-01	1.933086e+14	2.430518e+14	2.694529e+14	1.046222e+04	5.924852e+03	3.307764e+03	0	7.967549e-04
6.700000e+08	7.741349e+12	0.000000e+00	4.166666e-01	1.903363e+14	2.446252e+14	2.681515e+14	1.043339e+04	5.930838e+03	3.311106e+03	0	7.915329e-04
6.800000e+08	7.590934e+12	0.000000e+00	4.166666e-01	1.874362e+14	2.461640e+14	2.668593e+14	1.040501e+04	5.936664e+03	3.314358e+03	0	7.863728e-04
6.900000e+08	7.444204e+12	0.000000e+00	4.166666e-01	1.846060e+14	2.476684e+14	2.655761e+14	1.037706e+04	5.942333e+03	3.317523e+03	0	7.812731e-04
7.000000e+08	7.301041e+12	0.000000e+00	4.166666e-01	1.818434e+14	2.491387e+14	2.643020e+14	1.034952e+04	5.947849e+03	3.320603e+03	0	7.762323e-04
7.100000e+08	7.161326e+12	0.000000e+00	4.166666e-01	1.791462e+14	2.505751e+14	2.630367e+14	1.032240e+04	5.953214e+03	3.323598e+03	0	7.712489e-04
7.200000e+08	7.024949e+12	0.000000e+00	4.166666e-01	1.765122e+14	2.519781e+14	2.617803e+14	1.029568e+04	5.958432e+03	3.326511e+03	0	7.663218e-04
7.300000e+08	6.891803e+12	0.000000e+00	4.166666e-01	1.739396e+14	2.533479e+14	2.605327e+14	1.026934e+04	5.963506e+03	3.329344e+03	0	7.614494e-04
7.400000e+08	6.761786e+12	0.000000e+00	4.166666e-01	1.714263e+14	2.546847e+14	2.592938e+14	1.024339e+04	5.968437e+03	3.332097e+03	0	7.566306e-04
7.500000e+08	6.634799e+12	0.000000e+00	4.166666e-01	1.689706e+14	2.559889e+14	2.580636e+14	1.021782e+04	5.973230e+03	3.334773e+03	0	7.518641e-04
7.600000e+08	6.510749e+12	0.000000e+00	4.166666e-01	1.665706e+14	2.572608e+14	2.568419e+14	1.019260e+04	5.977886e+03	3.337372e+03	0	7.471488e-04
7.700000e+08	6.389544e+12	0.000000e+00	4.166666e-01	1.642246e+14	2.585008e+14	2.556287e+14	1.016775e+04	5.982409e+03	3.339897e+03	0	7.424834e-04
7.800000e+08	6.271098e+12	0.000000e+00	4.166666e-01	1.619311e+14	2.597092e+14	2.544239e+14	1.014324e+04	5.986800e+03	3.342349e+03	0	7.378668e-04
7.900000e+08	6.155327e+12	0.000000e+00	4.166666e-01	1.596883e+14	2.608862e+14	2.532275e+14	1.011907e+04	5.991063e+03	3.344729e+03	0	7.332980e-04
8.000000e+08	6.042150e+12	0.000000e+00	4.166666e-01	1.574949e+14	2.620323e+14	2.520394e+14	1.009524e+04	5.995200e+03	3.347038e+03	0	7.287758e-04
8.100000e+08	5.931491e+12	0.000000e+00	4.166666e-01	1.553493e+14	2.631476e+14	2.508595e+14	1.007173e+04	5.999214e+03	3.349279e+03	0	7.242993e-04
8.200000e+08	5.823274e+12	0.000000e+00	4.166666e-01	1.532502e+14	2.642328e+14	2.496878e+14	1.004854e+04	6.003106e+03	3.351452e+03	0	7.198674e-04
8.300000e+08	5.717428e+12	0.000000e+00	4.166666e-01	1.511961e+14	2.652879e+14	2.485242e+14	1.002566e+04	6.006879e+03	3.353559e+03	0	7.154792e-04
8.400000e+08	5.613885e+12	0.000000e+00	4.166666e-01	1.491859e+14	2.663135e+14	2.473687e+14	1.000309e+04	6.010536e+03	3.355600e+03	0	7.111337e-04
8.500000e+08	5.512577e+12	0.000000e+00	4.166666e-01	1.472182e+14	2.673098e+14	2.462211e+14	9.980819e+03	6.014078e+03	3.357577e+03	0	7.068300e-04
8.600000e+08	5.413441e+12	0.000000e+00	4.166666e-01	1.452918e+14	2.682772e+14	2.450814e+14	9.958838e+03	6.017508e+03	3.359492e+03	0	7.025673e-04
8.700000e+08	5.316415e+12	0.000000e+00	4.166666e-01	1.434056e+14	2.692160e+14	2.439496e+14	9.937143e+03	6.020827e+03	3.361346e+03	0	6.983445e-04
8.800000e+08	5.221440e+12	0.000000e+00	4.166666e-01	1.415585e+14	2.701266e+14	2.428255e+14	9.915729e+03	6.024039e+03	3.363139e+03	0	6.941610e-04
8.900000e+08	5.128458e+12	0.000000e+00	4.166666e-01	1.397493e+14	2.710094e+14	2.417092e+14	9.894589e+03	6.027145e+03	3.364873e+03	0	6.900158e-04
9.000000e+08	5.037413e+12	0.000000e+00	4.166666e-01	1.379770e+14	2.718648e+14	2.406005e+14	9.873719e+03	6.030147e+03	3.366549e+03	0	6.859082e-04
9.100000e+08	4.948254e+12	0.000000e+00	4.166666e-01	1.362407e+14	2.726929e+14	2.394995e+14	9.853112e+03	6.033047e+03	3.368168e+03	0	6.818373e-04
9.200000e+08	4.860927e+12	0.000000e+00	4.166666e-01	1.345392e+14	2.734943e+14	2.384059e+14	9.832763e+03	6.035846e+03	3.369731e+03	0	6.778024e-04
9.300000e+08	4.775383e+12	0.000000e+00	4.166666e-01	1.328718e+14	2.742692e+14	2.373199e+14	9.812667e+03	6.038548e+03	3.371239e+03	0	6.738028e-04
9.400000e+08	4.691574e+12	0.000000e+00	4.166666e-01	1.312375e+14	2.750182e+14	2.362413e+14	9.792819e+03	6.041154e+03	3.372693e+03	0	6.698378e-04
9.500000e+08	4.609454e+12	0.000000e+00	4.166666e-01	1.296354e+14	2.757414e+14	2.351700e+14	9.773215e+03	6.043664e+03	3.374095e+03	0	6.659065e-04
9.600000e+08	4.528978e+12	0.000000e+00	4.166666e-01	1.280646e+14	2.764392e+14	2.341061e+14	9.753848e+03	6.046083e+03	3.375445e+03	0	6.620084e-04
9.700000e+08	4.450102e+12	0.000000e+00	4.166666e-01	1.265244e+14	2.771120e+14	2.330494e+14	9.734716e+03	6.048410e+03	3.376745e+03	0	6.581427e-04
9.800000e+08	4.372784e+12	0.000000e+00	4.166666e-01	1.250139e+14	2.777603e+14	2.319998e+14	9.715813e+03	6.050648e+03	3.377994e+03	0	6.543088e-04
9.900000e+08	4.296985e+12	0.000000e+00	4.166666e-01	1.235325e+14	2.783841e+14	2.309575e+14	9.697134e+03	6.052798e+03	3.379195e+03	0	6.505061e-04
1.000000e+09	4.222663e+12	0.000000e+00	4.166666e-01	1.220792e+14	2.789842e+14	2.299222e+14	9.678676e+03	6.054863e+03	3.380347e+03	0	6.467338e-04
1.010000e+09	4.149783e+12	0.000000e+00	4.166666e-01	1.206535e+14	2.795605e+14	2.288939e+14	9.660434e+03	6.056843e+03	3.381453e+03	0	6.429915e-04
1.020000e+09	4.078307e+12	0.000000e+00	4.166666e-01	1.192546e+14	2.801137e+14	2.278725e+14	9.642404e+03	6.058741e+03	3.382512e+03	0	6.392784e-04
1.030000e+09	4.008198e+12	0.000000e+00	4.166666e-01	1.178819e+14	2.806440e+14	2.268581e+14	9.624583e+03	6.060557e+03	3.383526e+03	0	6.355941e-04
1.040000e+09	3.939424e+12	0.000000e+00	4.166666e-01	1.165346e+14	2.811518e+14	2.258506e+14	9.606966e+03	6.062294e+03	3.384496e+03	0	6.319378e-04
1.050000e+09	3.871950e+12	0.000000e+00	4.166666e-01	1.152123e+14	2.816374e+14	2.248498e+14	9.589549e+03	6.063953e+03	3.385422e+03	0	6.283091e-04
1.060000e+09	3.805745e+12	0.000000e+00	4.166666e-01	1.139142e+14	2.821011e+14	2.238558e+14	9.572330e+03	6.065535e+03	3.386305e+03	0	6.247074e-04
1.070000e+09	3.740776e+12	0.000000e+00	4.166666e-01	1.126397e+14	2.825433e+14	2.228685e+14	9.555303e+03	6.067042e+03	3.387147e+03	0	6.211321e-04
1.080000e+09	3.677014e+12	0.000000e+00	4.166666e-01	1.113884e+14	2.829644e+14	2.218879e+14	9.538467e+03	6.068475e+03	3.387947e+03	0	6.175828e-04
1.090000e+09	3.614428e+12	0.000000e+00	4.166666e-01	1.101595e+14	2.833646e+14	2.209138e+14	9.521817e+03	6.069836e+03	3.388706e+03	0	6.140588e-04
1.100000e+09	3.552992e+12	0.000000e+00	4.166666e-01	1.089527e+14	2.837444e+14	2.199463e+14	9.505349e+03	6.071126e+03	3.389427e+03	0	6.105597e-04
1.110000e+09	3.492676e+12	0.000000e+00	4.166666e-01	1.077673e+14	2.841039e+14	2.189852e+14	9.489062e+03	6.072346e+03	3.390108e+03	0	6.070850e-04
1.120000e+09	3.433454e+12	0.000000e+00	4.166666e-01	1.066029e+14	2.844436e+14	2.180306e+14	9.472951e+03	6.073498e+03	3.390751e+03	0	6.036342e-04
1.130000e+09	3.375300e+12	0.000000e+00	4.166666e-01	1.054590e+14	2.847639e+14	2.170824e+14	9.457014e+03	6.074582e+03	3.391356e+03	0	6.002068e-04
1.140000e+09	3.318189e+12	0.000000e+00	4.166666e-01	1.043350e+14	2.850649e+14	2.161406e+14	9.441247e+03	6.075601e+03	3.391925e+03	0	5.968023e-04
1.150000e+09	3.262096e+12	0.000000e+00	4.166666e-01	1.032305e+14	2.853471e+14	2.152050e+14	9.425647e+03	6.076556e+03	3.392458e+03	0	5.934202e-04
1.160000e+09	3.206997e+12	0.000000e+00	4.166666e-01	1.021451e+14	2.856107e+14	2.142756e+14	9.410212e+03	6.077446e+03	3.392955e+03	0	5.900602e-04
1.170000e+09	3.152870e+12	0.000000e+00	4.166666e-01	1.010784e+14	2.858562e+14	2.133525e+14	9.394939e+03	6.078275e+03	3.393418e+03	0	5.867216e-04
1.180000e+09	3.099691e+12	0.000000e+00	4.166666e-01	1.000298e+14	2.860837e+14	2.124355e+14	9.379824e+03	6.079043e+03	3.393847e+03	0	5.834042e-04
1.190000e+09	3.047439e+12	0.000000e+00	4.166666e-01	9.899903e+13	2.862936e+14	2.115245e+14	9.364866e+03	6.079751e+03	3.394242e+03	0	5.801075e-04
1.200000e+09	2.996093e+12	0.000000e+00	4.166666e-01	9.798564e+13	2.864862e+14	2.106197e+14	9.350062e+03	6.080401e+03	3.394605e+03	0	5.768309e-04
1.210000e+09	2.945632e+12	0.000000e+00	4.166666e-01	9.698924e+13	2.866619e+14	2.097208e+14	9.335408e+03	6.080992e+03	3.394935e+03	0	5.735742e-04
1.220000e+09	2.896037e+12	0.000000e+00	4.166666e-01	9.600945e+13	2.868208e+14	2.088279e+14	9.320903e+03	6.081528e+03	3.395234e+03	0	5.703369e-04
1.230000e+09	2.847287e+12	0.000000e+00	4.166666e-01	9.504591e+13	2.869633e+14	2.079409e+14	9.306545e+03	6.082008e+03	3.395502e+03	0	5.671185e-04
1.240000e+09	2.799363e+12	0.000000e+00	4.166666e-01	9.409825e+13	2.870898e+14	2.070598e+14	9.292329e+03	6.082433e+03	3.395739e+03	0	5.639187e-04
1.250000e+09	2.752248e+12	0.000000e+00	4.166666e-01	9.316613e+13	2.872004e+14	2.061844e+14	9.278255e+03	6.082805e+03	3.395947e+03	0	5.607371e-04
1.260000e+09	2.705924e+12	0.000000e+00	4.166666e-01	9.224920e+13	2.872955e+14	2.053149e+14	9.264320e+03	6.083125e+03	3.396126e+03	0	5.575733e-04
1.270000e+09	2.660373e+12	0.000000e+00	4.166666e-01	9.134713e+13	2.873754e+14	2.044511e+14	9.250522e+03	6.083394e+03	3.396276e+03	0	5.544269e-04
1.280000e+09	2.615578e+12	0.000000e+00	4.166666e-01	9.045961e+13	2.874403e+14	2.035929e+14	9.236858e+03	6.083612e+03	3.396398e+03	0	5.512974e-04
1.290000e+09	2.571522e+12	0.000000e+00	4.166666e-01	8.958631e+13	2.874906e+14	2.027404e+14	9.223326e+03	6.083781e+03	3.396492e+03	0	5.481847e-04
1.300000e+09	2.528191e+12	0.000000e+00	4.166666e-01	8.872694e+13	2.875264e+14	2.018935e+14	9.209925e+03	6.083902e+03	3.396559e+03	0	5.450881e-04
1.310000e+09	2.485567e+12	0.000000e+00	4.166666e-01	8.788120e+13	2.875481e+14	2.010522e+14	9.196652e+03	6.083975e+03	3.396600e+03	0	5.420075e-04
1.320000e+09	2.443637e+12	0.000000e+00	4.166666e-01	8.704879e+13	2.875559e+14	2.002163e+14	9.183505e+03	6.084001e+03	3.396615e+03	0	5.389423e-04
1.330000e+09	2.402384e+12	0.000000e+00	4.166666e-01	8.622944e+13	2.875502e+14	1.993859e+14	9.170482e+03	6.083982e+03	3.396604e+03	0	5.358924e-04
1.340000e+09	2.361796e+12	0.000000e+00	4.166666e-01	8.542288e+13	2.875311e+14	1.985610e+14	9.157581e+03	6.083918e+03	3.396568e+03	0	5.328572e-04
1.350000e+09	2.321857e+12	0.000000e+00	4.166666e-01	8.462883e+13	2.874990e+14	1.977414e+14	9.144800e+03	6.083810e+03	3.396508e+03	0	5.298365e-04
1.360000e+09	2.282554e+12	0.000000e+00	4.166666e-01	8.384704e+13	2.874540e+14	1.969272e+14	9.132138e+03	6.083658e+03	3.396423e+03	0	5.268299e-04
