#t		Qconv[W]	Ri[Rp]		R*[Rp]		Qc[W]		Qm[W]		Qr[W]		Tcmb[K]		Tl[K]		Tup[K]		RiFlag		Bs[T]
0.000000e+00	1.023734e+14	0.000000e+00	4.195804e-01	1.639934e+15	5.087292e+13	5.165510e+14	1.856273e+04	5.529665e+03	2.883244e+03	0	1.844279e-03
1.000000e+07	9.816123e+13	0.000000e+00	4.195804e-01	1.577802e+15	5.401141e+13	5.136889e+14	1.839580e+04	5.573400e+03	2.906049e+03	0	1.818629e-03
2.000000e+07	9.421494e+13	0.000000e+00	4.195804e-01	1.519553e+15	5.719048e+13	5.108483e+14	1.823509e+04	5.615718e+03	2.928114e+03	0	1.793924e-03
3.000000e+07	9.051141e+13	0.000000e+00	4.195804e-01	1.464851e+15	6.040670e+13	5.080288e+14	1.808023e+04	5.656699e+03	2.949482e+03	0	1.770104e-03
4.000000e+07	8.703009e+13	0.000000e+00	4.195804e-01	1.413397e+15	6.365689e+13	5.052305e+14	1.793086e+04	5.696417e+03	2.970191e+03	0	1.747112e-03
5.000000e+07	8.375261e+13	0.000000e+00	4.195804e-01	1.364923e+15	6.693794e+13	5.024529e+14	1.778667e+04	5.734938e+03	2.990277e+03	0	1.724899e-03
6.000000e+07	8.066251e+13	0.000000e+00	4.195804e-01	1.319191e+15	7.024698e+13	4.996961e+14	1.764735e+04	5.772326e+03	3.009771e+03	0	1.703419e-03
7.000000e+07	7.774500e+13	0.000000e+00	4.195804e-01	1.275985e+15	7.358123e+13	4.969598e+14	1.751264e+04	5.808635e+03	3.028703e+03	0	1.682629e-03
8.000000e+07	7.498677e+13	0.000000e+00	4.195804e-01	1.235111e+15	7.693805e+13	4.942439e+14	1.738228e+04	5.843920e+03	3.047101e+03	0	1.662490e-03
9.000000e+07	7.237580e+13	0.000000e+00	4.195804e-01	1.196393e+15	8.031495e+13	4.915482e+14	1.725604e+04	5.878228e+03	3.064990e+03	0	1.642966e-03
1.000000e+08	6.990121e+13	0.000000e+00	4.195804e-01	1.159674e+15	8.370953e+13	4.888724e+14	1.713371e+04	5.911604e+03	3.082393e+03	0	1.624024e-03
1.100000e+08	6.755314e+13	0.000000e+00	4.195804e-01	1.124809e+15	8.711950e+13	4.862166e+14	1.701508e+04	5.944090e+03	3.099332e+03	0	1.605632e-03
1.200000e+08	6.532264e+13	0.000000e+00	4.195804e-01	1.091669e+15	9.054268e+13	4.835804e+14	1.689998e+04	5.975725e+03	3.115827e+03	0	1.587762e-03
1.300000e+08	6.320154e+13	0.000000e+00	4.195804e-01	1.060133e+15	9.397695e+13	4.809637e+14	1.678823e+04	6.006545e+03	3.131897e+03	0	1.570387e-03
1.400000e+08	6.118241e+13	0.000000e+00	4.195804e-01	1.030094e+15	9.742035e+13	4.783664e+14	1.667967e+04	6.036583e+03	3.147559e+03	0	1.553483e-03
1.500000e+08	5.925845e+13	0.000000e+00	4.195804e-01	1.001452e+15	1.008709e+14	4.757883e+14	1.657415e+04	6.065871e+03	3.162830e+03	0	1.537025e-03
1.600000e+08	5.742343e+13	0.000000e+00	4.195804e-01	9.741165e+14	1.043269e+14	4.732293e+14	1.647154e+04	6.094438e+03	3.177725e+03	0	1.520993e-03
1.700000e+08	5.567165e+13	0.000000e+00	4.195804e-01	9.480041e+14	1.077864e+14	4.706891e+14	1.637169e+04	6.122311e+03	3.192258e+03	0	1.505366e-03
1.800000e+08	5.399786e+13	0.000000e+00	4.195804e-01	9.230381e+14	1.112478e+14	4.681677e+14	1.627449e+04	6.149516e+03	3.206443e+03	0	1.490126e-03
1.900000e+08	5.239723e+13	0.000000e+00	4.195804e-01	8.991481e+14	1.147095e+14	4.656648e+14	1.617982e+04	6.176078e+03	3.220293e+03	0	1.475255e-03
2.000000e+08	5.086533e+13	0.000000e+00	4.195804e-01	8.762692e+14	1.181698e+14	4.631804e+14	1.608758e+04	6.202019e+03	3.233819e+03	0	1.460735e-03
2.100000e+08	4.939805e+13	0.000000e+00	4.195804e-01	8.543413e+14	1.216274e+14	4.607142e+14	1.599766e+04	6.227360e+03	3.247033e+03	0	1.446552e-03
2.200000e+08	4.799160e+13	0.000000e+00	4.195804e-01	8.333092e+14	1.250808e+14	4.582661e+14	1.590997e+04	6.252123e+03	3.259944e+03	0	1.432691e-03
2.300000e+08	4.664248e+13	0.000000e+00	4.195804e-01	8.131214e+14	1.285285e+14	4.558360e+14	1.582442e+04	6.276326e+03	3.272564e+03	0	1.419138e-03
2.400000e+08	4.534743e+13	0.000000e+00	4.195804e-01	7.937305e+14	1.319692e+14	4.534237e+14	1.574092e+04	6.299986e+03	3.284901e+03	0	1.405881e-03
2.500000e+08	4.410345e+13	0.000000e+00	4.195804e-01	7.750923e+14	1.354017e+14	4.510291e+14	1.565939e+04	6.323122e+03	3.296964e+03	0	1.392906e-03
2.600000e+08	4.290773e+13	0.000000e+00	4.195804e-01	7.571659e+14	1.388247e+14	4.486520e+14	1.557976e+04	6.345749e+03	3.308762e+03	0	1.380202e-03
2.700000e+08	4.175767e+13	0.000000e+00	4.195804e-01	7.399131e+14	1.422370e+14	4.462923e+14	1.550195e+04	6.367883e+03	3.320303e+03	0	1.367759e-03
2.800000e+08	4.065084e+13	0.000000e+00	4.195804e-01	7.232985e+14	1.456375e+14	4.439498e+14	1.542590e+04	6.389539e+03	3.331595e+03	0	1.355566e-03
2.900000e+08	3.958498e+13	0.000000e+00	4.195804e-01	7.072888e+14	1.490252e+14	4.416244e+14	1.535155e+04	6.410729e+03	3.342644e+03	0	1.343614e-03
3.000000e+08	3.855799e+13	0.000000e+00	4.195804e-01	6.918532e+14	1.523988e+14	4.393160e+14	1.527882e+04	6.431468e+03	3.353457e+03	0	1.331892e-03
3.100000e+08	3.756789e+13	0.000000e+00	4.195804e-01	6.769629e+14	1.557574e+14	4.370243e+14	1.520767e+04	6.451768e+03	3.364042e+03	0	1.320393e-03
3.200000e+08	3.661284e+13	0.000000e+00	4.195804e-01	6.625907e+14	1.591001e+14	4.347494e+14	1.513804e+04	6.471642e+03	3.374404e+03	0	1.309108e-03
3.300000e+08	3.569112e+13	0.000000e+00	4.195804e-01	6.487114e+14	1.624259e+14	4.324910e+14	1.506987e+04	6.491099e+03	3.384550e+03	0	1.298029e-03
3.400000e+08	3.480111e+13	0.000000e+00	4.195804e-01	6.353013e+14	1.657338e+14	4.302490e+14	1.500312e+04	6.510153e+03	3.394484e+03	0	1.287148e-03
3.500000e+08	3.394130e+13	0.000000e+00	4.195804e-01	6.223382e+14	1.690231e+14	4.280233e+14	1.493773e+04	6.528812e+03	3.404214e+03	0	1.276460e-03
3.600000e+08	3.311026e+13	0.000000e+00	4.195804e-01	6.098011e+14	1.722929e+14	4.258137e+14	1.487368e+04	6.547087e+03	3.413743e+03	0	1.265955e-03
3.700000e+08	3.230666e+13	0.000000e+00	4.195804e-01	5.976705e+14	1.755424e+14	4.236201e+14	1.481090e+04	6.564988e+03	3.423076e+03	0	1.255630e-03
3.800000e+08	3.152923e+13	0.000000e+00	4.195804e-01	5.859278e+14	1.787708e+14	4.214423e+14	1.474936e+04	6.582524e+03	3.432220e+03	0	1.245476e-03
3.900000e+08	3.077680e+13	0.000000e+00	4.195804e-01	5.745558e+14	1.819775e+14	4.192803e+14	1.468902e+04	6.599703e+03	3.441177e+03	0	1.235489e-03
4.000000e+08	3.004826e+13	0.000000e+00	4.195804e-01	5.635379e+14	1.851617e+14	4.171340e+14	1.462984e+04	6.616535e+03	3.449954e+03	0	1.225662e-03
4.100000e+08	2.934254e+13	0.000000e+00	4.195804e-01	5.528588e+14	1.883227e+14	4.150031e+14	1.457179e+04	6.633027e+03	3.458553e+03	0	1.215990e-03
4.200000e+08	2.865867e+13	0.000000e+00	4.195804e-01	5.425039e+14	1.914599e+14	4.128876e+14	1.451483e+04	6.649187e+03	3.466979e+03	0	1.206469e-03
4.300000e+08	2.799570e+13	0.000000e+00	4.195804e-01	5.324594e+14	1.945727e+14	4.107873e+14	1.445893e+04	6.665023e+03	3.475236e+03	0	1.197093e-03
4.400000e+08	2.735275e+13	0.000000e+00	4.195804e-01	5.227123e+14	1.976605e+14	4.087021e+14	1.440406e+04	6.680542e+03	3.483328e+03	0	1.187858e-03
4.500000e+08	2.672899e+13	0.000000e+00	4.195804e-01	5.132504e+14	2.007228e+14	4.066319e+14	1.435019e+04	6.695751e+03	3.491258e+03	0	1.178759e-03
4.600000e+08	2.612362e+13	0.000000e+00	4.195804e-01	5.040619e+14	2.037590e+14	4.045765e+14	1.429728e+04	6.710657e+03	3.499030e+03	0	1.169792e-03
4.700000e+08	2.553589e+13	0.000000e+00	4.195804e-01	4.951358e+14	2.067686e+14	4.025359e+14	1.424532e+04	6.725266e+03	3.506648e+03	0	1.160953e-03
4.800000e+08	2.496510e+13	0.000000e+00	4.195804e-01	4.864617e+14	2.097512e+14	4.005100e+14	1.419426e+04	6.739585e+03	3.514114e+03	0	1.152237e-03
4.900000e+08	2.441057e+13	0.000000e+00	4.195804e-01	4.780296e+14	2.127062e+14	3.984985e+14	1.414410e+04	6.753620e+03	3.521432e+03	0	1.143642e-03
5.000000e+08	2.387166e+13	0.000000e+00	4.195804e-01	4.698302e+14	2.156334e+14	3.965014e+14	1.409480e+04	6.767377e+03	3.528605e+03	0	1.135163e-03
5.100000e+08	2.334776e+13	0.000000e+00	4.195804e-01	4.618544e+14	2.185322e+14	3.945186e+14	1.404634e+04	6.780861e+03	3.535635e+03	0	1.126798e-03
5.200000e+08	2.283831e+13	0.000000e+00	4.195804e-01	4.540939e+14	2.214023e+14	3.925499e+14	1.399870e+04	6.794078e+03	3.542527e+03	0	1.118542e-03
5.300000e+08	2.234275e+13	0.000000e+00	4.195804e-01	4.465405e+14	2.242434e+14	3.905953e+14	1.395186e+04	6.807033e+03	3.549282e+03	0	1.110392e-03
5.400000e+08	2.186057e+13	0.000000e+00	4.195804e-01	4.391865e+14	2.270550e+14	3.886546e+14	1.390579e+04	6.819732e+03	3.555903e+03	0	1.102346e-03
5.500000e+08	2.139126e+13	0.000000e+00	4.195804e-01	4.320247e+14	2.298369e+14	3.867277e+14	1.386047e+04	6.832180e+03	3.562394e+03	0	1.094401e-03
5.600000e+08	2.093435e+13	0.000000e+00	4.195804e-01	4.250480e+14	2.325888e+14	3.848145e+14	1.381589e+04	6.844381e+03	3.568756e+03	0	1.086552e-03
5.700000e+08	2.048940e+13	0.000000e+00	4.195804e-01	4.182498e+14	2.353104e+14	3.829149e+14	1.377202e+04	6.856340e+03	3.574992e+03	0	1.078799e-03
5.800000e+08	2.005598e+13	0.000000e+00	4.195804e-01	4.116238e+14	2.380016e+14	3.810287e+14	1.372885e+04	6.868063e+03	3.581104e+03	0	1.071138e-03
5.900000e+08	1.963367e+13	0.000000e+00	4.195804e-01	4.051639e+14	2.406618e+14	3.791560e+14	1.368636e+04	6.879553e+03	3.587095e+03	0	1.063567e-03
6.000000e+08	1.922209e+13	0.000000e+00	4.195804e-01	3.988644e+14	2.432912e+14	3.772964e+14	1.364453e+04	6.890814e+03	3.592967e+03	0	1.056082e-03
6.100000e+08	1.882087e+13	0.000000e+00	4.195804e-01	3.927198e+14	2.458894e+14	3.754501e+14	1.360335e+04	6.901852e+03	3.598722e+03	0	1.048683e-03
6.200000e+08	1.842965e+13	0.000000e+00	4.195804e-01	3.867248e+14	2.484562e+14	3.736168e+14	1.356280e+04	6.912670e+03	3.604363e+03	0	1.041366e-03
6.300000e+08	1.804809e+13	0.000000e+00	4.195804e-01	3.808743e+14	2.509915e+14	3.717964e+14	1.352287e+04	6.923272e+03	3.609891e+03	0	1.034129e-03
6.400000e+08	1.767586e+13	0.000000e+00	4.195804e-01	3.751637e+14	2.534951e+14	3.699889e+14	1.348353e+04	6.933662e+03	3.615308e+03	0	1.026970e-03
6.500000e+08	1.731265e+13	0.000000e+00	4.195804e-01	3.695881e+14	2.559670e+14	3.681941e+14	1.344479e+04	6.943845e+03	3.620617e+03	0	1.019887e-03
6.600000e+08	1.695818e+13	0.000000e+00	4.195804e-01	3.641434e+14	2.584069e+14	3.664119e+14	1.340661e+04	6.953823e+03	3.625820e+03	0	1.012878e-03
6.700000e+08	1.661214e+13	0.000000e+00	4.195804e-01	3.588251e+14	2.608149e+14	3.646423e+14	1.336900e+04	6.963600e+03	3.630918e+03	0	1.005942e-03
6.800000e+08	1.627427e+13	0.000000e+00	4.195804e-01	3.536294e+14	2.631908e+14	3.628851e+14	1.333193e+04	6.973180e+03	3.635914e+03	0	9.990750e-04
6.900000e+08	1.594431e+13	0.000000e+00	4.195804e-01	3.485522e+14	2.655346e+14	3.611402e+14	1.329539e+04	6.982567e+03	3.640808e+03	0	9.922768e-04
7.000000e+08	1.562201e+13	0.000000e+00	4.195804e-01	3.435899e+14	2.678462e+14	3.594075e+14	1.325938e+04	6.991764e+03	3.645603e+03	0	9.855451e-04
7.100000e+08	1.530712e+13	0.000000e+00	4.195804e-01	3.387390e+14	2.701256e+14	3.576870e+14	1.322388e+04	7.000773e+03	3.650301e+03	0	9.788783e-04
7.200000e+08	1.499941e+13	0.000000e+00	4.195804e-01	3.339959e+14	2.723727e+14	3.559785e+14	1.318888e+04	7.009600e+03	3.654903e+03	0	9.722747e-04
7.300000e+08	1.469867e+13	0.000000e+00	4.195804e-01	3.293575e+14	2.745876e+14	3.542820e+14	1.315436e+04	7.018245e+03	3.659411e+03	0	9.657327e-04
7.400000e+08	1.440468e+13	0.000000e+00	4.195804e-01	3.248205e+14	2.767703e+14	3.525973e+14	1.312032e+04	7.026713e+03	3.663826e+03	0	9.592507e-04
7.500000e+08	1.411724e+13	0.000000e+00	4.195804e-01	3.203819e+14	2.789206e+14	3.509243e+14	1.308675e+04	7.035007e+03	3.668151e+03	0	9.528272e-04
7.600000e+08	1.383614e+13	0.000000e+00	4.195804e-01	3.160388e+14	2.810388e+14	3.492630e+14	1.305363e+04	7.043130e+03	3.672386e+03	0	9.464607e-04
7.700000e+08	1.356121e+13	0.000000e+00	4.195804e-01	3.117884e+14	2.831249e+14	3.476133e+14	1.302096e+04	7.051084e+03	3.676533e+03	0	9.401497e-04
7.800000e+08	1.329225e+13	0.000000e+00	4.195804e-01	3.076280e+14	2.851788e+14	3.459750e+14	1.298873e+04	7.058872e+03	3.680594e+03	0	9.338930e-04
7.900000e+08	1.302910e+13	0.000000e+00	4.195804e-01	3.035550e+14	2.872007e+14	3.443481e+14	1.295693e+04	7.066497e+03	3.684570e+03	0	9.276890e-04
8.000000e+08	1.277159e+13	0.000000e+00	4.195804e-01	2.995669e+14	2.891906e+14	3.427324e+14	1.292554e+04	7.073963e+03	3.688463e+03	0	9.215365e-04
8.100000e+08	1.251955e+13	0.000000e+00	4.195804e-01	2.956613e+14	2.911486e+14	3.411280e+14	1.289457e+04	7.081270e+03	3.692273e+03	0	9.154342e-04
8.200000e+08	1.227283e+13	0.000000e+00	4.195804e-01	2.918358e+14	2.930748e+14	3.395347e+14	1.286399e+04	7.088423e+03	3.696003e+03	0	9.093808e-04
8.300000e+08	1.203127e+13	0.000000e+00	4.195804e-01	2.880882e+14	2.949693e+14	3.379524e+14	1.283382e+04	7.095424e+03	3.699653e+03	0	9.033751e-04
8.400000e+08	1.179474e+13	0.000000e+00	4.195804e-01	2.844165e+14	2.968322e+14	3.363810e+14	1.280402e+04	7.102274e+03	3.703225e+03	0	8.974158e-04
8.500000e+08	1.156310e+13	0.000000e+00	4.195804e-01	2.808184e+14	2.986636e+14	3.348205e+14	1.277461e+04	7.108978e+03	3.706720e+03	0	8.915019e-04
8.600000e+08	1.133620e+13	0.000000e+00	4.195804e-01	2.772920e+14	3.004636e+14	3.332707e+14	1.274556e+04	7.115536e+03	3.710140e+03	0	8.856322e-04
8.700000e+08	1.111392e+13	0.000000e+00	4.195804e-01	2.738353e+14	3.022325e+14	3.317316e+14	1.271688e+04	7.121952e+03	3.713485e+03	0	8.798055e-04
8.800000e+08	1.089614e+13	0.000000e+00	4.195804e-01	2.704465e+14	3.039703e+14	3.302031e+14	1.268856e+04	7.128227e+03	3.716757e+03	0	8.740207e-04
8.900000e+08	1.068272e+13	0.000000e+00	4.195804e-01	2.671238e+14	3.056771e+14	3.286851e+14	1.266058e+04	7.134365e+03	3.719957e+03	0	8.682769e-04
9.000000e+08	1.047357e+13	0.000000e+00	4.195804e-01	2.638654e+14	3.073532e+14	3.271774e+14	1.263294e+04	7.140366e+03	3.723087e+03	0	8.625728e-04
9.100000e+08	1.026856e+13	0.000000e+00	4.195804e-01	2.606697e+14	3.089987e+14	3.256802e+14	1.260565e+04	7.146235e+03	3.726146e+03	0	8.569076e-04
9.200000e+08	1.006758e+13	0.000000e+00	4.195804e-01	2.575349e+14	3.106138e+14	3.241932e+14	1.257868e+04	7.151971e+03	3.729138e+03	0	8.512802e-04
9.300000e+08	9.870526e+12	0.000000e+00	4.195804e-01	2.544597e+14	3.121986e+14	3.227163e+14	1.255203e+04	7.157579e+03	3.732061e+03	0	8.456896e-04
9.400000e+08	9.677303e+12	0.000000e+00	4.195804e-01	2.514423e+14	3.137533e+14	3.212496e+14	1.252570e+04	7.163059e+03	3.734919e+03	0	8.401348e-04
9.500000e+08	9.487807e+12	0.000000e+00	4.195804e-01	2.484815e+14	3.152782e+14	3.197928e+14	1.249968e+04	7.168414e+03	3.737711e+03	0	8.346150e-04
9.600000e+08	9.301945e+12	0.000000e+00	4.195804e-01	2.455756e+14	3.167734e+14	3.183460e+14	1.247397e+04	7.173646e+03	3.740439e+03	0	8.291291e-04
9.700000e+08	9.119624e+12	0.000000e+00	4.195804e-01	2.427234e+14	3.182391e+14	3.169091e+14	1.244855e+04	7.178756e+03	3.743104e+03	0	8.236762e-04
9.800000e+08	8.940754e+12	0.000000e+00	4.195804e-01	2.399235e+14	3.196755e+14	3.154819e+14	1.242343e+04	7.183748e+03	3.745706e+03	0	8.182555e-04
9.900000e+08	8.765250e+12	0.000000e+00	4.195804e-01	2.371747e+14	3.210829e+14	3.140644e+14	1.239860e+04	7.188622e+03	3.748248e+03	0	8.128661e-04
1.000000e+09	8.593028e+12	0.000000e+00	4.195804e-01	2.344756e+14	3.224613e+14	3.126566e+14	1.237405e+04	7.193380e+03	3.750729e+03	0	8.075070e-04
1.010000e+09	8.424006e+12	0.000000e+00	4.195804e-01	2.318252e+14	3.238112e+14	3.112583e+14	1.234978e+04	7.198024e+03	3.753150e+03	0	8.021774e-04
1.020000e+09	8.258107e+12	0.000000e+00	4.195804e-01	2.292221e+14	3.251327e+14	3.098695e+14	1.232579e+04	7.202557e+03	3.755514e+03	0	7.968766e-04
1.030000e+09	8.095254e+12	0.000000e+00	4.195804e-01	2.266652e+14	3.264260e+14	3.084900e+14	1.230206e+04	7.206980e+03	3.757820e+03	0	7.916035e-04
1.040000e+09	7.935374e+12	0.000000e+00	4.195804e-01	2.241536e+14	3.276913e+14	3.071199e+14	1.227860e+04	7.211294e+03	3.760069e+03	0	7.863575e-04
1.050000e+09	7.778395e+12	0.000000e+00	4.195804e-01	2.216860e+14	3.289288e+14	3.057591e+14	1.225539e+04	7.215502e+03	3.762263e+03	0	7.811376e-04
1.060000e+09	7.624249e+12	0.000000e+00	4.195804e-01	2.192614e+14	3.301389e+14	3.044074e+14	1.223244e+04	7.219604e+03	3.764402e+03	0	7.759432e-04
1.070000e+09	7.472867e+12	0.000000e+00	4.195804e-01	2.168789e+14	3.313218e+14	3.030648e+14	1.220974e+04	7.223603e+03	3.766488e+03	0	7.707733e-04
1.080000e+09	7.324186e+12	0.000000e+00	4.195804e-01	2.145375e+14	3.324776e+14	3.017313e+14	1.218728e+04	7.227501e+03	3.768520e+03	0	7.656272e-04
1.090000e+09	7.178141e+12	0.000000e+00	4.195804e-01	2.122362e+14	3.336066e+14	3.004067e+14	1.216507e+04	7.231298e+03	3.770500e+03	0	7.605041e-04
1.100000e+09	7.034672e+12	0.000000e+00	4.195804e-01	2.099741e+14	3.347092e+14	2.990910e+14	1.214309e+04	7.234997e+03	3.772428e+03	0	7.554032e-04
1.110000e+09	6.893718e+12	0.000000e+00	4.195804e-01	2.077503e+14	3.357855e+14	2.977842e+14	1.212135e+04	7.238599e+03	3.774307e+03	0	7.503238e-04
1.120000e+09	6.755223e+12	0.000000e+00	4.195804e-01	2.055639e+14	3.368357e+14	2.964861e+14	1.209984e+04	7.242105e+03	3.776135e+03	0	7.452651e-04
1.130000e+09	6.619129e+12	0.000000e+00	4.195804e-01	2.034141e+14	3.378602e+14	2.951967e+14	1.207855e+04	7.245518e+03	3.777914e+03	0	7.402263e-04
1.140000e+09	6.485383e+12	0.000000e+00	4.195804e-01	2.013002e+14	3.388591e+14	2.939159e+14	1.205748e+04	7.248838e+03	3.779645e+03	0	7.352067e-04
1.150000e+09	6.353932e+12	0.000000e+00	4.195804e-01	1.992212e+14	3.398328e+14	2.926436e+14	1.203664e+04	7.252067e+03	3.781329e+03	0	7.302054e-04
1.160000e+09	6.224723e+12	0.000000e+00	4.195804e-01	1.971764e+14	3.407815e+14	2.913799e+14	1.201600e+04	7.255206e+03	3.782966e+03	0	7.252219e-04
1.170000e+09	6.097708e+12	0.000000e+00	4.195804e-01	1.951651e+14	3.417055e+14	2.901245e+14	1.199558e+04	7.258257e+03	3.784557e+03	0	7.202552e-04
1.180000e+09	5.972837e+12	0.000000e+00	4.195804e-01	1.931865e+14	3.426049e+14	2.888776e+14	1.197536e+04	7.261221e+03	3.786102e+03	0	7.153048e-04
1.190000e+09	5.850064e+12	0.000000e+00	4.195804e-01	1.912399e+14	3.434802e+14	2.876389e+14	1.195535e+04	7.264100e+03	3.787603e+03	0	7.103697e-04
1.200000e+09	5.729341e+12	0.000000e+00	4.195804e-01	1.893246e+14	3.443314e+14	2.864084e+14	1.193554e+04	7.266895e+03	3.789060e+03	0	7.054493e-04
1.210000e+09	5.610626e+12	0.000000e+00	4.195804e-01	1.874401e+14	3.451590e+14	2.851861e+14	1.191593e+04	7.269607e+03	3.790474e+03	0	7.005428e-04
1.220000e+09	5.493873e+12	0.000000e+00	4.195804e-01	1.855855e+14	3.459632e+14	2.839719e+14	1.189652e+04	7.272237e+03	3.791846e+03	0	6.956494e-04
1.230000e+09	5.379041e+12	0.000000e+00	4.195804e-01	1.837603e+14	3.467441e+14	2.827657e+14	1.187729e+04	7.274787e+03	3.793176e+03	0	6.907685e-04
1.240000e+09	5.266089e+12	0.000000e+00	4.195804e-01	1.819638e+14	3.475021e+14	2.815675e+14	1.185825e+04	7.277258e+03	3.794464e+03	0	6.858992e-04
1.250000e+09	5.154977e+12	0.000000e+00	4.195804e-01	1.801955e+14	3.482375e+14	2.803772e+14	1.183940e+04	7.279652e+03	3.795712e+03	0	6.810408e-04
1.260000e+09	5.045665e+12	0.000000e+00	4.195804e-01	1.784547e+14	3.489505e+14	2.791947e+14	1.182073e+04	7.281968e+03	3.796920e+03	0	6.761925e-04
1.270000e+09	4.938116e+12	0.000000e+00	4.195804e-01	1.767409e+14	3.496413e+14	2.780201e+14	1.180224e+04	7.284210e+03	3.798089e+03	0	6.713536e-04
1.280000e+09	4.832293e+12	0.000000e+00	4.195804e-01	1.750535e+14	3.503103e+14	2.768531e+14	1.178393e+04	7.286377e+03	3.799219e+03	0	6.665233e-04
1.290000e+09	4.728160e+12	0.000000e+00	4.195804e-01	1.733921e+14	3.509576e+14	2.756939e+14	1.176579e+04	7.288472e+03	3.800311e+03	0	6.617007e-04
1.300000e+09	4.625681e+12	0.000000e+00	4.195804e-01	1.717560e+14	3.515836e+14	2.745422e+14	1.174783e+04	7.290494e+03	3.801366e+03	0	6.568852e-04
1.310000e+09	4.524823e+12	0.000000e+00	4.195804e-01	1.701447e+14	3.521886e+14	2.733981e+14	1.173003e+04	7.292446e+03	3.802383e+03	0	6.520758e-04
1.320000e+09	4.425552e+12	0.000000e+00	4.195804e-01	1.685577e+14	3.527727e+14	2.722615e+14	1.171240e+04	7.294329e+03	3.803365e+03	0	6.472718e-04
1.330000e+09	4.327836e+12	0.000000e+00	4.195804e-01	1.669947e+14	3.533362e+14	2.711323e+14	1.169493e+04	7.296142e+03	3.804310e+03	0	6.424724e-04
1.340000e+09	4.231644e+12	0.000000e+00	4.195804e-01	1.654550e+14	3.538795e+14	2.700105e+14	1.167762e+04	7.297889e+03	3.805221e+03	0	6.376767e-04
1.350000e+09	4.136943e+12	0.000000e+00	4.195804e-01	1.639382e+14	3.544026e+14	2.688960e+14	1.166048e+04	7.299569e+03	3.806097e+03	0	6.328839e-04
1.360000e+09	4.043706e+12	0.000000e+00	4.195804e-01	1.624438e+14	3.549059e+14	2.677888e+14	1.164349e+04	7.301183e+03	3.806939e+03	0	6.280932e-04
