#t		Qconv[W]	Ri[Rp]		R*[Rp]		Qc[W]		Qm[W]		Qr[W]		Tcmb[K]		Tl[K]		Tup[K]		RiFlag		Bs[T]
0.000000e+00	1.153059e+14	0.000000e+00	4.195803e-01	1.797887e+15	5.135141e+13	5.405528e+14	1.897067e+04	5.591844e+03	2.891703e+03	0	1.909386e-03
1.000000e+07	1.105282e+14	0.000000e+00	4.195803e-01	1.729443e+15	5.460945e+13	5.375577e+14	1.879841e+04	5.637158e+03	2.915136e+03	0	1.882642e-03
2.000000e+07	1.060533e+14	0.000000e+00	4.195803e-01	1.665293e+15	5.791281e+13	5.345851e+14	1.863261e+04	5.680989e+03	2.937803e+03	0	1.856884e-03
3.000000e+07	1.018549e+14	0.000000e+00	4.195803e-01	1.605064e+15	6.125776e+13	5.316346e+14	1.847287e+04	5.723424e+03	2.959747e+03	0	1.832049e-03
4.000000e+07	9.790931e+13	0.000000e+00	4.195803e-01	1.548425e+15	6.464082e+13	5.287062e+14	1.831882e+04	5.764538e+03	2.981008e+03	0	1.808081e-03
5.000000e+07	9.419572e+13	0.000000e+00	4.195803e-01	1.495079e+15	6.805867e+13	5.257996e+14	1.817012e+04	5.804403e+03	3.001624e+03	0	1.784926e-03
6.000000e+07	9.069529e+13	0.000000e+00	4.195803e-01	1.444761e+15	7.150814e+13	5.229147e+14	1.802648e+04	5.843084e+03	3.021627e+03	0	1.762537e-03
7.000000e+07	8.739115e+13	0.000000e+00	4.195803e-01	1.397232e+15	7.498622e+13	5.200513e+14	1.788761e+04	5.880641e+03	3.041049e+03	0	1.740868e-03
8.000000e+07	8.426811e+13	0.000000e+00	4.195803e-01	1.352278e+15	7.849007e+13	5.172092e+14	1.775325e+04	5.917129e+03	3.059918e+03	0	1.719878e-03
9.000000e+07	8.131247e+13	0.000000e+00	4.195803e-01	1.309704e+15	8.201695e+13	5.143882e+14	1.762315e+04	5.952600e+03	3.078261e+03	0	1.699531e-03
1.000000e+08	7.851181e+13	0.000000e+00	4.195803e-01	1.269335e+15	8.556425e+13	5.115881e+14	1.749709e+04	5.987100e+03	3.096101e+03	0	1.679790e-03
1.100000e+08	7.585491e+13	0.000000e+00	4.195803e-01	1.231013e+15	8.912953e+13	5.088088e+14	1.737488e+04	6.020673e+03	3.113463e+03	0	1.660624e-03
1.200000e+08	7.333156e+13	0.000000e+00	4.195803e-01	1.194592e+15	9.271036e+13	5.060502e+14	1.725630e+04	6.053360e+03	3.130366e+03	0	1.642002e-03
1.300000e+08	7.093245e+13	0.000000e+00	4.195803e-01	1.159941e+15	9.630449e+13	5.033119e+14	1.714120e+04	6.085198e+03	3.146831e+03	0	1.623896e-03
1.400000e+08	6.864911e+13	0.000000e+00	4.195803e-01	1.126940e+15	9.990978e+13	5.005939e+14	1.702939e+04	6.116224e+03	3.162875e+03	0	1.606281e-03
1.500000e+08	6.647381e+13	0.000000e+00	4.195803e-01	1.095479e+15	1.035241e+14	4.978961e+14	1.692073e+04	6.146469e+03	3.178516e+03	0	1.589133e-03
1.600000e+08	6.439945e+13	0.000000e+00	4.195803e-01	1.065458e+15	1.071455e+14	4.952181e+14	1.681507e+04	6.175965e+03	3.193769e+03	0	1.572428e-03
1.700000e+08	6.241954e+13	0.000000e+00	4.195803e-01	1.036784e+15	1.107721e+14	4.925599e+14	1.671227e+04	6.204741e+03	3.208650e+03	0	1.556145e-03
1.800000e+08	6.052811e+13	0.000000e+00	4.195803e-01	1.009374e+15	1.144019e+14	4.899213e+14	1.661220e+04	6.232823e+03	3.223172e+03	0	1.540266e-03
1.900000e+08	5.871967e+13	0.000000e+00	4.195803e-01	9.831487e+14	1.180334e+14	4.873021e+14	1.651476e+04	6.260238e+03	3.237349e+03	0	1.524770e-03
2.000000e+08	5.698916e+13	0.000000e+00	4.195803e-01	9.580371e+14	1.216647e+14	4.847022e+14	1.641982e+04	6.287008e+03	3.251193e+03	0	1.509642e-03
2.100000e+08	5.533193e+13	0.000000e+00	4.195803e-01	9.339727e+14	1.252942e+14	4.821215e+14	1.632728e+04	6.313156e+03	3.264715e+03	0	1.494865e-03
2.200000e+08	5.374366e+13	0.000000e+00	4.195803e-01	9.108945e+14	1.289205e+14	4.795596e+14	1.623704e+04	6.338705e+03	3.277926e+03	0	1.480423e-03
2.300000e+08	5.222037e+13	0.000000e+00	4.195803e-01	8.887458e+14	1.325419e+14	4.770166e+14	1.614901e+04	6.363672e+03	3.290838e+03	0	1.466301e-03
2.400000e+08	5.075836e+13	0.000000e+00	4.195803e-01	8.674741e+14	1.361570e+14	4.744922e+14	1.606310e+04	6.388078e+03	3.303459e+03	0	1.452488e-03
2.500000e+08	4.935421e+13	0.000000e+00	4.195803e-01	8.470308e+14	1.397645e+14	4.719863e+14	1.597923e+04	6.411941e+03	3.315799e+03	0	1.438969e-03
2.600000e+08	4.800473e+13	0.000000e+00	4.195803e-01	8.273706e+14	1.433630e+14	4.694988e+14	1.589731e+04	6.435277e+03	3.327867e+03	0	1.425732e-03
2.700000e+08	4.670697e+13	0.000000e+00	4.195803e-01	8.084515e+14	1.469513e+14	4.670294e+14	1.581728e+04	6.458102e+03	3.339670e+03	0	1.412767e-03
2.800000e+08	4.545817e+13	0.000000e+00	4.195803e-01	7.902343e+14	1.505281e+14	4.645781e+14	1.573907e+04	6.480433e+03	3.351218e+03	0	1.400062e-03
2.900000e+08	4.425576e+13	0.000000e+00	4.195803e-01	7.726825e+14	1.540922e+14	4.621447e+14	1.566259e+04	6.502282e+03	3.362517e+03	0	1.387607e-03
3.000000e+08	4.309736e+13	0.000000e+00	4.195803e-01	7.557619e+14	1.576425e+14	4.597290e+14	1.558781e+04	6.523665e+03	3.373575e+03	0	1.375393e-03
3.100000e+08	4.198072e+13	0.000000e+00	4.195803e-01	7.394409e+14	1.611778e+14	4.573309e+14	1.551464e+04	6.544594e+03	3.384398e+03	0	1.363410e-03
3.200000e+08	4.090376e+13	0.000000e+00	4.195803e-01	7.236895e+14	1.646972e+14	4.549502e+14	1.544305e+04	6.565081e+03	3.394992e+03	0	1.351650e-03
3.300000e+08	3.986451e+13	0.000000e+00	4.195803e-01	7.084799e+14	1.681996e+14	4.525869e+14	1.537296e+04	6.585140e+03	3.405365e+03	0	1.340105e-03
3.400000e+08	3.886114e+13	0.000000e+00	4.195803e-01	6.937861e+14	1.716841e+14	4.502407e+14	1.530434e+04	6.604780e+03	3.415522e+03	0	1.328766e-03
3.500000e+08	3.789194e+13	0.000000e+00	4.195803e-01	6.795834e+14	1.751497e+14	4.479115e+14	1.523712e+04	6.624014e+03	3.425468e+03	0	1.317626e-03
3.600000e+08	3.695528e+13	0.000000e+00	4.195803e-01	6.658488e+14	1.785955e+14	4.455993e+14	1.517128e+04	6.642851e+03	3.435209e+03	0	1.306679e-03
3.700000e+08	3.604966e+13	0.000000e+00	4.195803e-01	6.525608e+14	1.820207e+14	4.433037e+14	1.510675e+04	6.661302e+03	3.444751e+03	0	1.295916e-03
3.800000e+08	3.517364e+13	0.000000e+00	4.195803e-01	6.396990e+14	1.854244e+14	4.410248e+14	1.504350e+04	6.679377e+03	3.454098e+03	0	1.285333e-03
3.900000e+08	3.432588e+13	0.000000e+00	4.195803e-01	6.272443e+14	1.888058e+14	4.387624e+14	1.498149e+04	6.697083e+03	3.463254e+03	0	1.274923e-03
4.000000e+08	3.350513e+13	0.000000e+00	4.195803e-01	6.151786e+14	1.921643e+14	4.365163e+14	1.492068e+04	6.714431e+03	3.472226e+03	0	1.264679e-03
4.100000e+08	3.271019e+13	0.000000e+00	4.195803e-01	6.034849e+14	1.954990e+14	4.342864e+14	1.486102e+04	6.731429e+03	3.481016e+03	0	1.254597e-03
4.200000e+08	3.193994e+13	0.000000e+00	4.195803e-01	5.921472e+14	1.988094e+14	4.320726e+14	1.480250e+04	6.748085e+03	3.489629e+03	0	1.244671e-03
4.300000e+08	3.119331e+13	0.000000e+00	4.195803e-01	5.811504e+14	2.020946e+14	4.298747e+14	1.474506e+04	6.764407e+03	3.498069e+03	0	1.234896e-03
4.400000e+08	3.046930e+13	0.000000e+00	4.195803e-01	5.704800e+14	2.053542e+14	4.276926e+14	1.468869e+04	6.780402e+03	3.506341e+03	0	1.225267e-03
4.500000e+08	2.976697e+13	0.000000e+00	4.195803e-01	5.601226e+14	2.085874e+14	4.255262e+14	1.463334e+04	6.796078e+03	3.514447e+03	0	1.215780e-03
4.600000e+08	2.908543e+13	0.000000e+00	4.195803e-01	5.500654e+14	2.117938e+14	4.233754e+14	1.457899e+04	6.811442e+03	3.522392e+03	0	1.206429e-03
4.700000e+08	2.842381e+13	0.000000e+00	4.195803e-01	5.402962e+14	2.149728e+14	4.212399e+14	1.452561e+04	6.826500e+03	3.530179e+03	0	1.197211e-03
4.800000e+08	2.778132e+13	0.000000e+00	4.195803e-01	5.308034e+14	2.181238e+14	4.191198e+14	1.447317e+04	6.841259e+03	3.537812e+03	0	1.188122e-03
4.900000e+08	2.715720e+13	0.000000e+00	4.195803e-01	5.215763e+14	2.212465e+14	4.170149e+14	1.442164e+04	6.855726e+03	3.545293e+03	0	1.179157e-03
5.000000e+08	2.655072e+13	0.000000e+00	4.195803e-01	5.126044e+14	2.243402e+14	4.149250e+14	1.437101e+04	6.869907e+03	3.552627e+03	0	1.170313e-03
5.100000e+08	2.596119e+13	0.000000e+00	4.195803e-01	5.038779e+14	2.274046e+14	4.128501e+14	1.432124e+04	6.883807e+03	3.559815e+03	0	1.161586e-03
5.200000e+08	2.538797e+13	0.000000e+00	4.195803e-01	4.953874e+14	2.304394e+14	4.107899e+14	1.427231e+04	6.897433e+03	3.566861e+03	0	1.152973e-03
5.300000e+08	2.483043e+13	0.000000e+00	4.195803e-01	4.871242e+14	2.334440e+14	4.087445e+14	1.422420e+04	6.910789e+03	3.573768e+03	0	1.144471e-03
5.400000e+08	2.428799e+13	0.000000e+00	4.195803e-01	4.790796e+14	2.364180e+14	4.067136e+14	1.417689e+04	6.923882e+03	3.580539e+03	0	1.136075e-03
5.500000e+08	2.376008e+13	0.000000e+00	4.195803e-01	4.712458e+14	2.393613e+14	4.046971e+14	1.413036e+04	6.936717e+03	3.587176e+03	0	1.127784e-03
5.600000e+08	2.324617e+13	0.000000e+00	4.195803e-01	4.636150e+14	2.422734e+14	4.026950e+14	1.408458e+04	6.949298e+03	3.593682e+03	0	1.119594e-03
5.700000e+08	2.274575e+13	0.000000e+00	4.195803e-01	4.561799e+14	2.451541e+14	4.007072e+14	1.403954e+04	6.961630e+03	3.600059e+03	0	1.111501e-03
5.800000e+08	2.225833e+13	0.000000e+00	4.195803e-01	4.489336e+14	2.480030e+14	3.987334e+14	1.399522e+04	6.973719e+03	3.606311e+03	0	1.103505e-03
5.900000e+08	2.178346e+13	0.000000e+00	4.195803e-01	4.418695e+14	2.508200e+14	3.967736e+14	1.395160e+04	6.985569e+03	3.612439e+03	0	1.095601e-03
6.000000e+08	2.132069e+13	0.000000e+00	4.195803e-01	4.349811e+14	2.536047e+14	3.948277e+14	1.390865e+04	6.997184e+03	3.618445e+03	0	1.087787e-03
6.100000e+08	2.086960e+13	0.000000e+00	4.195803e-01	4.282625e+14	2.563571e+14	3.928955e+14	1.386638e+04	7.008570e+03	3.624333e+03	0	1.080060e-03
6.200000e+08	2.042979e+13	0.000000e+00	4.195803e-01	4.217078e+14	2.590768e+14	3.909770e+14	1.382475e+04	7.019729e+03	3.630104e+03	0	1.072419e-03
6.300000e+08	2.000088e+13	0.000000e+00	4.195803e-01	4.153116e+14	2.617636e+14	3.890721e+14	1.378376e+04	7.030667e+03	3.635760e+03	0	1.064861e-03
6.400000e+08	1.958249e+13	0.000000e+00	4.195803e-01	4.090685e+14	2.644175e+14	3.871806e+14	1.374339e+04	7.041388e+03	3.641304e+03	0	1.057384e-03
6.500000e+08	1.917427e+13	0.000000e+00	4.195803e-01	4.029736e+14	2.670383e+14	3.853024e+14	1.370362e+04	7.051895e+03	3.646737e+03	0	1.049985e-03
6.600000e+08	1.877590e+13	0.000000e+00	4.195803e-01	3.970218e+14	2.696259e+14	3.834374e+14	1.366444e+04	7.062192e+03	3.652062e+03	0	1.042662e-03
6.700000e+08	1.838704e+13	0.000000e+00	4.195803e-01	3.912088e+14	2.721801e+14	3.815855e+14	1.362583e+04	7.072283e+03	3.657281e+03	0	1.035414e-03
6.800000e+08	1.800738e+13	0.000000e+00	4.195803e-01	3.855298e+14	2.747009e+14	3.797467e+14	1.358779e+04	7.082172e+03	3.662395e+03	0	1.028238e-03
6.900000e+08	1.763664e+13	0.000000e+00	4.195803e-01	3.799809e+14	2.771880e+14	3.779207e+14	1.355029e+04	7.091862e+03	3.667406e+03	0	1.021132e-03
7.000000e+08	1.727453e+13	0.000000e+00	4.195803e-01	3.745577e+14	2.796417e+14	3.761076e+14	1.351334e+04	7.101357e+03	3.672316e+03	0	1.014095e-03
7.100000e+08	1.692078e+13	0.000000e+00	4.195803e-01	3.692565e+14	2.820617e+14	3.743071e+14	1.347690e+04	7.110660e+03	3.677127e+03	0	1.007125e-03
7.200000e+08	1.657512e+13	0.000000e+00	4.195803e-01	3.640734e+14	2.844480e+14	3.725192e+14	1.344099e+04	7.119775e+03	3.681840e+03	0	1.000220e-03
7.300000e+08	1.623731e+13	0.000000e+00	4.195803e-01	3.590049e+14	2.868007e+14	3.707438e+14	1.340557e+04	7.128704e+03	3.686458e+03	0	9.933782e-04
7.400000e+08	1.590710e+13	0.000000e+00	4.195803e-01	3.540475e+14	2.891196e+14	3.689809e+14	1.337064e+04	7.137452e+03	3.690982e+03	0	9.865982e-04
7.500000e+08	1.558427e+13	0.000000e+00	4.195803e-01	3.491978e+14	2.914049e+14	3.672302e+14	1.333619e+04	7.146021e+03	3.695413e+03	0	9.798782e-04
7.600000e+08	1.526859e+13	0.000000e+00	4.195803e-01	3.444527e+14	2.936566e+14	3.654917e+14	1.330222e+04	7.154413e+03	3.699753e+03	0	9.732168e-04
7.700000e+08	1.495985e+13	0.000000e+00	4.195803e-01	3.398091e+14	2.958745e+14	3.637653e+14	1.326870e+04	7.162633e+03	3.704004e+03	0	9.666125e-04
7.800000e+08	1.465785e+13	0.000000e+00	4.195803e-01	3.352640e+14	2.980589e+14	3.620509e+14	1.323563e+04	7.170683e+03	3.708167e+03	0	9.600636e-04
7.900000e+08	1.436238e+13	0.000000e+00	4.195803e-01	3.308145e+14	3.002098e+14	3.603484e+14	1.320300e+04	7.178566e+03	3.712243e+03	0	9.535689e-04
8.000000e+08	1.407326e+13	0.000000e+00	4.195803e-01	3.264580e+14	3.023272e+14	3.586577e+14	1.317080e+04	7.186285e+03	3.716235e+03	0	9.471269e-04
8.100000e+08	1.379030e+13	0.000000e+00	4.195803e-01	3.221917e+14	3.044112e+14	3.569787e+14	1.313903e+04	7.193842e+03	3.720143e+03	0	9.407362e-04
8.200000e+08	1.351333e+13	0.000000e+00	4.195803e-01	3.180132e+14	3.064619e+14	3.553113e+14	1.310767e+04	7.201240e+03	3.723969e+03	0	9.343956e-04
8.300000e+08	1.324218e+13	0.000000e+00	4.195803e-01	3.139200e+14	3.084795e+14	3.536555e+14	1.307671e+04	7.208483e+03	3.727714e+03	0	9.281037e-04
8.400000e+08	1.297669e+13	0.000000e+00	4.195803e-01	3.099096e+14	3.104639e+14	3.520111e+14	1.304615e+04	7.215571e+03	3.731379e+03	0	9.218592e-04
8.500000e+08	1.271669e+13	0.000000e+00	4.195803e-01	3.059800e+14	3.124153e+14	3.503781e+14	1.301598e+04	7.222508e+03	3.734967e+03	0	9.156609e-04
8.600000e+08	1.246204e+13	0.000000e+00	4.195803e-01	3.021287e+14	3.143339e+14	3.487563e+14	1.298619e+04	7.229297e+03	3.738477e+03	0	9.095076e-04
8.700000e+08	1.221259e+13	0.000000e+00	4.195803e-01	2.983538e+14	3.162198e+14	3.471456e+14	1.295677e+04	7.235939e+03	3.741912e+03	0	9.033982e-04
8.800000e+08	1.196820e+13	0.000000e+00	4.195803e-01	2.946531e+14	3.180731e+14	3.455461e+14	1.292772e+04	7.242438e+03	3.745273e+03	0	8.973313e-04
8.900000e+08	1.172872e+13	0.000000e+00	4.195803e-01	2.910247e+14	3.198940e+14	3.439575e+14	1.289902e+04	7.248795e+03	3.748560e+03	0	8.913060e-04
9.000000e+08	1.149404e+13	0.000000e+00	4.195803e-01	2.874667e+14	3.216826e+14	3.423799e+14	1.287068e+04	7.255013e+03	3.751776e+03	0	8.853211e-04
9.100000e+08	1.126402e+13	0.000000e+00	4.195803e-01	2.839772e+14	3.234391e+14	3.408131e+14	1.284269e+04	7.261094e+03	3.754920e+03	0	8.793755e-04
9.200000e+08	1.103853e+13	0.000000e+00	4.195803e-01	2.805544e+14	3.251636e+14	3.392569e+14	1.281503e+04	7.267040e+03	3.757995e+03	0	8.734681e-04
9.300000e+08	1.081747e+13	0.000000e+00	4.195803e-01	2.771967e+14	3.268565e+14	3.377115e+14	1.278770e+04	7.272854e+03	3.761002e+03	0	8.675979e-04
9.400000e+08	1.060071e+13	0.000000e+00	4.195803e-01	2.739024e+14	3.285178e+14	3.361766e+14	1.276070e+04	7.278537e+03	3.763941e+03	0	8.617639e-04
9.500000e+08	1.038815e+13	0.000000e+00	4.195803e-01	2.706698e+14	3.301478e+14	3.346522e+14	1.273402e+04	7.284092e+03	3.766813e+03	0	8.559650e-04
9.600000e+08	1.017967e+13	0.000000e+00	4.195803e-01	2.674973e+14	3.317464e+14	3.331381e+14	1.270766e+04	7.289520e+03	3.769621e+03	0	8.502002e-04
9.700000e+08	9.975179e+12	0.000000e+00	4.195803e-01	2.643836e+14	3.333143e+14	3.316344e+14	1.268160e+04	7.294824e+03	3.772364e+03	0	8.444686e-04
9.800000e+08	9.774568e+12	0.000000e+00	4.195803e-01	2.613271e+14	3.348513e+14	3.301409e+14	1.265584e+04	7.300006e+03	3.775043e+03	0	8.387692e-04
9.900000e+08	9.577742e+12	0.000000e+00	4.195803e-01	2.583263e+14	3.363578e+14	3.286576e+14	1.263038e+04	7.305068e+03	3.777661e+03	0	8.331010e-04
1.000000e+09	9.384606e+12	0.000000e+00	4.195803e-01	2.553800e+14	3.378339e+14	3.271843e+14	1.260521e+04	7.310011e+03	3.780217e+03	0	8.274631e-04
1.010000e+09	9.195070e+12	0.000000e+00	4.195803e-01	2.524868e+14	3.392800e+14	3.257210e+14	1.258033e+04	7.314838e+03	3.782713e+03	0	8.218545e-04
1.020000e+09	9.009045e+12	0.000000e+00	4.195803e-01	2.496455e+14	3.406963e+14	3.242677e+14	1.255572e+04	7.319549e+03	3.785149e+03	0	8.162744e-04
1.030000e+09	8.826446e+12	0.000000e+00	4.195803e-01	2.468547e+14	3.420828e+14	3.228242e+14	1.253140e+04	7.324148e+03	3.787528e+03	0	8.107219e-04
1.040000e+09	8.647189e+12	0.000000e+00	4.195803e-01	2.441132e+14	3.434399e+14	3.213904e+14	1.250734e+04	7.328636e+03	3.789848e+03	0	8.051960e-04
1.050000e+09	8.471194e+12	0.000000e+00	4.195803e-01	2.414200e+14	3.447679e+14	3.199663e+14	1.248355e+04	7.333015e+03	3.792113e+03	0	7.996958e-04
1.060000e+09	8.298383e+12	0.000000e+00	4.195803e-01	2.387738e+14	3.460670e+14	3.185518e+14	1.246002e+04	7.337285e+03	3.794321e+03	0	7.942205e-04
1.070000e+09	8.128681e+12	0.000000e+00	4.195803e-01	2.361736e+14	3.473374e+14	3.171469e+14	1.243675e+04	7.341450e+03	3.796475e+03	0	7.887693e-04
1.080000e+09	7.962014e+12	0.000000e+00	4.195803e-01	2.336183e+14	3.485793e+14	3.157514e+14	1.241373e+04	7.345511e+03	3.798575e+03	0	7.833411e-04
1.090000e+09	7.798310e+12	0.000000e+00	4.195803e-01	2.311068e+14	3.497931e+14	3.143652e+14	1.239096e+04	7.349468e+03	3.800621e+03	0	7.779352e-04
1.100000e+09	7.637502e+12	0.000000e+00	4.195803e-01	2.286381e+14	3.509789e+14	3.129884e+14	1.236844e+04	7.353325e+03	3.802616e+03	0	7.725508e-04
1.110000e+09	7.479521e+12	0.000000e+00	4.195803e-01	2.262114e+14	3.521371e+14	3.116208e+14	1.234615e+04	7.357083e+03	3.804559e+03	0	7.671869e-04
1.120000e+09	7.324302e+12	0.000000e+00	4.195803e-01	2.238255e+14	3.532678e+14	3.102624e+14	1.232410e+04	7.360742e+03	3.806451e+03	0	7.618428e-04
1.130000e+09	7.171783e+12	0.000000e+00	4.195803e-01	2.214797e+14	3.543715e+14	3.089131e+14	1.230228e+04	7.364305e+03	3.808294e+03	0	7.565175e-04
1.140000e+09	7.021903e+12	0.000000e+00	4.195803e-01	2.191729e+14	3.554483e+14	3.075728e+14	1.228069e+04	7.367773e+03	3.810087e+03	0	7.512103e-04
1.150000e+09	6.874600e+12	0.000000e+00	4.195803e-01	2.169044e+14	3.564984e+14	3.062414e+14	1.225932e+04	7.371148e+03	3.811833e+03	0	7.459203e-04
1.160000e+09	6.729818e+12	0.000000e+00	4.195803e-01	2.146733e+14	3.575221e+14	3.049190e+14	1.223817e+04	7.374431e+03	3.813530e+03	0	7.406466e-04
1.170000e+09	6.587501e+12	0.000000e+00	4.195803e-01	2.124787e+14	3.585198e+14	3.036053e+14	1.221724e+04	7.377624e+03	3.815181e+03	0	7.353885e-04
1.180000e+09	6.447593e+12	0.000000e+00	4.195803e-01	2.103199e+14	3.594917e+14	3.023004e+14	1.219652e+04	7.380727e+03	3.816786e+03	0	7.301450e-04
1.190000e+09	6.310041e+12	0.000000e+00	4.195803e-01	2.081961e+14	3.604380e+14	3.010041e+14	1.217602e+04	7.383743e+03	3.818346e+03	0	7.249154e-04
1.200000e+09	6.174794e+12	0.000000e+00	4.195803e-01	2.061065e+14	3.613590e+14	2.997165e+14	1.215571e+04	7.386672e+03	3.819861e+03	0	7.196988e-04
1.210000e+09	6.041801e+12	0.000000e+00	4.195803e-01	2.040504e+14	3.622551e+14	2.984374e+14	1.213562e+04	7.389517e+03	3.821332e+03	0	7.144943e-04
1.220000e+09	5.911013e+12	0.000000e+00	4.195803e-01	2.020271e+14	3.631264e+14	2.971667e+14	1.211572e+04	7.392278e+03	3.822759e+03	0	7.093010e-04
1.230000e+09	5.782383e+12	0.000000e+00	4.195803e-01	2.000358e+14	3.639731e+14	2.959045e+14	1.209602e+04	7.394956e+03	3.824145e+03	0	7.041182e-04
1.240000e+09	5.655864e+12	0.000000e+00	4.195803e-01	1.980760e+14	3.647958e+14	2.946506e+14	1.207651e+04	7.397554e+03	3.825488e+03	0	6.989449e-04
1.250000e+09	5.531412e+12	0.000000e+00	4.195803e-01	1.961469e+14	3.655944e+14	2.934050e+14	1.205719e+04	7.400072e+03	3.826790e+03	0	6.937803e-04
1.260000e+09	5.408983e+12	0.000000e+00	4.195803e-01	1.942480e+14	3.663695e+14	2.921676e+14	1.203806e+04	7.402511e+03	3.828051e+03	0	6.886234e-04
1.270000e+09	5.288533e+12	0.000000e+00	4.195803e-01	1.923785e+14	3.671211e+14	2.909384e+14	1.201911e+04	7.404873e+03	3.829273e+03	0	6.834735e-04
1.280000e+09	5.170021e+12	0.000000e+00	4.195803e-01	1.905378e+14	3.678498e+14	2.897172e+14	1.200035e+04	7.407159e+03	3.830455e+03	0	6.783295e-04
1.290000e+09	5.053407e+12	0.000000e+00	4.195803e-01	1.887255e+14	3.685554e+14	2.885041e+14	1.198177e+04	7.409370e+03	3.831598e+03	0	6.731906e-04
1.300000e+09	4.938651e+12	0.000000e+00	4.195803e-01	1.869408e+14	3.692386e+14	2.872989e+14	1.196336e+04	7.411508e+03	3.832704e+03	0	6.680558e-04
1.310000e+09	4.825715e+12	0.000000e+00	4.195803e-01	1.851833e+14	3.698995e+14	2.861017e+14	1.194512e+04	7.413572e+03	3.833771e+03	0	6.629242e-04
1.320000e+09	4.714562e+12	0.000000e+00	4.195803e-01	1.834523e+14	3.705383e+14	2.849122e+14	1.192706e+04	7.415566e+03	3.834802e+03	0	6.577947e-04
1.330000e+09	4.605154e+12	0.000000e+00	4.195803e-01	1.817475e+14	3.711554e+14	2.837306e+14	1.190916e+04	7.417489e+03	3.835797e+03	0	6.526665e-04
1.340000e+09	4.497457e+12	0.000000e+00	4.195803e-01	1.800681e+14	3.717511e+14	2.825567e+14	1.189143e+04	7.419342e+03	3.836755e+03	0	6.475385e-04
1.350000e+09	4.391435e+12	0.000000e+00	4.195803e-01	1.784137e+14	3.723254e+14	2.813904e+14	1.187387e+04	7.421128e+03	3.837679e+03	0	6.424097e-04
1.360000e+09	4.287056e+12	0.000000e+00	4.195803e-01	1.767839e+14	3.728789e+14	2.802317e+14	1.185646e+04	7.422847e+03	3.838567e+03	0	6.372791e-04
