#t		Qconv[W]	Ri[Rp]		R*[Rp]		Qc[W]		Qm[W]		Qr[W]		Tcmb[K]		Tl[K]		Tup[K]		RiFlag		Bs[T]
0.000000e+00	1.348582e+14	0.000000e+00	4.195804e-01	2.026588e+15	4.703889e+13	5.740922e+14	2.017219e+04	5.790358e+03	2.932376e+03	0	2.013021e-03
1.000000e+07	1.292963e+14	0.000000e+00	4.195804e-01	1.950297e+15	5.016318e+13	5.709113e+14	1.999030e+04	5.838683e+03	2.956849e+03	0	1.984958e-03
2.000000e+07	1.240837e+14	0.000000e+00	4.195804e-01	1.878744e+15	5.333924e+13	5.677542e+14	1.981515e+04	5.885443e+03	2.980529e+03	0	1.957917e-03
3.000000e+07	1.191903e+14	0.000000e+00	4.195804e-01	1.811523e+15	5.656339e+13	5.646207e+14	1.964633e+04	5.930728e+03	3.003462e+03	0	1.931833e-03
4.000000e+07	1.145891e+14	0.000000e+00	4.195804e-01	1.748270e+15	5.983214e+13	5.615106e+14	1.948347e+04	5.974618e+03	3.025689e+03	0	1.906647e-03
5.000000e+07	1.102562e+14	0.000000e+00	4.195804e-01	1.688661e+15	6.314213e+13	5.584237e+14	1.932621e+04	6.017188e+03	3.047248e+03	0	1.882306e-03
6.000000e+07	1.061700e+14	0.000000e+00	4.195804e-01	1.632405e+15	6.649021e+13	5.553598e+14	1.917423e+04	6.058508e+03	3.068173e+03	0	1.858759e-03
7.000000e+07	1.023112e+14	0.000000e+00	4.195804e-01	1.579241e+15	6.987333e+13	5.523187e+14	1.902725e+04	6.098640e+03	3.088497e+03	0	1.835961e-03
8.000000e+07	9.866222e+13	0.000000e+00	4.195804e-01	1.528932e+15	7.328858e+13	5.493002e+14	1.888500e+04	6.137643e+03	3.108249e+03	0	1.813870e-03
9.000000e+07	9.520742e+13	0.000000e+00	4.195804e-01	1.481265e+15	7.673324e+13	5.463042e+14	1.874722e+04	6.175570e+03	3.127457e+03	0	1.792446e-03
1.000000e+08	9.193251e+13	0.000000e+00	4.195804e-01	1.436046e+15	8.020461e+13	5.433304e+14	1.861367e+04	6.212473e+03	3.146145e+03	0	1.771654e-03
1.100000e+08	8.882452e+13	0.000000e+00	4.195804e-01	1.393102e+15	8.370020e+13	5.403787e+14	1.848416e+04	6.248396e+03	3.164337e+03	0	1.751460e-03
1.200000e+08	8.587170e+13	0.000000e+00	4.195804e-01	1.352272e+15	8.721755e+13	5.374488e+14	1.835847e+04	6.283384e+03	3.182056e+03	0	1.731833e-03
1.300000e+08	8.306332e+13	0.000000e+00	4.195804e-01	1.313411e+15	9.075435e+13	5.345407e+14	1.823642e+04	6.317476e+03	3.199321e+03	0	1.712743e-03
1.400000e+08	8.038961e+13	0.000000e+00	4.195804e-01	1.276387e+15	9.430838e+13	5.316541e+14	1.811783e+04	6.350709e+03	3.216151e+03	0	1.694166e-03
1.500000e+08	7.784161e+13	0.000000e+00	4.195804e-01	1.241078e+15	9.787747e+13	5.287888e+14	1.800255e+04	6.383119e+03	3.232564e+03	0	1.676074e-03
1.600000e+08	7.541113e+13	0.000000e+00	4.195804e-01	1.207373e+15	1.014596e+14	5.259447e+14	1.789043e+04	6.414739e+03	3.248577e+03	0	1.658445e-03
1.700000e+08	7.309066e+13	0.000000e+00	4.195804e-01	1.175171e+15	1.050528e+14	5.231215e+14	1.778131e+04	6.445597e+03	3.264205e+03	0	1.641257e-03
1.800000e+08	7.087330e+13	0.000000e+00	4.195804e-01	1.144377e+15	1.086551e+14	5.203192e+14	1.767508e+04	6.475725e+03	3.279462e+03	0	1.624489e-03
1.900000e+08	6.875268e+13	0.000000e+00	4.195804e-01	1.114906e+15	1.122647e+14	5.175375e+14	1.757160e+04	6.505147e+03	3.294362e+03	0	1.608122e-03
2.000000e+08	6.672294e+13	0.000000e+00	4.195804e-01	1.086678e+15	1.158799e+14	5.147763e+14	1.747075e+04	6.533891e+03	3.308918e+03	0	1.592139e-03
2.100000e+08	6.477869e+13	0.000000e+00	4.195804e-01	1.059619e+15	1.194989e+14	5.120354e+14	1.737244e+04	6.561978e+03	3.323143e+03	0	1.576522e-03
2.200000e+08	6.291492e+13	0.000000e+00	4.195804e-01	1.033662e+15	1.231202e+14	5.093146e+14	1.727654e+04	6.589433e+03	3.337046e+03	0	1.561255e-03
2.300000e+08	6.112700e+13	0.000000e+00	4.195804e-01	1.008744e+15	1.267422e+14	5.066138e+14	1.718298e+04	6.616276e+03	3.350640e+03	0	1.546323e-03
2.400000e+08	5.941065e+13	0.000000e+00	4.195804e-01	9.848064e+14	1.303633e+14	5.039328e+14	1.709164e+04	6.642527e+03	3.363935e+03	0	1.531713e-03
2.500000e+08	5.776188e+13	0.000000e+00	4.195804e-01	9.617949e+14	1.339821e+14	5.012714e+14	1.700246e+04	6.668205e+03	3.376939e+03	0	1.517410e-03
2.600000e+08	5.617700e+13	0.000000e+00	4.195804e-01	9.396596e+14	1.375972e+14	4.986296e+14	1.691533e+04	6.693329e+03	3.389662e+03	0	1.503403e-03
2.700000e+08	5.465257e+13	0.000000e+00	4.195804e-01	9.183534e+14	1.412072e+14	4.960070e+14	1.683020e+04	6.717915e+03	3.402113e+03	0	1.489679e-03
2.800000e+08	5.318538e+13	0.000000e+00	4.195804e-01	8.978330e+14	1.448108e+14	4.934036e+14	1.674698e+04	6.741979e+03	3.414299e+03	0	1.476228e-03
2.900000e+08	5.177245e+13	0.000000e+00	4.195804e-01	8.780575e+14	1.484068e+14	4.908191e+14	1.666560e+04	6.765537e+03	3.426230e+03	0	1.463037e-03
3.000000e+08	5.041099e+13	0.000000e+00	4.195804e-01	8.589891e+14	1.519939e+14	4.882535e+14	1.658599e+04	6.788604e+03	3.437911e+03	0	1.450099e-03
3.100000e+08	4.909839e+13	0.000000e+00	4.195804e-01	8.405923e+14	1.555711e+14	4.857067e+14	1.650811e+04	6.811192e+03	3.449351e+03	0	1.437402e-03
3.200000e+08	4.783222e+13	0.000000e+00	4.195804e-01	8.228338e+14	1.591370e+14	4.831783e+14	1.643187e+04	6.833317e+03	3.460555e+03	0	1.424938e-03
3.300000e+08	4.661019e+13	0.000000e+00	4.195804e-01	8.056826e+14	1.626908e+14	4.806683e+14	1.635723e+04	6.854990e+03	3.471531e+03	0	1.412699e-03
3.400000e+08	4.543018e+13	0.000000e+00	4.195804e-01	7.891096e+14	1.662312e+14	4.781766e+14	1.628414e+04	6.876223e+03	3.482284e+03	0	1.400675e-03
3.500000e+08	4.429017e+13	0.000000e+00	4.195804e-01	7.730873e+14	1.697574e+14	4.757029e+14	1.621254e+04	6.897029e+03	3.492820e+03	0	1.388860e-03
3.600000e+08	4.318828e+13	0.000000e+00	4.195804e-01	7.575901e+14	1.732682e+14	4.732472e+14	1.614237e+04	6.917417e+03	3.503146e+03	0	1.377245e-03
3.700000e+08	4.212274e+13	0.000000e+00	4.195804e-01	7.425938e+14	1.767629e+14	4.708092e+14	1.607361e+04	6.937399e+03	3.513265e+03	0	1.365824e-03
3.800000e+08	4.109189e+13	0.000000e+00	4.195804e-01	7.280758e+14	1.802405e+14	4.683889e+14	1.600619e+04	6.956985e+03	3.523184e+03	0	1.354590e-03
3.900000e+08	4.009416e+13	0.000000e+00	4.195804e-01	7.140146e+14	1.837001e+14	4.659861e+14	1.594009e+04	6.976185e+03	3.532907e+03	0	1.343537e-03
4.000000e+08	3.912807e+13	0.000000e+00	4.195804e-01	7.003901e+14	1.871409e+14	4.636006e+14	1.587525e+04	6.995007e+03	3.542439e+03	0	1.332658e-03
4.100000e+08	3.819225e+13	0.000000e+00	4.195804e-01	6.871833e+14	1.905620e+14	4.612323e+14	1.581163e+04	7.013461e+03	3.551784e+03	0	1.321948e-03
4.200000e+08	3.728536e+13	0.000000e+00	4.195804e-01	6.743763e+14	1.939628e+14	4.588812e+14	1.574921e+04	7.031555e+03	3.560948e+03	0	1.311400e-03
4.300000e+08	3.640618e+13	0.000000e+00	4.195804e-01	6.619520e+14	1.973425e+14	4.565469e+14	1.568795e+04	7.049298e+03	3.569933e+03	0	1.301011e-03
4.400000e+08	3.555352e+13	0.000000e+00	4.195804e-01	6.498945e+14	2.007003e+14	4.542294e+14	1.562780e+04	7.066698e+03	3.578745e+03	0	1.290774e-03
4.500000e+08	3.472630e+13	0.000000e+00	4.195804e-01	6.381886e+14	2.040356e+14	4.519286e+14	1.556874e+04	7.083762e+03	3.587387e+03	0	1.280684e-03
4.600000e+08	3.392344e+13	0.000000e+00	4.195804e-01	6.268199e+14	2.073477e+14	4.496443e+14	1.551074e+04	7.100498e+03	3.595862e+03	0	1.270738e-03
4.700000e+08	3.314397e+13	0.000000e+00	4.195804e-01	6.157750e+14	2.106361e+14	4.473764e+14	1.545377e+04	7.116913e+03	3.604175e+03	0	1.260929e-03
4.800000e+08	3.238695e+13	0.000000e+00	4.195804e-01	6.050408e+14	2.139001e+14	4.451248e+14	1.539779e+04	7.133014e+03	3.612329e+03	0	1.251255e-03
4.900000e+08	3.165147e+13	0.000000e+00	4.195804e-01	5.946052e+14	2.171391e+14	4.428892e+14	1.534278e+04	7.148807e+03	3.620327e+03	0	1.241711e-03
5.000000e+08	3.093670e+13	0.000000e+00	4.195804e-01	5.844566e+14	2.203527e+14	4.406697e+14	1.528872e+04	7.164299e+03	3.628173e+03	0	1.232293e-03
5.100000e+08	3.024182e+13	0.000000e+00	4.195804e-01	5.745839e+14	2.235401e+14	4.384660e+14	1.523557e+04	7.179497e+03	3.635869e+03	0	1.222996e-03
5.200000e+08	2.956609e+13	0.000000e+00	4.195804e-01	5.649767e+14	2.267011e+14	4.362780e+14	1.518331e+04	7.194405e+03	3.643419e+03	0	1.213819e-03
5.300000e+08	2.890877e+13	0.000000e+00	4.195804e-01	5.556251e+14	2.298351e+14	4.341056e+14	1.513192e+04	7.209031e+03	3.650826e+03	0	1.204756e-03
5.400000e+08	2.826916e+13	0.000000e+00	4.195804e-01	5.465195e+14	2.329417e+14	4.319487e+14	1.508138e+04	7.223379e+03	3.658092e+03	0	1.195805e-03
5.500000e+08	2.764663e+13	0.000000e+00	4.195804e-01	5.376510e+14	2.360203e+14	4.298072e+14	1.503166e+04	7.237455e+03	3.665221e+03	0	1.186961e-03
5.600000e+08	2.704053e+13	0.000000e+00	4.195804e-01	5.290109e+14	2.390708e+14	4.276809e+14	1.498274e+04	7.251265e+03	3.672214e+03	0	1.178223e-03
5.700000e+08	2.645028e+13	0.000000e+00	4.195804e-01	5.205911e+14	2.420926e+14	4.255696e+14	1.493460e+04	7.264814e+03	3.679075e+03	0	1.169587e-03
5.800000e+08	2.587530e+13	0.000000e+00	4.195804e-01	5.123838e+14	2.450854e+14	4.234734e+14	1.488722e+04	7.278106e+03	3.685807e+03	0	1.161050e-03
5.900000e+08	2.531505e+13	0.000000e+00	4.195804e-01	5.043814e+14	2.480489e+14	4.213920e+14	1.484059e+04	7.291146e+03	3.692411e+03	0	1.152609e-03
6.000000e+08	2.476902e+13	0.000000e+00	4.195804e-01	4.965770e+14	2.509826e+14	4.193254e+14	1.479468e+04	7.303940e+03	3.698890e+03	0	1.144262e-03
6.100000e+08	2.423671e+13	0.000000e+00	4.195804e-01	4.889637e+14	2.538865e+14	4.172733e+14	1.474948e+04	7.316492e+03	3.705246e+03	0	1.136006e-03
6.200000e+08	2.371766e+13	0.000000e+00	4.195804e-01	4.815351e+14	2.567601e+14	4.152358e+14	1.470496e+04	7.328806e+03	3.711482e+03	0	1.127837e-03
6.300000e+08	2.321140e+13	0.000000e+00	4.195804e-01	4.742849e+14	2.596032e+14	4.132127e+14	1.466112e+04	7.340886e+03	3.717600e+03	0	1.119755e-03
6.400000e+08	2.271752e+13	0.000000e+00	4.195804e-01	4.672071e+14	2.624157e+14	4.112038e+14	1.461794e+04	7.352737e+03	3.723602e+03	0	1.111756e-03
6.500000e+08	2.223559e+13	0.000000e+00	4.195804e-01	4.602962e+14	2.651971e+14	4.092091e+14	1.457539e+04	7.364364e+03	3.729490e+03	0	1.103838e-03
6.600000e+08	2.176522e+13	0.000000e+00	4.195804e-01	4.535467e+14	2.679474e+14	4.072284e+14	1.453348e+04	7.375769e+03	3.735266e+03	0	1.095999e-03
6.700000e+08	2.130604e+13	0.000000e+00	4.195804e-01	4.469534e+14	2.706664e+14	4.052616e+14	1.449217e+04	7.386957e+03	3.740932e+03	0	1.088237e-03
6.800000e+08	2.085769e+13	0.000000e+00	4.195804e-01	4.405112e+14	2.733538e+14	4.033086e+14	1.445146e+04	7.397932e+03	3.746490e+03	0	1.080549e-03
6.900000e+08	2.041981e+13	0.000000e+00	4.195804e-01	4.342155e+14	2.760095e+14	4.013694e+14	1.441133e+04	7.408697e+03	3.751942e+03	0	1.072934e-03
7.000000e+08	1.999207e+13	0.000000e+00	4.195804e-01	4.280616e+14	2.786335e+14	3.994437e+14	1.437178e+04	7.419257e+03	3.757289e+03	0	1.065390e-03
7.100000e+08	1.957416e+13	0.000000e+00	4.195804e-01	4.220451e+14	2.812255e+14	3.975316e+14	1.433278e+04	7.429614e+03	3.762534e+03	0	1.057914e-03
7.200000e+08	1.916577e+13	0.000000e+00	4.195804e-01	4.161618e+14	2.837855e+14	3.956327e+14	1.429433e+04	7.439772e+03	3.767678e+03	0	1.050505e-03
7.300000e+08	1.876661e+13	0.000000e+00	4.195804e-01	4.104077e+14	2.863134e+14	3.937472e+14	1.425641e+04	7.449734e+03	3.772724e+03	0	1.043161e-03
7.400000e+08	1.837639e+13	0.000000e+00	4.195804e-01	4.047788e+14	2.888090e+14	3.918748e+14	1.421901e+04	7.459505e+03	3.777672e+03	0	1.035880e-03
7.500000e+08	1.799484e+13	0.000000e+00	4.195804e-01	3.992715e+14	2.912724e+14	3.900155e+14	1.418212e+04	7.469086e+03	3.782524e+03	0	1.028660e-03
7.600000e+08	1.762171e+13	0.000000e+00	4.195804e-01	3.938821e+14	2.937034e+14	3.881691e+14	1.414574e+04	7.478482e+03	3.787282e+03	0	1.021500e-03
7.700000e+08	1.725674e+13	0.000000e+00	4.195804e-01	3.886071e+14	2.961021e+14	3.863356e+14	1.410984e+04	7.487695e+03	3.791948e+03	0	1.014399e-03
7.800000e+08	1.689969e+13	0.000000e+00	4.195804e-01	3.834432e+14	2.984683e+14	3.845148e+14	1.407442e+04	7.496728e+03	3.796522e+03	0	1.007354e-03
7.900000e+08	1.655034e+13	0.000000e+00	4.195804e-01	3.783873e+14	3.008021e+14	3.827067e+14	1.403946e+04	7.505584e+03	3.801007e+03	0	1.000364e-03
8.000000e+08	1.620845e+13	0.000000e+00	4.195804e-01	3.734362e+14	3.031036e+14	3.809111e+14	1.400497e+04	7.514267e+03	3.805404e+03	0	9.934279e-04
8.100000e+08	1.587381e+13	0.000000e+00	4.195804e-01	3.685870e+14	3.053727e+14	3.791280e+14	1.397093e+04	7.522778e+03	3.809715e+03	0	9.865436e-04
8.200000e+08	1.554622e+13	0.000000e+00	4.195804e-01	3.638368e+14	3.076093e+14	3.773572e+14	1.393732e+04	7.531121e+03	3.813940e+03	0	9.797099e-04
8.300000e+08	1.522548e+13	0.000000e+00	4.195804e-01	3.591829e+14	3.098136e+14	3.755986e+14	1.390415e+04	7.539299e+03	3.818081e+03	0	9.729255e-04
8.400000e+08	1.491140e+13	0.000000e+00	4.195804e-01	3.546225e+14	3.119857e+14	3.738522e+14	1.387140e+04	7.547314e+03	3.822140e+03	0	9.661888e-04
8.500000e+08	1.460378e+13	0.000000e+00	4.195804e-01	3.501532e+14	3.141254e+14	3.721178e+14	1.383906e+04	7.555169e+03	3.826118e+03	0	9.594986e-04
8.600000e+08	1.430246e+13	0.000000e+00	4.195804e-01	3.457725e+14	3.162330e+14	3.703954e+14	1.380713e+04	7.562866e+03	3.830016e+03	0	9.528535e-04
8.700000e+08	1.400726e+13	0.000000e+00	4.195804e-01	3.414779e+14	3.183085e+14	3.686848e+14	1.377560e+04	7.570407e+03	3.833835e+03	0	9.462523e-04
8.800000e+08	1.371801e+13	0.000000e+00	4.195804e-01	3.372671e+14	3.203519e+14	3.669860e+14	1.374445e+04	7.577797e+03	3.837577e+03	0	9.396937e-04
8.900000e+08	1.343456e+13	0.000000e+00	4.195804e-01	3.331381e+14	3.223634e+14	3.652989e+14	1.371369e+04	7.585036e+03	3.841243e+03	0	9.331763e-04
9.000000e+08	1.315675e+13	0.000000e+00	4.195804e-01	3.290885e+14	3.243430e+14	3.636234e+14	1.368331e+04	7.592126e+03	3.844834e+03	0	9.266991e-04
9.100000e+08	1.288443e+13	0.000000e+00	4.195804e-01	3.251163e+14	3.262909e+14	3.619593e+14	1.365329e+04	7.599072e+03	3.848352e+03	0	9.202608e-04
9.200000e+08	1.261745e+13	0.000000e+00	4.195804e-01	3.212196e+14	3.282072e+14	3.603067e+14	1.362363e+04	7.605874e+03	3.851797e+03	0	9.138602e-04
9.300000e+08	1.235568e+13	0.000000e+00	4.195804e-01	3.173963e+14	3.300920e+14	3.586653e+14	1.359433e+04	7.612535e+03	3.855170e+03	0	9.074961e-04
9.400000e+08	1.209898e+13	0.000000e+00	4.195804e-01	3.136446e+14	3.319454e+14	3.570352e+14	1.356537e+04	7.619057e+03	3.858473e+03	0	9.011675e-04
9.500000e+08	1.184723e+13	0.000000e+00	4.195804e-01	3.099627e+14	3.337676e+14	3.554162e+14	1.353676e+04	7.625443e+03	3.861707e+03	0	8.948731e-04
9.600000e+08	1.160028e+13	0.000000e+00	4.195804e-01	3.063489e+14	3.355587e+14	3.538082e+14	1.350848e+04	7.631694e+03	3.864872e+03	0	8.886118e-04
9.700000e+08	1.135804e+13	0.000000e+00	4.195804e-01	3.028013e+14	3.373189e+14	3.522112e+14	1.348052e+04	7.637812e+03	3.867971e+03	0	8.823826e-04
9.800000e+08	1.112036e+13	0.000000e+00	4.195804e-01	2.993185e+14	3.390483e+14	3.506250e+14	1.345289e+04	7.643800e+03	3.871003e+03	0	8.761844e-04
9.900000e+08	1.088715e+13	0.000000e+00	4.195804e-01	2.958988e+14	3.407471e+14	3.490496e+14	1.342558e+04	7.649660e+03	3.873971e+03	0	8.700161e-04
1.000000e+09	1.065829e+13	0.000000e+00	4.195804e-01	2.925406e+14	3.424154e+14	3.474850e+14	1.339858e+04	7.655393e+03	3.876874e+03	0	8.638765e-04
1.010000e+09	1.043367e+13	0.000000e+00	4.195804e-01	2.892425e+14	3.440535e+14	3.459309e+14	1.337188e+04	7.661002e+03	3.879715e+03	0	8.577647e-04
1.020000e+09	1.021318e+13	0.000000e+00	4.195804e-01	2.860030e+14	3.456616e+14	3.443874e+14	1.334548e+04	7.666488e+03	3.882493e+03	0	8.516797e-04
1.030000e+09	9.996743e+12	0.000000e+00	4.195804e-01	2.828208e+14	3.472397e+14	3.428543e+14	1.331938e+04	7.671853e+03	3.885210e+03	0	8.456203e-04
1.040000e+09	9.784242e+12	0.000000e+00	4.195804e-01	2.796944e+14	3.487882e+14	3.413315e+14	1.329356e+04	7.677100e+03	3.887867e+03	0	8.395855e-04
1.050000e+09	9.575587e+12	0.000000e+00	4.195804e-01	2.766225e+14	3.503071e+14	3.398191e+14	1.326803e+04	7.682229e+03	3.890465e+03	0	8.335744e-04
1.060000e+09	9.370688e+12	0.000000e+00	4.195804e-01	2.736039e+14	3.517967e+14	3.383168e+14	1.324278e+04	7.687243e+03	3.893004e+03	0	8.275858e-04
1.070000e+09	9.169455e+12	0.000000e+00	4.195804e-01	2.706374e+14	3.532572e+14	3.368247e+14	1.321781e+04	7.692144e+03	3.895486e+03	0	8.216188e-04
1.080000e+09	8.971803e+12	0.000000e+00	4.195804e-01	2.677216e+14	3.546888e+14	3.353426e+14	1.319310e+04	7.696933e+03	3.897911e+03	0	8.156724e-04
1.090000e+09	8.777647e+12	0.000000e+00	4.195804e-01	2.648555e+14	3.560918e+14	3.338705e+14	1.316866e+04	7.701612e+03	3.900280e+03	0	8.097456e-04
1.100000e+09	8.586906e+12	0.000000e+00	4.195804e-01	2.620380e+14	3.574662e+14	3.324083e+14	1.314448e+04	7.706182e+03	3.902595e+03	0	8.038372e-04
1.110000e+09	8.399502e+12	0.000000e+00	4.195804e-01	2.592678e+14	3.588124e+14	3.309558e+14	1.312056e+04	7.710646e+03	3.904855e+03	0	7.979464e-04
1.120000e+09	8.215358e+12	0.000000e+00	4.195804e-01	2.565440e+14	3.601306e+14	3.295131e+14	1.309689e+04	7.715004e+03	3.907063e+03	0	7.920721e-04
1.130000e+09	8.034400e+12	0.000000e+00	4.195804e-01	2.538655e+14	3.614210e+14	3.280801e+14	1.307346e+04	7.719259e+03	3.909218e+03	0	7.862133e-04
1.140000e+09	7.856556e+12	0.000000e+00	4.195804e-01	2.512313e+14	3.626839e+14	3.266566e+14	1.305028e+04	7.723412e+03	3.911321e+03	0	7.803689e-04
1.150000e+09	7.681756e+12	0.000000e+00	4.195804e-01	2.486404e+14	3.639193e+14	3.252427e+14	1.302734e+04	7.727464e+03	3.913373e+03	0	7.745380e-04
1.160000e+09	7.509932e+12	0.000000e+00	4.195804e-01	2.460919e+14	3.651277e+14	3.238381e+14	1.300464e+04	7.731418e+03	3.915375e+03	0	7.687195e-04
1.170000e+09	7.341017e+12	0.000000e+00	4.195804e-01	2.435849e+14	3.663092e+14	3.224429e+14	1.298216e+04	7.735274e+03	3.917328e+03	0	7.629123e-04
1.180000e+09	7.174948e+12	0.000000e+00	4.195804e-01	2.411184e+14	3.674641e+14	3.210571e+14	1.295992e+04	7.739034e+03	3.919232e+03	0	7.571155e-04
1.190000e+09	7.011661e+12	0.000000e+00	4.195804e-01	2.386916e+14	3.685926e+14	3.196804e+14	1.293790e+04	7.742700e+03	3.921088e+03	0	7.513279e-04
1.200000e+09	6.851097e+12	0.000000e+00	4.195804e-01	2.363035e+14	3.696950e+14	3.183128e+14	1.291610e+04	7.746272e+03	3.922897e+03	0	7.455485e-04
1.210000e+09	6.693195e+12	0.000000e+00	4.195804e-01	2.339535e+14	3.707713e+14	3.169544e+14	1.289452e+04	7.749753e+03	3.924660e+03	0	7.397762e-04
1.220000e+09	6.537899e+12	0.000000e+00	4.195804e-01	2.316407e+14	3.718221e+14	3.156049e+14	1.287315e+04	7.753143e+03	3.926377e+03	0	7.340100e-04
1.230000e+09	6.385153e+12	0.000000e+00	4.195804e-01	2.293642e+14	3.728474e+14	3.142644e+14	1.285199e+04	7.756444e+03	3.928049e+03	0	7.282486e-04
1.240000e+09	6.234902e+12	0.000000e+00	4.195804e-01	2.271234e+14	3.738476e+14	3.129327e+14	1.283104e+04	7.759658e+03	3.929677e+03	0	7.224910e-04
1.250000e+09	6.087092e+12	0.000000e+00	4.195804e-01	2.249175e+14	3.748229e+14	3.116098e+14	1.281029e+04	7.762786e+03	3.931260e+03	0	7.167359e-04
1.260000e+09	5.941674e+12	0.000000e+00	4.195804e-01	2.227457e+14	3.757734e+14	3.102956e+14	1.278975e+04	7.765828e+03	3.932801e+03	0	7.109823e-04
1.270000e+09	5.798596e+12	0.000000e+00	4.195804e-01	2.206074e+14	3.766997e+14	3.089901e+14	1.276940e+04	7.768787e+03	3.934299e+03	0	7.052290e-04
1.280000e+09	5.657809e+12	0.000000e+00	4.195804e-01	2.185019e+14	3.776015e+14	3.076932e+14	1.274925e+04	7.771663e+03	3.935756e+03	0	6.994746e-04
1.290000e+09	5.519266e+12	0.000000e+00	4.195804e-01	2.164285e+14	3.784796e+14	3.064048e+14	1.272928e+04	7.774458e+03	3.937171e+03	0	6.937180e-04
1.300000e+09	5.382921e+12	0.000000e+00	4.195804e-01	2.143865e+14	3.793341e+14	3.051248e+14	1.270951e+04	7.777173e+03	3.938546e+03	0	6.879579e-04
1.310000e+09	5.248728e+12	0.000000e+00	4.195804e-01	2.123754e+14	3.801650e+14	3.038533e+14	1.268992e+04	7.779809e+03	3.939881e+03	0	6.821929e-04
1.320000e+09	5.116643e+12	0.000000e+00	4.195804e-01	2.103944e+14	3.809728e+14	3.025901e+14	1.267052e+04	7.782367e+03	3.941177e+03	0	6.764218e-04
1.330000e+09	4.986623e+12	0.000000e+00	4.195804e-01	2.084431e+14	3.817577e+14	3.013351e+14	1.265130e+04	7.784849e+03	3.942434e+03	0	6.706430e-04
1.340000e+09	4.858628e+12	0.000000e+00	4.195804e-01	2.065207e+14	3.825199e+14	3.000883e+14	1.263225e+04	7.787256e+03	3.943653e+03	0	6.648552e-04
1.350000e+09	4.732615e+12	0.000000e+00	4.195804e-01	2.046268e+14	3.832598e+14	2.988497e+14	1.261338e+04	7.789588e+03	3.944834e+03	0	6.590569e-04
1.360000e+09	4.608545e+12	0.000000e+00	4.195804e-01	2.027608e+14	3.839775e+14	2.976191e+14	1.259468e+04	7.791847e+03	3.945978e+03	0	6.532466e-04
