#t		Qconv[W]	Ri[Rp]		R*[Rp]		Qc[W]		Qm[W]		Qr[W]		Tcmb[K]		Tl[K]		Tup[K]		RiFlag		Bs[T]
0.000000e+00	3.868418e+14	0.000000e+00	4.125875e-01	5.238944e+15	4.166724e+13	6.581608e+14	2.569143e+04	6.527437e+03	2.992662e+03	0	2.873351e-03
1.000000e+07	3.610962e+14	0.000000e+00	4.125875e-01	4.908670e+15	4.703974e+13	6.545141e+14	2.527806e+04	6.628383e+03	3.038943e+03	0	2.808139e-03
2.000000e+07	3.379644e+14	0.000000e+00	4.125875e-01	4.611692e+15	5.258668e+13	6.508947e+14	2.489013e+04	6.723473e+03	3.082540e+03	0	2.746848e-03
3.000000e+07	3.170907e+14	0.000000e+00	4.125875e-01	4.343492e+15	5.828625e+13	6.473023e+14	2.452513e+04	6.813281e+03	3.123714e+03	0	2.689091e-03
4.000000e+07	2.981790e+14	0.000000e+00	4.125875e-01	4.100310e+15	6.411870e+13	6.437368e+14	2.418088e+04	6.898300e+03	3.162693e+03	0	2.634531e-03
5.000000e+07	2.809812e+14	0.000000e+00	4.125875e-01	3.878991e+15	7.006608e+13	6.401978e+14	2.385549e+04	6.978961e+03	3.199674e+03	0	2.582875e-03
6.000000e+07	2.652879e+14	0.000000e+00	4.125875e-01	3.676874e+15	7.611218e+13	6.366852e+14	2.354730e+04	7.055639e+03	3.234829e+03	0	2.533865e-03
7.000000e+07	2.509215e+14	0.000000e+00	4.125875e-01	3.491699e+15	8.224226e+13	6.331988e+14	2.325485e+04	7.128664e+03	3.268309e+03	0	2.487274e-03
8.000000e+07	2.377302e+14	0.000000e+00	4.125875e-01	3.321537e+15	8.844303e+13	6.297383e+14	2.297684e+04	7.198328e+03	3.300249e+03	0	2.442900e-03
9.000000e+07	2.255840e+14	0.000000e+00	4.125875e-01	3.164732e+15	9.470241e+13	6.263035e+14	2.271213e+04	7.264890e+03	3.330765e+03	0	2.400566e-03
1.000000e+08	2.143706e+14	0.000000e+00	4.125875e-01	3.019855e+15	1.010094e+14	6.228943e+14	2.245970e+04	7.328579e+03	3.359965e+03	0	2.360112e-03
1.100000e+08	2.039927e+14	0.000000e+00	4.125875e-01	2.885668e+15	1.073541e+14	6.195103e+14	2.221861e+04	7.389600e+03	3.387942e+03	0	2.321396e-03
1.200000e+08	1.943659e+14	0.000000e+00	4.125875e-01	2.761093e+15	1.137274e+14	6.161515e+14	2.198806e+04	7.448138e+03	3.414780e+03	0	2.284289e-03
1.300000e+08	1.854161e+14	0.000000e+00	4.125875e-01	2.645188e+15	1.201211e+14	6.128174e+14	2.176729e+04	7.504360e+03	3.440556e+03	0	2.248675e-03
1.400000e+08	1.770786e+14	0.000000e+00	4.125875e-01	2.537128e+15	1.265276e+14	6.095081e+14	2.155565e+04	7.558413e+03	3.465338e+03	0	2.214452e-03
1.500000e+08	1.692963e+14	0.000000e+00	4.125875e-01	2.436184e+15	1.329400e+14	6.062232e+14	2.135251e+04	7.610435e+03	3.489189e+03	0	2.181525e-03
1.600000e+08	1.620188e+14	0.000000e+00	4.125875e-01	2.341714e+15	1.393522e+14	6.029626e+14	2.115734e+04	7.660549e+03	3.512165e+03	0	2.149807e-03
1.700000e+08	1.552013e+14	0.000000e+00	4.125875e-01	2.253147e+15	1.457582e+14	5.997261e+14	2.096962e+04	7.708865e+03	3.534317e+03	0	2.119220e-03
1.800000e+08	1.488043e+14	0.000000e+00	4.125875e-01	2.169976e+15	1.521529e+14	5.965134e+14	2.078890e+04	7.755488e+03	3.555692e+03	0	2.089694e-03
1.900000e+08	1.427922e+14	0.000000e+00	4.125875e-01	2.091750e+15	1.585314e+14	5.933244e+14	2.061476e+04	7.800511e+03	3.576334e+03	0	2.061164e-03
2.000000e+08	1.371334e+14	0.000000e+00	4.125875e-01	2.018063e+15	1.648893e+14	5.901588e+14	2.044681e+04	7.844019e+03	3.596281e+03	0	2.033568e-03
2.100000e+08	1.317996e+14	0.000000e+00	4.125875e-01	1.948553e+15	1.712224e+14	5.870166e+14	2.028469e+04	7.886091e+03	3.615570e+03	0	2.006853e-03
2.200000e+08	1.267651e+14	0.000000e+00	4.125875e-01	1.882893e+15	1.775271e+14	5.838974e+14	2.012809e+04	7.926802e+03	3.634235e+03	0	1.980968e-03
2.300000e+08	1.220069e+14	0.000000e+00	4.125875e-01	1.820790e+15	1.837999e+14	5.808011e+14	1.997670e+04	7.966217e+03	3.652306e+03	0	1.955866e-03
2.400000e+08	1.175044e+14	0.000000e+00	4.125875e-01	1.761978e+15	1.900376e+14	5.777274e+14	1.983024e+04	8.004400e+03	3.669812e+03	0	1.931504e-03
2.500000e+08	1.132387e+14	0.000000e+00	4.125875e-01	1.706216e+15	1.962373e+14	5.746764e+14	1.968846e+04	8.041409e+03	3.686779e+03	0	1.907843e-03
2.600000e+08	1.091927e+14	0.000000e+00	4.125875e-01	1.653285e+15	2.023963e+14	5.716476e+14	1.955110e+04	8.077296e+03	3.703233e+03	0	1.884844e-03
2.700000e+08	1.053510e+14	0.000000e+00	4.125875e-01	1.602988e+15	2.085121e+14	5.686410e+14	1.941796e+04	8.112111e+03	3.719195e+03	0	1.862475e-03
2.800000e+08	1.016993e+14	0.000000e+00	4.125875e-01	1.555143e+15	2.145824e+14	5.656563e+14	1.928883e+04	8.145903e+03	3.734687e+03	0	1.840702e-03
2.900000e+08	9.822485e+13	0.000000e+00	4.125875e-01	1.509584e+15	2.206051e+14	5.626934e+14	1.916350e+04	8.178713e+03	3.749730e+03	0	1.819497e-03
3.000000e+08	9.491581e+13	0.000000e+00	4.125875e-01	1.466162e+15	2.265782e+14	5.597521e+14	1.904181e+04	8.210583e+03	3.764341e+03	0	1.798831e-03
3.100000e+08	9.176140e+13	0.000000e+00	4.125875e-01	1.424737e+15	2.325000e+14	5.568323e+14	1.892358e+04	8.241550e+03	3.778539e+03	0	1.778679e-03
3.200000e+08	8.875171e+13	0.000000e+00	4.125875e-01	1.385183e+15	2.383688e+14	5.539337e+14	1.880866e+04	8.271651e+03	3.792339e+03	0	1.759016e-03
3.300000e+08	8.587764e+13	0.000000e+00	4.125875e-01	1.347382e+15	2.441831e+14	5.510561e+14	1.869689e+04	8.300919e+03	3.805758e+03	0	1.739820e-03
3.400000e+08	8.313082e+13	0.000000e+00	4.125875e-01	1.311228e+15	2.499415e+14	5.481995e+14	1.858815e+04	8.329385e+03	3.818809e+03	0	1.721069e-03
3.500000e+08	8.050353e+13	0.000000e+00	4.125875e-01	1.276620e+15	2.556428e+14	5.453636e+14	1.848229e+04	8.357080e+03	3.831506e+03	0	1.702744e-03
3.600000e+08	7.798864e+13	0.000000e+00	4.125875e-01	1.243469e+15	2.612857e+14	5.425483e+14	1.837920e+04	8.384030e+03	3.843863e+03	0	1.684825e-03
3.700000e+08	7.557956e+13	0.000000e+00	4.125875e-01	1.211688e+15	2.668692e+14	5.397533e+14	1.827876e+04	8.410264e+03	3.855890e+03	0	1.667295e-03
3.800000e+08	7.327021e+13	0.000000e+00	4.125875e-01	1.181200e+15	2.723924e+14	5.369786e+14	1.818087e+04	8.435806e+03	3.867600e+03	0	1.650137e-03
3.900000e+08	7.105492e+13	0.000000e+00	4.125875e-01	1.151931e+15	2.778544e+14	5.342239e+14	1.808541e+04	8.460679e+03	3.879004e+03	0	1.633336e-03
4.000000e+08	6.892846e+13	0.000000e+00	4.125875e-01	1.123816e+15	2.832544e+14	5.314891e+14	1.799230e+04	8.484906e+03	3.890111e+03	0	1.616878e-03
4.100000e+08	6.688595e+13	0.000000e+00	4.125875e-01	1.096790e+15	2.885916e+14	5.287740e+14	1.790145e+04	8.508508e+03	3.900932e+03	0	1.600747e-03
4.200000e+08	6.492286e+13	0.000000e+00	4.125875e-01	1.070795e+15	2.938654e+14	5.260785e+14	1.781275e+04	8.531506e+03	3.911476e+03	0	1.584930e-03
4.300000e+08	6.303497e+13	0.000000e+00	4.125875e-01	1.045778e+15	2.990752e+14	5.234025e+14	1.772615e+04	8.553918e+03	3.921752e+03	0	1.569416e-03
4.400000e+08	6.121835e+13	0.000000e+00	4.125875e-01	1.021687e+15	3.042206e+14	5.207456e+14	1.764155e+04	8.575764e+03	3.931767e+03	0	1.554192e-03
4.500000e+08	5.946931e+13	0.000000e+00	4.125875e-01	9.984754e+14	3.093011e+14	5.181079e+14	1.755888e+04	8.597060e+03	3.941531e+03	0	1.539248e-03
4.600000e+08	5.778443e+13	0.000000e+00	4.125875e-01	9.760985e+14	3.143163e+14	5.154891e+14	1.747807e+04	8.617823e+03	3.951051e+03	0	1.524572e-03
4.700000e+08	5.616050e+13	0.000000e+00	4.125875e-01	9.545150e+14	3.192659e+14	5.128891e+14	1.739906e+04	8.638069e+03	3.960333e+03	0	1.510154e-03
4.800000e+08	5.459450e+13	0.000000e+00	4.125875e-01	9.336862e+14	3.241496e+14	5.103077e+14	1.732179e+04	8.657814e+03	3.969385e+03	0	1.495985e-03
4.900000e+08	5.308363e+13	0.000000e+00	4.125875e-01	9.135757e+14	3.289671e+14	5.077448e+14	1.724619e+04	8.677070e+03	3.978214e+03	0	1.482056e-03
5.000000e+08	5.162524e+13	0.000000e+00	4.125875e-01	8.941494e+14	3.337184e+14	5.052002e+14	1.717220e+04	8.695854e+03	3.986825e+03	0	1.468357e-03
5.100000e+08	5.021685e+13	0.000000e+00	4.125875e-01	8.753752e+14	3.384033e+14	5.026738e+14	1.709978e+04	8.714177e+03	3.995226e+03	0	1.454881e-03
5.200000e+08	4.885612e+13	0.000000e+00	4.125875e-01	8.572231e+14	3.430216e+14	5.001654e+14	1.702886e+04	8.732052e+03	4.003421e+03	0	1.441619e-03
5.300000e+08	4.754087e+13	0.000000e+00	4.125875e-01	8.396647e+14	3.475734e+14	4.976749e+14	1.695941e+04	8.749492e+03	4.011417e+03	0	1.428565e-03
5.400000e+08	4.626902e+13	0.000000e+00	4.125875e-01	8.226734e+14	3.520584e+14	4.952022e+14	1.689136e+04	8.766508e+03	4.019219e+03	0	1.415710e-03
5.500000e+08	4.503864e+13	0.000000e+00	4.125875e-01	8.062239e+14	3.564770e+14	4.927471e+14	1.682469e+04	8.783112e+03	4.026831e+03	0	1.403049e-03
5.600000e+08	4.384789e+13	0.000000e+00	4.125875e-01	7.902925e+14	3.608291e+14	4.903094e+14	1.675934e+04	8.799314e+03	4.034259e+03	0	1.390573e-03
5.700000e+08	4.269504e+13	0.000000e+00	4.125875e-01	7.748569e+14	3.651148e+14	4.878890e+14	1.669527e+04	8.815125e+03	4.041508e+03	0	1.378278e-03
5.800000e+08	4.157845e+13	0.000000e+00	4.125875e-01	7.598958e+14	3.693342e+14	4.854858e+14	1.663244e+04	8.830554e+03	4.048582e+03	0	1.366156e-03
5.900000e+08	4.049659e+13	0.000000e+00	4.125875e-01	7.453894e+14	3.734875e+14	4.830996e+14	1.657082e+04	8.845612e+03	4.055486e+03	0	1.354203e-03
6.000000e+08	3.944798e+13	0.000000e+00	4.125875e-01	7.313186e+14	3.775748e+14	4.807303e+14	1.651037e+04	8.860307e+03	4.062223e+03	0	1.342412e-03
6.100000e+08	3.843125e+13	0.000000e+00	4.125875e-01	7.176656e+14	3.815964e+14	4.783778e+14	1.645105e+04	8.874649e+03	4.068799e+03	0	1.330778e-03
6.200000e+08	3.744509e+13	0.000000e+00	4.125875e-01	7.044134e+14	3.855524e+14	4.760419e+14	1.639283e+04	8.888647e+03	4.075216e+03	0	1.319297e-03
6.300000e+08	3.648825e+13	0.000000e+00	4.125875e-01	6.915459e+14	3.894432e+14	4.737225e+14	1.633568e+04	8.902307e+03	4.081479e+03	0	1.307963e-03
6.400000e+08	3.555957e+13	0.000000e+00	4.125875e-01	6.790478e+14	3.932690e+14	4.714194e+14	1.627957e+04	8.915640e+03	4.087592e+03	0	1.296771e-03
6.500000e+08	3.465793e+13	0.000000e+00	4.125875e-01	6.669047e+14	3.970301e+14	4.691326e+14	1.622446e+04	8.928651e+03	4.093557e+03	0	1.285716e-03
6.600000e+08	3.378226e+13	0.000000e+00	4.125875e-01	6.551028e+14	4.007269e+14	4.668618e+14	1.617034e+04	8.941350e+03	4.099379e+03	0	1.274795e-03
6.700000e+08	3.293156e+13	0.000000e+00	4.125875e-01	6.436291e+14	4.043597e+14	4.646071e+14	1.611716e+04	8.953742e+03	4.105061e+03	0	1.264004e-03
6.800000e+08	3.210487e+13	0.000000e+00	4.125875e-01	6.324710e+14	4.079288e+14	4.623681e+14	1.606492e+04	8.965836e+03	4.110605e+03	0	1.253337e-03
6.900000e+08	3.130128e+13	0.000000e+00	4.125875e-01	6.216168e+14	4.114346e+14	4.601449e+14	1.601357e+04	8.977638e+03	4.116016e+03	0	1.242792e-03
7.000000e+08	3.051993e+13	0.000000e+00	4.125875e-01	6.110552e+14	4.148775e+14	4.579372e+14	1.596310e+04	8.989154e+03	4.121296e+03	0	1.232363e-03
7.100000e+08	2.975998e+13	0.000000e+00	4.125875e-01	6.007755e+14	4.182580e+14	4.557451e+14	1.591348e+04	9.000391e+03	4.126448e+03	0	1.222049e-03
7.200000e+08	2.902067e+13	0.000000e+00	4.125875e-01	5.907675e+14	4.215763e+14	4.535682e+14	1.586469e+04	9.011355e+03	4.131475e+03	0	1.211844e-03
7.300000e+08	2.830122e+13	0.000000e+00	4.125875e-01	5.810213e+14	4.248330e+14	4.514065e+14	1.581671e+04	9.022053e+03	4.136380e+03	0	1.201746e-03
7.400000e+08	2.760094e+13	0.000000e+00	4.125875e-01	5.715277e+14	4.280286e+14	4.492600e+14	1.576952e+04	9.032490e+03	4.141164e+03	0	1.191751e-03
7.500000e+08	2.691913e+13	0.000000e+00	4.125875e-01	5.622778e+14	4.311634e+14	4.471284e+14	1.572309e+04	9.042671e+03	4.145832e+03	0	1.181856e-03
7.600000e+08	2.625515e+13	0.000000e+00	4.125875e-01	5.532632e+14	4.342380e+14	4.450116e+14	1.567741e+04	9.052602e+03	4.150386e+03	0	1.172058e-03
7.700000e+08	2.560837e+13	0.000000e+00	4.125875e-01	5.444757e+14	4.372528e+14	4.429096e+14	1.563246e+04	9.062289e+03	4.154827e+03	0	1.162354e-03
7.800000e+08	2.497820e+13	0.000000e+00	4.125875e-01	5.359075e+14	4.402084e+14	4.408222e+14	1.558822e+04	9.071737e+03	4.159158e+03	0	1.152740e-03
7.900000e+08	2.436408e+13	0.000000e+00	4.125875e-01	5.275513e+14	4.431051e+14	4.387493e+14	1.554467e+04	9.080951e+03	4.163383e+03	0	1.143214e-03
8.000000e+08	2.376545e+13	0.000000e+00	4.125875e-01	5.194000e+14	4.459436e+14	4.366908e+14	1.550180e+04	9.089935e+03	4.167502e+03	0	1.133773e-03
8.100000e+08	2.318180e+13	0.000000e+00	4.125875e-01	5.114468e+14	4.487243e+14	4.346465e+14	1.545959e+04	9.098695e+03	4.171518e+03	0	1.124415e-03
8.200000e+08	2.261263e+13	0.000000e+00	4.125875e-01	5.036851e+14	4.514479e+14	4.326164e+14	1.541802e+04	9.107235e+03	4.175433e+03	0	1.115136e-03
8.300000e+08	2.205747e+13	0.000000e+00	4.125875e-01	4.961088e+14	4.541148e+14	4.306003e+14	1.537708e+04	9.115560e+03	4.179250e+03	0	1.105935e-03
8.400000e+08	2.151585e+13	0.000000e+00	4.125875e-01	4.887118e+14	4.567255e+14	4.285981e+14	1.533675e+04	9.123673e+03	4.182970e+03	0	1.096808e-03
8.500000e+08	2.098733e+13	0.000000e+00	4.125875e-01	4.814885e+14	4.592805e+14	4.266098e+14	1.529702e+04	9.131580e+03	4.186595e+03	0	1.087752e-03
8.600000e+08	2.047151e+13	0.000000e+00	4.125875e-01	4.744334e+14	4.617806e+14	4.246351e+14	1.525787e+04	9.139285e+03	4.190127e+03	0	1.078767e-03
8.700000e+08	1.996796e+13	0.000000e+00	4.125875e-01	4.675412e+14	4.642261e+14	4.226741e+14	1.521929e+04	9.146792e+03	4.193569e+03	0	1.069848e-03
8.800000e+08	1.947632e+13	0.000000e+00	4.125875e-01	4.608067e+14	4.666177e+14	4.207265e+14	1.518128e+04	9.154104e+03	4.196921e+03	0	1.060995e-03
8.900000e+08	1.899620e+13	0.000000e+00	4.125875e-01	4.542253e+14	4.689558e+14	4.187924e+14	1.514380e+04	9.161225e+03	4.200186e+03	0	1.052204e-03
9.000000e+08	1.852724e+13	0.000000e+00	4.125875e-01	4.477921e+14	4.712413e+14	4.168714e+14	1.510686e+04	9.168160e+03	4.203366e+03	0	1.043473e-03
9.100000e+08	1.806912e+13	0.000000e+00	4.125875e-01	4.415027e+14	4.734744e+14	4.149637e+14	1.507044e+04	9.174912e+03	4.206461e+03	0	1.034800e-03
9.200000e+08	1.762149e+13	0.000000e+00	4.125875e-01	4.353528e+14	4.756558e+14	4.130690e+14	1.503453e+04	9.181484e+03	4.209475e+03	0	1.026184e-03
9.300000e+08	1.718403e+13	0.000000e+00	4.125875e-01	4.293382e+14	4.777861e+14	4.111873e+14	1.499912e+04	9.187881e+03	4.212407e+03	0	1.017621e-03
9.400000e+08	1.675646e+13	0.000000e+00	4.125875e-01	4.234549e+14	4.798659e+14	4.093185e+14	1.496419e+04	9.194105e+03	4.215261e+03	0	1.009110e-03
9.500000e+08	1.633846e+13	0.000000e+00	4.125875e-01	4.176992e+14	4.818958e+14	4.074624e+14	1.492975e+04	9.200160e+03	4.218037e+03	0	1.000648e-03
9.600000e+08	1.592976e+13	0.000000e+00	4.125875e-01	4.120672e+14	4.838761e+14	4.056189e+14	1.489576e+04	9.206050e+03	4.220737e+03	0	9.922338e-04
9.700000e+08	1.553009e+13	0.000000e+00	4.125875e-01	4.065554e+14	4.858077e+14	4.037881e+14	1.486224e+04	9.211776e+03	4.223363e+03	0	9.838651e-04
9.800000e+08	1.513918e+13	0.000000e+00	4.125875e-01	4.011604e+14	4.876911e+14	4.019696e+14	1.482916e+04	9.217343e+03	4.225915e+03	0	9.755400e-04
9.900000e+08	1.475679e+13	0.000000e+00	4.125875e-01	3.958788e+14	4.895267e+14	4.001636e+14	1.479651e+04	9.222754e+03	4.228396e+03	0	9.672562e-04
1.000000e+09	1.438266e+13	0.000000e+00	4.125875e-01	3.907076e+14	4.913154e+14	3.983698e+14	1.476430e+04	9.228011e+03	4.230806e+03	0	9.590119e-04
1.010000e+09	1.401657e+13	0.000000e+00	4.125875e-01	3.856435e+14	4.930574e+14	3.965881e+14	1.473250e+04	9.233118e+03	4.233148e+03	0	9.508051e-04
1.020000e+09	1.365829e+13	0.000000e+00	4.125875e-01	3.806836e+14	4.947537e+14	3.948186e+14	1.470112e+04	9.238077e+03	4.235421e+03	0	9.426338e-04
1.030000e+09	1.330760e+13	0.000000e+00	4.125875e-01	3.758251e+14	4.964045e+14	3.930610e+14	1.467013e+04	9.242892e+03	4.237628e+03	0	9.344961e-04
1.040000e+09	1.296429e+13	0.000000e+00	4.125875e-01	3.710652e+14	4.980106e+14	3.913153e+14	1.463954e+04	9.247564e+03	4.239770e+03	0	9.263899e-04
1.050000e+09	1.262815e+13	0.000000e+00	4.125875e-01	3.664012e+14	4.995725e+14	3.895813e+14	1.460934e+04	9.252096e+03	4.241849e+03	0	9.183133e-04
1.060000e+09	1.229900e+13	0.000000e+00	4.125875e-01	3.618305e+14	5.010906e+14	3.878591e+14	1.457951e+04	9.256492e+03	4.243864e+03	0	9.102644e-04
1.070000e+09	1.197664e+13	0.000000e+00	4.125875e-01	3.573507e+14	5.025659e+14	3.861485e+14	1.455006e+04	9.260754e+03	4.245818e+03	0	9.022411e-04
1.080000e+09	1.166089e+13	0.000000e+00	4.125875e-01	3.529593e+14	5.039985e+14	3.844493e+14	1.452097e+04	9.264883e+03	4.247711e+03	0	8.942415e-04
1.090000e+09	1.135157e+13	0.000000e+00	4.125875e-01	3.486539e+14	5.053892e+14	3.827616e+14	1.449223e+04	9.268884e+03	4.249545e+03	0	8.862636e-04
1.100000e+09	1.104851e+13	0.000000e+00	4.125875e-01	3.444325e+14	5.067385e+14	3.810853e+14	1.446384e+04	9.272757e+03	4.251321e+03	0	8.783053e-04
1.110000e+09	1.075155e+13	0.000000e+00	4.125875e-01	3.402927e+14	5.080469e+14	3.794202e+14	1.443580e+04	9.276506e+03	4.253040e+03	0	8.703647e-04
1.120000e+09	1.046052e+13	0.000000e+00	4.125875e-01	3.362325e+14	5.093151e+14	3.777662e+14	1.440809e+04	9.280133e+03	4.254702e+03	0	8.624397e-04
1.130000e+09	1.017528e+13	0.000000e+00	4.125875e-01	3.322498e+14	5.105437e+14	3.761233e+14	1.438071e+04	9.283639e+03	4.256310e+03	0	8.545282e-04
1.140000e+09	9.895669e+12	0.000000e+00	4.125875e-01	3.283426e+14	5.117331e+14	3.744914e+14	1.435366e+04	9.287028e+03	4.257864e+03	0	8.466281e-04
1.150000e+09	9.621545e+12	0.000000e+00	4.125875e-01	3.245091e+14	5.128838e+14	3.728704e+14	1.432692e+04	9.290301e+03	4.259364e+03	0	8.387372e-04
1.160000e+09	9.352770e+12	0.000000e+00	4.125875e-01	3.207475e+14	5.139965e+14	3.712601e+14	1.430049e+04	9.293461e+03	4.260813e+03	0	8.308533e-04
1.170000e+09	9.089206e+12	0.000000e+00	4.125875e-01	3.170558e+14	5.150716e+14	3.696607e+14	1.427437e+04	9.296509e+03	4.262210e+03	0	8.229743e-04
1.180000e+09	8.830724e+12	0.000000e+00	4.125875e-01	3.134324e+14	5.161098e+14	3.680718e+14	1.424854e+04	9.299447e+03	4.263558e+03	0	8.150978e-04
1.190000e+09	8.577195e+12	0.000000e+00	4.125875e-01	3.098755e+14	5.171114e+14	3.664936e+14	1.422301e+04	9.302279e+03	4.264856e+03	0	8.072215e-04
1.200000e+09	8.328498e+12	0.000000e+00	4.125875e-01	3.063837e+14	5.180771e+14	3.649258e+14	1.419777e+04	9.305004e+03	4.266105e+03	0	7.993430e-04
1.210000e+09	8.084511e+12	0.000000e+00	4.125875e-01	3.029552e+14	5.190074e+14	3.633684e+14	1.417282e+04	9.307627e+03	4.267308e+03	0	7.914598e-04
1.220000e+09	7.845120e+12	0.000000e+00	4.125875e-01	2.995886e+14	5.199029e+14	3.618213e+14	1.414814e+04	9.310147e+03	4.268463e+03	0	7.835694e-04
1.230000e+09	7.610212e+12	0.000000e+00	4.125875e-01	2.962824e+14	5.207640e+14	3.602844e+14	1.412373e+04	9.312568e+03	4.269573e+03	0	7.756692e-04
1.240000e+09	7.379679e+12	0.000000e+00	4.125875e-01	2.930350e+14	5.215912e+14	3.587577e+14	1.409959e+04	9.314890e+03	4.270638e+03	0	7.677564e-04
1.250000e+09	7.153415e+12	0.000000e+00	4.125875e-01	2.898453e+14	5.223851e+14	3.572411e+14	1.407572e+04	9.317117e+03	4.271659e+03	0	7.598282e-04
1.260000e+09	6.931318e+12	0.000000e+00	4.125875e-01	2.867117e+14	5.231460e+14	3.557345e+14	1.405211e+04	9.319249e+03	4.272636e+03	0	7.518818e-04
1.270000e+09	6.713288e+12	0.000000e+00	4.125875e-01	2.836329e+14	5.238746e+14	3.542378e+14	1.402875e+04	9.321288e+03	4.273571e+03	0	7.439140e-04
1.280000e+09	6.499230e+12	0.000000e+00	4.125875e-01	2.806078e+14	5.245713e+14	3.527510e+14	1.400564e+04	9.323236e+03	4.274464e+03	0	7.359216e-04
1.290000e+09	6.289049e+12	0.000000e+00	4.125875e-01	2.776350e+14	5.252368e+14	3.512739e+14	1.398277e+04	9.325094e+03	4.275316e+03	0	7.279015e-04
1.300000e+09	6.082655e+12	0.000000e+00	4.125875e-01	2.747133e+14	5.258713e+14	3.498065e+14	1.396015e+04	9.326864e+03	4.276128e+03	0	7.198500e-04
1.310000e+09	5.879959e+12	0.000000e+00	4.125875e-01	2.718416e+14	5.264754e+14	3.483488e+14	1.393776e+04	9.328549e+03	4.276900e+03	0	7.117635e-04
1.320000e+09	5.680876e+12	0.000000e+00	4.125875e-01	2.690187e+14	5.270495e+14	3.469006e+14	1.391561e+04	9.330148e+03	4.277633e+03	0	7.036382e-04
1.330000e+09	5.485324e+12	0.000000e+00	4.125875e-01	2.662436e+14	5.275943e+14	3.454618e+14	1.389369e+04	9.331664e+03	4.278328e+03	0	6.954699e-04
1.340000e+09	5.293220e+12	0.000000e+00	4.125875e-01	2.635151e+14	5.281102e+14	3.440325e+14	1.387199e+04	9.333098e+03	4.278986e+03	0	6.872545e-04
1.350000e+09	5.104487e+12	0.000000e+00	4.125875e-01	2.608323e+14	5.285972e+14	3.426125e+14	1.385051e+04	9.334452e+03	4.279607e+03	0	6.789873e-04
1.360000e+09	4.919048e+12	0.000000e+00	4.125875e-01	2.581940e+14	5.290565e+14	3.412017e+14	1.382925e+04	9.335728e+03	4.280191e+03	0	6.706634e-04
