#t		Qconv[W]	Ri[Rp]		R*[Rp]		Qc[W]		Qm[W]		Qr[W]		Tcmb[K]		Tl[K]		Tup[K]		RiFlag		Bs[T]
0.000000e+00	2.585953e+14	0.000000e+00	4.154929e-01	3.405602e+15	3.220644e+13	7.607936e+14	2.574013e+04	6.579039e+03	3.091301e+03	0	2.499056e-03
1.000000e+07	2.480482e+14	0.000000e+00	4.154929e-01	3.283166e+15	3.475621e+13	7.565783e+14	2.551517e+04	6.640064e+03	3.119975e+03	0	2.464607e-03
2.000000e+07	2.381390e+14	0.000000e+00	4.154929e-01	3.168023e+15	3.737701e+13	7.523944e+14	2.529818e+04	6.699179e+03	3.147752e+03	0	2.431341e-03
3.000000e+07	2.288150e+14	0.000000e+00	4.154929e-01	3.059573e+15	4.006566e+13	7.482419e+14	2.508868e+04	6.756494e+03	3.174682e+03	0	2.399186e-03
4.000000e+07	2.200287e+14	0.000000e+00	4.154929e-01	2.957277e+15	4.281908e+13	7.441203e+14	2.488626e+04	6.812104e+03	3.200812e+03	0	2.368075e-03
5.000000e+07	2.117376e+14	0.000000e+00	4.154929e-01	2.860653e+15	4.563424e+13	7.400295e+14	2.469050e+04	6.866102e+03	3.226184e+03	0	2.337949e-03
6.000000e+07	2.039035e+14	0.000000e+00	4.154929e-01	2.769265e+15	4.850825e+13	7.359692e+14	2.450106e+04	6.918570e+03	3.250837e+03	0	2.308752e-03
7.000000e+07	1.964917e+14	0.000000e+00	4.154929e-01	2.682718e+15	5.143827e+13	7.319391e+14	2.431759e+04	6.969585e+03	3.274808e+03	0	2.280432e-03
8.000000e+07	1.894709e+14	0.000000e+00	4.154929e-01	2.600657e+15	5.442160e+13	7.279390e+14	2.413978e+04	7.019218e+03	3.298129e+03	0	2.252941e-03
9.000000e+07	1.828128e+14	0.000000e+00	4.154929e-01	2.522760e+15	5.745554e+13	7.239686e+14	2.396733e+04	7.067536e+03	3.320832e+03	0	2.226236e-03
1.000000e+08	1.764916e+14	0.000000e+00	4.154929e-01	2.448731e+15	6.053758e+13	7.200277e+14	2.379999e+04	7.114600e+03	3.342946e+03	0	2.200276e-03
1.100000e+08	1.704838e+14	0.000000e+00	4.154929e-01	2.378303e+15	6.366521e+13	7.161160e+14	2.363750e+04	7.160466e+03	3.364497e+03	0	2.175021e-03
1.200000e+08	1.647680e+14	0.000000e+00	4.154929e-01	2.311234e+15	6.683602e+13	7.122334e+14	2.347962e+04	7.205188e+03	3.385511e+03	0	2.150437e-03
1.300000e+08	1.593246e+14	0.000000e+00	4.154929e-01	2.247298e+15	7.004772e+13	7.083795e+14	2.332615e+04	7.248814e+03	3.406010e+03	0	2.126490e-03
1.400000e+08	1.541358e+14	0.000000e+00	4.154929e-01	2.186293e+15	7.329802e+13	7.045541e+14	2.317687e+04	7.291392e+03	3.426015e+03	0	2.103150e-03
1.500000e+08	1.491850e+14	0.000000e+00	4.154929e-01	2.128030e+15	7.658476e+13	7.007570e+14	2.303159e+04	7.332963e+03	3.445549e+03	0	2.080387e-03
1.600000e+08	1.444573e+14	0.000000e+00	4.154929e-01	2.072338e+15	7.990582e+13	6.969879e+14	2.289015e+04	7.373569e+03	3.464628e+03	0	2.058175e-03
1.700000e+08	1.399387e+14	0.000000e+00	4.154929e-01	2.019057e+15	8.325915e+13	6.932467e+14	2.275237e+04	7.413248e+03	3.483272e+03	0	2.036487e-03
1.800000e+08	1.356164e+14	0.000000e+00	4.154929e-01	1.968043e+15	8.664278e+13	6.895330e+14	2.261809e+04	7.452035e+03	3.501497e+03	0	2.015301e-03
1.900000e+08	1.314787e+14	0.000000e+00	4.154929e-01	1.919159e+15	9.005477e+13	6.858467e+14	2.248717e+04	7.489963e+03	3.519318e+03	0	1.994593e-03
2.000000e+08	1.275147e+14	0.000000e+00	4.154929e-01	1.872281e+15	9.349327e+13	6.821875e+14	2.235947e+04	7.527064e+03	3.536751e+03	0	1.974343e-03
2.100000e+08	1.237143e+14	0.000000e+00	4.154929e-01	1.827294e+15	9.695647e+13	6.785552e+14	2.223485e+04	7.563368e+03	3.553809e+03	0	1.954530e-03
2.200000e+08	1.200681e+14	0.000000e+00	4.154929e-01	1.784091e+15	1.004426e+14	6.749496e+14	2.211320e+04	7.598903e+03	3.570506e+03	0	1.935136e-03
2.300000e+08	1.165674e+14	0.000000e+00	4.154929e-01	1.742573e+15	1.039500e+14	6.713705e+14	2.199440e+04	7.633694e+03	3.586854e+03	0	1.916144e-03
2.400000e+08	1.132043e+14	0.000000e+00	4.154929e-01	1.702648e+15	1.074770e+14	6.678176e+14	2.187833e+04	7.667768e+03	3.602864e+03	0	1.897536e-03
2.500000e+08	1.099713e+14	0.000000e+00	4.154929e-01	1.664229e+15	1.110220e+14	6.642907e+14	2.176490e+04	7.701147e+03	3.618548e+03	0	1.879297e-03
2.600000e+08	1.068613e+14	0.000000e+00	4.154929e-01	1.627237e+15	1.145834e+14	6.607896e+14	2.165401e+04	7.733854e+03	3.633916e+03	0	1.861412e-03
2.700000e+08	1.038679e+14	0.000000e+00	4.154929e-01	1.591598e+15	1.181597e+14	6.573142e+14	2.154556e+04	7.765910e+03	3.648978e+03	0	1.843866e-03
2.800000e+08	1.009850e+14	0.000000e+00	4.154929e-01	1.557242e+15	1.217495e+14	6.538641e+14	2.143946e+04	7.797336e+03	3.663744e+03	0	1.826647e-03
2.900000e+08	9.820698e+13	0.000000e+00	4.154929e-01	1.524103e+15	1.253514e+14	6.504392e+14	2.133563e+04	7.828150e+03	3.678223e+03	0	1.809741e-03
3.000000e+08	9.552857e+13	0.000000e+00	4.154929e-01	1.492123e+15	1.289639e+14	6.470392e+14	2.123399e+04	7.858371e+03	3.692423e+03	0	1.793137e-03
3.100000e+08	9.294479e+13	0.000000e+00	4.154929e-01	1.461242e+15	1.325856e+14	6.436641e+14	2.113447e+04	7.888017e+03	3.706352e+03	0	1.776823e-03
3.200000e+08	9.045102e+13	0.000000e+00	4.154929e-01	1.431409e+15	1.362154e+14	6.403134e+14	2.103699e+04	7.917102e+03	3.720019e+03	0	1.760787e-03
3.300000e+08	8.804290e+13	0.000000e+00	4.154929e-01	1.402573e+15	1.398519e+14	6.369872e+14	2.094148e+04	7.945644e+03	3.733430e+03	0	1.745020e-03
3.400000e+08	8.571635e+13	0.000000e+00	4.154929e-01	1.374688e+15	1.434939e+14	6.336851e+14	2.084788e+04	7.973658e+03	3.746593e+03	0	1.729512e-03
3.500000e+08	8.346755e+13	0.000000e+00	4.154929e-01	1.347709e+15	1.471402e+14	6.304070e+14	2.075612e+04	8.001157e+03	3.759514e+03	0	1.714253e-03
3.600000e+08	8.129290e+13	0.000000e+00	4.154929e-01	1.321594e+15	1.507896e+14	6.271526e+14	2.066616e+04	8.028155e+03	3.772199e+03	0	1.699234e-03
3.700000e+08	7.918899e+13	0.000000e+00	4.154929e-01	1.296306e+15	1.544409e+14	6.239218e+14	2.057792e+04	8.054665e+03	3.784656e+03	0	1.684447e-03
3.800000e+08	7.715266e+13	0.000000e+00	4.154929e-01	1.271806e+15	1.580932e+14	6.207144e+14	2.049135e+04	8.080701e+03	3.796889e+03	0	1.669883e-03
3.900000e+08	7.518087e+13	0.000000e+00	4.154929e-01	1.248060e+15	1.617453e+14	6.175301e+14	2.040641e+04	8.106273e+03	3.808905e+03	0	1.655534e-03
4.000000e+08	7.327081e+13	0.000000e+00	4.154929e-01	1.225037e+15	1.653961e+14	6.143689e+14	2.032305e+04	8.131394e+03	3.820708e+03	0	1.641394e-03
4.100000e+08	7.141979e+13	0.000000e+00	4.154929e-01	1.202704e+15	1.690447e+14	6.112304e+14	2.024121e+04	8.156074e+03	3.832305e+03	0	1.627453e-03
4.200000e+08	6.962529e+13	0.000000e+00	4.154929e-01	1.181032e+15	1.726900e+14	6.081146e+14	2.016085e+04	8.180324e+03	3.843699e+03	0	1.613707e-03
4.300000e+08	6.788490e+13	0.000000e+00	4.154929e-01	1.159994e+15	1.763312e+14	6.050212e+14	2.008193e+04	8.204155e+03	3.854897e+03	0	1.600148e-03
4.400000e+08	6.619638e+13	0.000000e+00	4.154929e-01	1.139565e+15	1.799672e+14	6.019501e+14	2.000441e+04	8.227575e+03	3.865901e+03	0	1.586769e-03
4.500000e+08	6.455759e+13	0.000000e+00	4.154929e-01	1.119718e+15	1.835972e+14	5.989010e+14	1.992824e+04	8.250594e+03	3.876717e+03	0	1.573565e-03
4.600000e+08	6.296649e+13	0.000000e+00	4.154929e-01	1.100431e+15	1.872202e+14	5.958738e+14	1.985338e+04	8.273222e+03	3.887349e+03	0	1.560530e-03
4.700000e+08	6.142116e+13	0.000000e+00	4.154929e-01	1.081682e+15	1.908356e+14	5.928684e+14	1.977981e+04	8.295467e+03	3.897802e+03	0	1.547658e-03
4.800000e+08	5.991979e+13	0.000000e+00	4.154929e-01	1.063448e+15	1.944423e+14	5.898845e+14	1.970749e+04	8.317337e+03	3.908078e+03	0	1.534944e-03
4.900000e+08	5.846064e+13	0.000000e+00	4.154929e-01	1.045712e+15	1.980396e+14	5.869219e+14	1.963637e+04	8.338841e+03	3.918182e+03	0	1.522382e-03
5.000000e+08	5.704208e+13	0.000000e+00	4.154929e-01	1.028452e+15	2.016268e+14	5.839805e+14	1.956643e+04	8.359987e+03	3.928118e+03	0	1.509967e-03
5.100000e+08	5.566254e+13	0.000000e+00	4.154929e-01	1.011652e+15	2.052030e+14	5.810602e+14	1.949764e+04	8.380780e+03	3.937888e+03	0	1.497695e-03
5.200000e+08	5.432053e+13	0.000000e+00	4.154929e-01	9.952939e+14	2.087675e+14	5.781606e+14	1.942997e+04	8.401231e+03	3.947497e+03	0	1.485561e-03
5.300000e+08	5.301466e+13	0.000000e+00	4.154929e-01	9.793615e+14	2.123196e+14	5.752818e+14	1.936338e+04	8.421344e+03	3.956947e+03	0	1.473560e-03
5.400000e+08	5.174357e+13	0.000000e+00	4.154929e-01	9.638393e+14	2.158587e+14	5.724234e+14	1.929785e+04	8.441127e+03	3.966243e+03	0	1.461687e-03
5.500000e+08	5.050599e+13	0.000000e+00	4.154929e-01	9.487124e+14	2.193840e+14	5.695854e+14	1.923336e+04	8.460586e+03	3.975386e+03	0	1.449940e-03
5.600000e+08	4.930070e+13	0.000000e+00	4.154929e-01	9.339666e+14	2.228949e+14	5.667676e+14	1.916987e+04	8.479728e+03	3.984381e+03	0	1.438313e-03
5.700000e+08	4.812654e+13	0.000000e+00	4.154929e-01	9.195885e+14	2.263907e+14	5.639698e+14	1.910736e+04	8.498559e+03	3.993229e+03	0	1.426803e-03
5.800000e+08	4.698240e+13	0.000000e+00	4.154929e-01	9.055652e+14	2.298709e+14	5.611918e+14	1.904581e+04	8.517085e+03	4.001934e+03	0	1.415405e-03
5.900000e+08	4.586722e+13	0.000000e+00	4.154929e-01	8.918845e+14	2.333348e+14	5.584336e+14	1.898519e+04	8.535312e+03	4.010498e+03	0	1.404117e-03
6.000000e+08	4.478000e+13	0.000000e+00	4.154929e-01	8.785345e+14	2.367820e+14	5.556948e+14	1.892548e+04	8.553245e+03	4.018924e+03	0	1.392934e-03
6.100000e+08	4.371977e+13	0.000000e+00	4.154929e-01	8.655041e+14	2.402117e+14	5.529754e+14	1.886666e+04	8.570890e+03	4.027215e+03	0	1.381852e-03
6.200000e+08	4.268560e+13	0.000000e+00	4.154929e-01	8.527825e+14	2.436236e+14	5.502753e+14	1.880870e+04	8.588251e+03	4.035372e+03	0	1.370870e-03
6.300000e+08	4.167663e+13	0.000000e+00	4.154929e-01	8.403595e+14	2.470170e+14	5.475942e+14	1.875160e+04	8.605335e+03	4.043400e+03	0	1.359982e-03
6.400000e+08	4.069200e+13	0.000000e+00	4.154929e-01	8.282253e+14	2.503915e+14	5.449320e+14	1.869532e+04	8.622145e+03	4.051298e+03	0	1.349187e-03
6.500000e+08	3.973091e+13	0.000000e+00	4.154929e-01	8.163705e+14	2.537466e+14	5.422886e+14	1.863985e+04	8.638688e+03	4.059071e+03	0	1.338480e-03
6.600000e+08	3.879260e+13	0.000000e+00	4.154929e-01	8.047860e+14	2.570819e+14	5.396637e+14	1.858517e+04	8.654966e+03	4.066720e+03	0	1.327859e-03
6.700000e+08	3.787631e+13	0.000000e+00	4.154929e-01	7.934633e+14	2.603968e+14	5.370573e+14	1.853126e+04	8.670986e+03	4.074247e+03	0	1.317321e-03
6.800000e+08	3.698134e+13	0.000000e+00	4.154929e-01	7.823941e+14	2.636910e+14	5.344693e+14	1.847810e+04	8.686752e+03	4.081655e+03	0	1.306863e-03
6.900000e+08	3.610701e+13	0.000000e+00	4.154929e-01	7.715704e+14	2.669639e+14	5.318993e+14	1.842568e+04	8.702267e+03	4.088945e+03	0	1.296481e-03
7.000000e+08	3.525268e+13	0.000000e+00	4.154929e-01	7.609847e+14	2.702154e+14	5.293474e+14	1.837399e+04	8.717537e+03	4.096120e+03	0	1.286174e-03
7.100000e+08	3.441771e+13	0.000000e+00	4.154929e-01	7.506296e+14	2.734448e+14	5.268134e+14	1.832300e+04	8.732565e+03	4.103181e+03	0	1.275938e-03
7.200000e+08	3.360151e+13	0.000000e+00	4.154929e-01	7.404982e+14	2.766520e+14	5.242971e+14	1.827270e+04	8.747355e+03	4.110131e+03	0	1.265772e-03
7.300000e+08	3.280350e+13	0.000000e+00	4.154929e-01	7.305837e+14	2.798365e+14	5.217983e+14	1.822307e+04	8.761910e+03	4.116970e+03	0	1.255671e-03
7.400000e+08	3.202313e+13	0.000000e+00	4.154929e-01	7.208796e+14	2.829980e+14	5.193171e+14	1.817411e+04	8.776236e+03	4.123701e+03	0	1.245634e-03
7.500000e+08	3.125986e+13	0.000000e+00	4.154929e-01	7.113798e+14	2.861360e+14	5.168531e+14	1.812579e+04	8.790336e+03	4.130326e+03	0	1.235657e-03
7.600000e+08	3.051320e+13	0.000000e+00	4.154929e-01	7.020782e+14	2.892505e+14	5.144062e+14	1.807811e+04	8.804212e+03	4.136846e+03	0	1.225740e-03
7.700000e+08	2.978264e+13	0.000000e+00	4.154929e-01	6.929691e+14	2.923410e+14	5.119764e+14	1.803104e+04	8.817869e+03	4.143264e+03	0	1.215878e-03
7.800000e+08	2.906771e+13	0.000000e+00	4.154929e-01	6.840470e+14	2.954072e+14	5.095635e+14	1.798459e+04	8.831311e+03	4.149579e+03	0	1.206070e-03
7.900000e+08	2.836796e+13	0.000000e+00	4.154929e-01	6.753064e+14	2.984490e+14	5.071673e+14	1.793873e+04	8.844540e+03	4.155795e+03	0	1.196314e-03
8.000000e+08	2.768295e+13	0.000000e+00	4.154929e-01	6.667424e+14	3.014660e+14	5.047878e+14	1.789345e+04	8.857560e+03	4.161913e+03	0	1.186606e-03
8.100000e+08	2.701227e+13	0.000000e+00	4.154929e-01	6.583499e+14	3.044580e+14	5.024248e+14	1.784874e+04	8.870374e+03	4.167934e+03	0	1.176945e-03
8.200000e+08	2.635550e+13	0.000000e+00	4.154929e-01	6.501242e+14	3.074247e+14	5.000781e+14	1.780460e+04	8.882985e+03	4.173859e+03	0	1.167328e-03
8.300000e+08	2.571225e+13	0.000000e+00	4.154929e-01	6.420608e+14	3.103660e+14	4.977476e+14	1.776100e+04	8.895396e+03	4.179691e+03	0	1.157753e-03
8.400000e+08	2.508215e+13	0.000000e+00	4.154929e-01	6.341550e+14	3.132816e+14	4.954332e+14	1.771794e+04	8.907611e+03	4.185431e+03	0	1.148217e-03
8.500000e+08	2.446484e+13	0.000000e+00	4.154929e-01	6.264028e+14	3.161714e+14	4.931348e+14	1.767541e+04	8.919632e+03	4.191079e+03	0	1.138719e-03
8.600000e+08	2.385996e+13	0.000000e+00	4.154929e-01	6.188000e+14	3.190350e+14	4.908522e+14	1.763340e+04	8.931462e+03	4.196638e+03	0	1.129256e-03
8.700000e+08	2.326717e+13	0.000000e+00	4.154929e-01	6.113425e+14	3.218725e+14	4.885854e+14	1.759189e+04	8.943105e+03	4.202108e+03	0	1.119825e-03
8.800000e+08	2.268616e+13	0.000000e+00	4.154929e-01	6.040267e+14	3.246836e+14	4.863341e+14	1.755089e+04	8.954561e+03	4.207491e+03	0	1.110425e-03
8.900000e+08	2.211660e+13	0.000000e+00	4.154929e-01	5.968487e+14	3.274682e+14	4.840983e+14	1.751037e+04	8.965836e+03	4.212789e+03	0	1.101054e-03
9.000000e+08	2.155820e+13	0.000000e+00	4.154929e-01	5.898049e+14	3.302261e+14	4.818779e+14	1.747033e+04	8.976930e+03	4.218002e+03	0	1.091708e-03
9.100000e+08	2.101065e+13	0.000000e+00	4.154929e-01	5.828920e+14	3.329571e+14	4.796727e+14	1.743076e+04	8.987847e+03	4.223131e+03	0	1.082386e-03
9.200000e+08	2.047368e+13	0.000000e+00	4.154929e-01	5.761066e+14	3.356612e+14	4.774825e+14	1.739165e+04	8.998590e+03	4.228179e+03	0	1.073086e-03
9.300000e+08	1.994701e+13	0.000000e+00	4.154929e-01	5.694454e+14	3.383383e+14	4.753074e+14	1.735300e+04	9.009160e+03	4.233145e+03	0	1.063804e-03
9.400000e+08	1.943037e+13	0.000000e+00	4.154929e-01	5.629053e+14	3.409883e+14	4.731471e+14	1.731479e+04	9.019560e+03	4.238032e+03	0	1.054539e-03
9.500000e+08	1.892351e+13	0.000000e+00	4.154929e-01	5.564833e+14	3.436110e+14	4.710016e+14	1.727702e+04	9.029793e+03	4.242840e+03	0	1.045289e-03
9.600000e+08	1.842619e+13	0.000000e+00	4.154929e-01	5.501764e+14	3.462065e+14	4.688707e+14	1.723967e+04	9.039861e+03	4.247571e+03	0	1.036050e-03
9.700000e+08	1.793816e+13	0.000000e+00	4.154929e-01	5.439819e+14	3.487745e+14	4.667543e+14	1.720275e+04	9.049766e+03	4.252225e+03	0	1.026822e-03
9.800000e+08	1.745919e+13	0.000000e+00	4.154929e-01	5.378970e+14	3.513151e+14	4.646523e+14	1.716624e+04	9.059511e+03	4.256804e+03	0	1.017600e-03
9.900000e+08	1.698905e+13	0.000000e+00	4.154929e-01	5.319190e+14	3.538282e+14	4.625646e+14	1.713014e+04	9.069098e+03	4.261309e+03	0	1.008383e-03
1.000000e+09	1.652754e+13	0.000000e+00	4.154929e-01	5.260453e+14	3.563137e+14	4.604911e+14	1.709444e+04	9.078529e+03	4.265740e+03	0	9.991678e-04
1.010000e+09	1.607443e+13	0.000000e+00	4.154929e-01	5.202735e+14	3.587717e+14	4.584316e+14	1.705913e+04	9.087806e+03	4.270099e+03	0	9.899522e-04
1.020000e+09	1.562952e+13	0.000000e+00	4.154929e-01	5.146012e+14	3.612021e+14	4.563861e+14	1.702421e+04	9.096931e+03	4.274387e+03	0	9.807334e-04
1.030000e+09	1.519263e+13	0.000000e+00	4.154929e-01	5.090260e+14	3.636048e+14	4.543544e+14	1.698967e+04	9.105907e+03	4.278604e+03	0	9.715087e-04
1.040000e+09	1.476354e+13	0.000000e+00	4.154929e-01	5.035456e+14	3.659798e+14	4.523365e+14	1.695550e+04	9.114735e+03	4.282752e+03	0	9.622751e-04
1.050000e+09	1.434209e+13	0.000000e+00	4.154929e-01	4.981578e+14	3.683273e+14	4.503322e+14	1.692169e+04	9.123417e+03	4.286832e+03	0	9.530300e-04
1.060000e+09	1.392809e+13	0.000000e+00	4.154929e-01	4.928606e+14	3.706470e+14	4.483414e+14	1.688825e+04	9.131956e+03	4.290844e+03	0	9.437702e-04
1.070000e+09	1.352136e+13	0.000000e+00	4.154929e-01	4.876518e+14	3.729392e+14	4.463640e+14	1.685516e+04	9.140353e+03	4.294789e+03	0	9.344927e-04
1.080000e+09	1.312174e+13	0.000000e+00	4.154929e-01	4.825294e+14	3.752036e+14	4.443999e+14	1.682242e+04	9.148611e+03	4.298669e+03	0	9.251942e-04
1.090000e+09	1.272907e+13	0.000000e+00	4.154929e-01	4.774915e+14	3.774404e+14	4.424490e+14	1.679002e+04	9.156731e+03	4.302485e+03	0	9.158715e-04
1.100000e+09	1.234317e+13	0.000000e+00	4.154929e-01	4.725361e+14	3.796497e+14	4.405113e+14	1.675796e+04	9.164714e+03	4.306236e+03	0	9.065212e-04
1.110000e+09	1.196390e+13	0.000000e+00	4.154929e-01	4.676615e+14	3.818314e+14	4.385865e+14	1.672623e+04	9.172564e+03	4.309924e+03	0	8.971396e-04
1.120000e+09	1.159111e+13	0.000000e+00	4.154929e-01	4.628658e+14	3.839857e+14	4.366746e+14	1.669482e+04	9.180281e+03	4.313550e+03	0	8.877229e-04
1.130000e+09	1.122466e+13	0.000000e+00	4.154929e-01	4.581474e+14	3.861124e+14	4.347755e+14	1.666374e+04	9.187868e+03	4.317115e+03	0	8.782673e-04
1.140000e+09	1.086439e+13	0.000000e+00	4.154929e-01	4.535045e+14	3.882117e+14	4.328891e+14	1.663297e+04	9.195325e+03	4.320619e+03	0	8.687687e-04
1.150000e+09	1.051018e+13	0.000000e+00	4.154929e-01	4.489354e+14	3.902837e+14	4.310153e+14	1.660252e+04	9.202656e+03	4.324064e+03	0	8.592226e-04
1.160000e+09	1.016188e+13	0.000000e+00	4.154929e-01	4.444387e+14	3.923285e+14	4.291540e+14	1.657237e+04	9.209861e+03	4.327449e+03	0	8.496246e-04
1.170000e+09	9.819376e+12	0.000000e+00	4.154929e-01	4.400127e+14	3.943459e+14	4.273051e+14	1.654252e+04	9.216942e+03	4.330776e+03	0	8.399698e-04
1.180000e+09	9.482534e+12	0.000000e+00	4.154929e-01	4.356560e+14	3.963362e+14	4.254685e+14	1.651296e+04	9.223901e+03	4.334046e+03	0	8.302531e-04
1.190000e+09	9.151232e+12	0.000000e+00	4.154929e-01	4.313670e+14	3.982995e+14	4.236441e+14	1.648370e+04	9.230739e+03	4.337259e+03	0	8.204691e-04
1.200000e+09	8.825352e+12	0.000000e+00	4.154929e-01	4.271444e+14	4.002358e+14	4.218318e+14	1.645472e+04	9.237459e+03	4.340416e+03	0	8.106121e-04
1.210000e+09	8.504777e+12	0.000000e+00	4.154929e-01	4.229868e+14	4.021452e+14	4.200316e+14	1.642603e+04	9.244061e+03	4.343518e+03	0	8.006758e-04
1.220000e+09	8.189393e+12	0.000000e+00	4.154929e-01	4.188927e+14	4.040277e+14	4.182433e+14	1.639762e+04	9.250546e+03	4.346566e+03	0	7.906537e-04
1.230000e+09	7.879092e+12	0.000000e+00	4.154929e-01	4.148610e+14	4.058836e+14	4.164667e+14	1.636948e+04	9.256918e+03	4.349560e+03	0	7.805387e-04
1.240000e+09	7.573766e+12	0.000000e+00	4.154929e-01	4.108903e+14	4.077129e+14	4.147020e+14	1.634161e+04	9.263176e+03	4.352501e+03	0	7.703233e-04
1.250000e+09	7.273312e+12	0.000000e+00	4.154929e-01	4.069794e+14	4.095157e+14	4.129489e+14	1.631400e+04	9.269324e+03	4.355389e+03	0	7.599992e-04
1.260000e+09	6.977627e+12	0.000000e+00	4.154929e-01	4.031271e+14	4.112922e+14	4.112073e+14	1.628666e+04	9.275361e+03	4.358225e+03	0	7.495575e-04
1.270000e+09	6.686614e+12	0.000000e+00	4.154929e-01	3.993321e+14	4.130423e+14	4.094772e+14	1.625958e+04	9.281289e+03	4.361011e+03	0	7.389887e-04
1.280000e+09	6.400176e+12	0.000000e+00	4.154929e-01	3.955934e+14	4.147663e+14	4.077586e+14	1.623274e+04	9.287110e+03	4.363746e+03	0	7.282822e-04
1.290000e+09	6.118220e+12	0.000000e+00	4.154929e-01	3.919098e+14	4.164643e+14	4.060511e+14	1.620616e+04	9.292826e+03	4.366432e+03	0	7.174265e-04
1.300000e+09	5.840655e+12	0.000000e+00	4.154929e-01	3.882802e+14	4.181364e+14	4.043550e+14	1.617983e+04	9.298437e+03	4.369068e+03	0	7.064090e-04
1.310000e+09	5.567392e+12	0.000000e+00	4.154929e-01	3.847036e+14	4.197826e+14	4.026699e+14	1.615374e+04	9.303945e+03	4.371656e+03	0	6.952158e-04
1.320000e+09	5.298344e+12	0.000000e+00	4.154929e-01	3.811789e+14	4.214033e+14	4.009958e+14	1.612789e+04	9.309351e+03	4.374196e+03	0	6.838315e-04
1.330000e+09	5.033427e+12	0.000000e+00	4.154929e-01	3.777051e+14	4.229984e+14	3.993327e+14	1.610228e+04	9.314656e+03	4.376689e+03	0	6.722389e-04
1.340000e+09	4.772559e+12	0.000000e+00	4.154929e-01	3.742812e+14	4.245682e+14	3.976805e+14	1.607689e+04	9.319863e+03	4.379136e+03	0	6.604189e-04
1.350000e+09	4.515661e+12	0.000000e+00	4.154929e-01	3.709063e+14	4.261128e+14	3.960391e+14	1.605174e+04	9.324971e+03	4.381536e+03	0	6.483500e-04
1.360000e+09	4.262653e+12	0.000000e+00	4.154929e-01	3.675795e+14	4.276322e+14	3.944083e+14	1.602681e+04	9.329983e+03	4.383891e+03	0	6.360077e-04
