#t		Qconv[W]	Ri[Rp]		R*[Rp]		Qc[W]		Qm[W]		Qr[W]		Tcmb[K]		Tl[K]		Tup[K]		RiFlag		Bs[T]
0.000000e+00	4.714060e+13	0.000000e+00	5.664737e-01	6.841088e+14	9.438295e+13	3.029062e+14	1.085349e+04	5.083452e+03	2.506272e+03	0	1.180859e-03
1.000000e+07	4.640051e+13	0.000000e+00	5.664737e-01	6.749188e+14	9.845724e+13	3.012279e+14	1.081649e+04	5.115257e+03	2.521953e+03	0	1.174647e-03
2.000000e+07	4.566899e+13	0.000000e+00	5.664737e-01	6.658360e+14	1.025924e+14	2.995621e+14	1.077999e+04	5.146527e+03	2.537369e+03	0	1.168441e-03
3.000000e+07	4.494608e+13	0.000000e+00	5.664737e-01	6.568606e+14	1.067848e+14	2.979088e+14	1.074397e+04	5.177263e+03	2.552523e+03	0	1.162243e-03
4.000000e+07	4.423179e+13	0.000000e+00	5.664737e-01	6.479930e+14	1.110307e+14	2.962678e+14	1.070844e+04	5.207470e+03	2.567416e+03	0	1.156053e-03
5.000000e+07	4.352614e+13	0.000000e+00	5.664737e-01	6.392332e+14	1.153262e+14	2.946391e+14	1.067338e+04	5.237148e+03	2.582048e+03	0	1.149873e-03
6.000000e+07	4.282916e+13	0.000000e+00	5.664737e-01	6.305815e+14	1.196675e+14	2.930225e+14	1.063880e+04	5.266301e+03	2.596421e+03	0	1.143702e-03
7.000000e+07	4.214085e+13	0.000000e+00	5.664737e-01	6.220379e+14	1.240506e+14	2.914179e+14	1.060468e+04	5.294931e+03	2.610536e+03	0	1.137542e-03
8.000000e+07	4.146123e+13	0.000000e+00	5.664737e-01	6.136024e+14	1.284716e+14	2.898253e+14	1.057102e+04	5.323041e+03	2.624395e+03	0	1.131394e-03
9.000000e+07	4.079030e+13	0.000000e+00	5.664737e-01	6.052751e+14	1.329265e+14	2.882445e+14	1.053782e+04	5.350634e+03	2.637999e+03	0	1.125258e-03
1.000000e+08	4.012807e+13	0.000000e+00	5.664737e-01	5.970559e+14	1.374114e+14	2.866755e+14	1.050506e+04	5.377713e+03	2.651350e+03	0	1.119135e-03
1.100000e+08	3.947452e+13	0.000000e+00	5.664737e-01	5.889447e+14	1.419221e+14	2.851181e+14	1.047275e+04	5.404282e+03	2.664449e+03	0	1.113026e-03
1.200000e+08	3.882967e+13	0.000000e+00	5.664737e-01	5.809415e+14	1.464547e+14	2.835722e+14	1.044088e+04	5.430344e+03	2.677299e+03	0	1.106932e-03
1.300000e+08	3.819349e+13	0.000000e+00	5.664737e-01	5.730459e+14	1.510052e+14	2.820378e+14	1.040943e+04	5.455902e+03	2.689900e+03	0	1.100853e-03
1.400000e+08	3.756597e+13	0.000000e+00	5.664737e-01	5.652578e+14	1.555697e+14	2.805147e+14	1.037842e+04	5.480961e+03	2.702254e+03	0	1.094791e-03
1.500000e+08	3.694710e+13	0.000000e+00	5.664737e-01	5.575770e+14	1.601442e+14	2.790029e+14	1.034782e+04	5.505524e+03	2.714364e+03	0	1.088746e-03
1.600000e+08	3.633686e+13	0.000000e+00	5.664737e-01	5.500031e+14	1.647249e+14	2.775023e+14	1.031763e+04	5.529594e+03	2.726232e+03	0	1.082718e-03
1.700000e+08	3.573521e+13	0.000000e+00	5.664737e-01	5.425357e+14	1.693078e+14	2.760127e+14	1.028786e+04	5.553177e+03	2.737858e+03	0	1.076709e-03
1.800000e+08	3.514214e+13	0.000000e+00	5.664737e-01	5.351745e+14	1.738893e+14	2.745342e+14	1.025848e+04	5.576276e+03	2.749247e+03	0	1.070720e-03
1.900000e+08	3.455761e+13	0.000000e+00	5.664737e-01	5.279189e+14	1.784656e+14	2.730665e+14	1.022951e+04	5.598896e+03	2.760399e+03	0	1.064750e-03
2.000000e+08	3.398159e+13	0.000000e+00	5.664737e-01	5.207686e+14	1.830330e+14	2.716096e+14	1.020092e+04	5.621040e+03	2.771317e+03	0	1.058801e-03
2.100000e+08	3.341403e+13	0.000000e+00	5.664737e-01	5.137230e+14	1.875880e+14	2.701634e+14	1.017272e+04	5.642714e+03	2.782002e+03	0	1.052873e-03
2.200000e+08	3.285489e+13	0.000000e+00	5.664737e-01	5.067814e+14	1.921271e+14	2.687279e+14	1.014490e+04	5.663922e+03	2.792458e+03	0	1.046967e-03
2.300000e+08	3.230413e+13	0.000000e+00	5.664737e-01	4.999434e+14	1.966468e+14	2.673028e+14	1.011745e+04	5.684669e+03	2.802687e+03	0	1.041084e-03
2.400000e+08	3.176170e+13	0.000000e+00	5.664737e-01	4.932083e+14	2.011440e+14	2.658883e+14	1.009038e+04	5.704959e+03	2.812691e+03	0	1.035224e-03
2.500000e+08	3.122754e+13	0.000000e+00	5.664737e-01	4.865753e+14	2.056154e+14	2.644841e+14	1.006366e+04	5.724798e+03	2.822472e+03	0	1.029388e-03
2.600000e+08	3.070161e+13	0.000000e+00	5.664737e-01	4.800437e+14	2.100578e+14	2.630901e+14	1.003731e+04	5.744191e+03	2.832033e+03	0	1.023576e-03
2.700000e+08	3.018383e+13	0.000000e+00	5.664737e-01	4.736129e+14	2.144684e+14	2.617064e+14	1.001130e+04	5.763142e+03	2.841377e+03	0	1.017789e-03
2.800000e+08	2.967416e+13	0.000000e+00	5.664737e-01	4.672820e+14	2.188441e+14	2.603328e+14	9.985648e+03	5.781657e+03	2.850505e+03	0	1.012028e-03
2.900000e+08	2.917252e+13	0.000000e+00	5.664737e-01	4.610502e+14	2.231822e+14	2.589692e+14	9.960333e+03	5.799741e+03	2.859421e+03	0	1.006293e-03
3.000000e+08	2.867885e+13	0.000000e+00	5.664737e-01	4.549166e+14	2.274800e+14	2.576155e+14	9.935355e+03	5.817400e+03	2.868127e+03	0	1.000584e-03
3.100000e+08	2.819308e+13	0.000000e+00	5.664737e-01	4.488803e+14	2.317351e+14	2.562717e+14	9.910708e+03	5.834638e+03	2.876626e+03	0	9.949025e-04
3.200000e+08	2.771514e+13	0.000000e+00	5.664737e-01	4.429406e+14	2.359449e+14	2.549376e+14	9.886387e+03	5.851461e+03	2.884920e+03	0	9.892484e-04
3.300000e+08	2.724495e+13	0.000000e+00	5.664737e-01	4.370963e+14	2.401071e+14	2.536133e+14	9.862386e+03	5.867875e+03	2.893012e+03	0	9.836223e-04
3.400000e+08	2.678245e+13	0.000000e+00	5.664737e-01	4.313466e+14	2.442196e+14	2.522986e+14	9.838701e+03	5.883885e+03	2.900906e+03	0	9.780245e-04
3.500000e+08	2.632754e+13	0.000000e+00	5.664737e-01	4.256904e+14	2.482802e+14	2.509934e+14	9.815326e+03	5.899496e+03	2.908602e+03	0	9.724555e-04
3.600000e+08	2.588015e+13	0.000000e+00	5.664737e-01	4.201268e+14	2.522870e+14	2.496977e+14	9.792257e+03	5.914715e+03	2.916106e+03	0	9.669157e-04
3.700000e+08	2.544020e+13	0.000000e+00	5.664737e-01	4.146548e+14	2.562381e+14	2.484114e+14	9.769488e+03	5.929546e+03	2.923418e+03	0	9.614053e-04
3.800000e+08	2.500761e+13	0.000000e+00	5.664737e-01	4.092732e+14	2.601318e+14	2.471344e+14	9.747014e+03	5.943995e+03	2.930542e+03	0	9.559248e-04
3.900000e+08	2.458229e+13	0.000000e+00	5.664737e-01	4.039811e+14	2.639665e+14	2.458666e+14	9.724832e+03	5.958069e+03	2.937480e+03	0	9.504744e-04
4.000000e+08	2.416415e+13	0.000000e+00	5.664737e-01	3.987773e+14	2.677407e+14	2.446079e+14	9.702935e+03	5.971772e+03	2.944237e+03	0	9.450544e-04
4.100000e+08	2.375310e+13	0.000000e+00	5.664737e-01	3.936608e+14	2.714529e+14	2.433584e+14	9.681319e+03	5.985111e+03	2.950813e+03	0	9.396652e-04
4.200000e+08	2.334907e+13	0.000000e+00	5.664737e-01	3.886305e+14	2.751020e+14	2.421178e+14	9.659979e+03	5.998091e+03	2.957212e+03	0	9.343068e-04
4.300000e+08	2.295195e+13	0.000000e+00	5.664737e-01	3.836851e+14	2.786868e+14	2.408862e+14	9.638912e+03	6.010717e+03	2.963437e+03	0	9.289796e-04
4.400000e+08	2.256166e+13	0.000000e+00	5.664737e-01	3.788237e+14	2.822061e+14	2.396635e+14	9.618111e+03	6.022996e+03	2.969491e+03	0	9.236838e-04
4.500000e+08	2.217810e+13	0.000000e+00	5.664737e-01	3.740451e+14	2.856591e+14	2.384495e+14	9.597574e+03	6.034933e+03	2.975376e+03	0	9.184195e-04
4.600000e+08	2.180118e+13	0.000000e+00	5.664737e-01	3.693480e+14	2.890448e+14	2.372442e+14	9.577294e+03	6.046533e+03	2.981096e+03	0	9.131869e-04
4.700000e+08	2.143082e+13	0.000000e+00	5.664737e-01	3.647315e+14	2.923626e+14	2.360476e+14	9.557268e+03	6.057803e+03	2.986652e+03	0	9.079862e-04
4.800000e+08	2.106691e+13	0.000000e+00	5.664737e-01	3.601942e+14	2.956118e+14	2.348596e+14	9.537492e+03	6.068748e+03	2.992048e+03	0	9.028174e-04
4.900000e+08	2.070936e+13	0.000000e+00	5.664737e-01	3.557352e+14	2.987918e+14	2.336801e+14	9.517961e+03	6.079374e+03	2.997287e+03	0	8.976807e-04
5.000000e+08	2.035808e+13	0.000000e+00	5.664737e-01	3.513531e+14	3.019022e+14	2.325090e+14	9.498671e+03	6.089686e+03	3.002371e+03	0	8.925762e-04
5.100000e+08	2.001298e+13	0.000000e+00	5.664737e-01	3.470468e+14	3.049425e+14	2.313462e+14	9.479618e+03	6.099689e+03	3.007303e+03	0	8.875038e-04
5.200000e+08	1.967395e+13	0.000000e+00	5.664737e-01	3.428152e+14	3.079125e+14	2.301918e+14	9.460797e+03	6.109390e+03	3.012086e+03	0	8.824637e-04
5.300000e+08	1.934091e+13	0.000000e+00	5.664737e-01	3.386572e+14	3.108119e+14	2.290456e+14	9.442206e+03	6.118793e+03	3.016722e+03	0	8.774559e-04
5.400000e+08	1.901376e+13	0.000000e+00	5.664737e-01	3.345714e+14	3.136407e+14	2.279076e+14	9.423839e+03	6.127905e+03	3.021214e+03	0	8.724804e-04
5.500000e+08	1.869241e+13	0.000000e+00	5.664737e-01	3.305569e+14	3.163987e+14	2.267776e+14	9.405693e+03	6.136730e+03	3.025565e+03	0	8.675372e-04
5.600000e+08	1.837677e+13	0.000000e+00	5.664737e-01	3.266124e+14	3.190861e+14	2.256557e+14	9.387764e+03	6.145274e+03	3.029777e+03	0	8.626263e-04
5.700000e+08	1.806673e+13	0.000000e+00	5.664737e-01	3.227367e+14	3.217029e+14	2.245418e+14	9.370048e+03	6.153542e+03	3.033854e+03	0	8.577476e-04
5.800000e+08	1.776221e+13	0.000000e+00	5.664737e-01	3.189288e+14	3.242492e+14	2.234358e+14	9.352542e+03	6.161540e+03	3.037797e+03	0	8.529010e-04
5.900000e+08	1.746311e+13	0.000000e+00	5.664737e-01	3.151875e+14	3.267252e+14	2.223376e+14	9.335242e+03	6.169273e+03	3.041609e+03	0	8.480866e-04
6.000000e+08	1.716934e+13	0.000000e+00	5.664737e-01	3.115116e+14	3.291312e+14	2.212472e+14	9.318144e+03	6.176745e+03	3.045293e+03	0	8.433041e-04
6.100000e+08	1.688082e+13	0.000000e+00	5.664737e-01	3.079001e+14	3.314677e+14	2.201644e+14	9.301245e+03	6.183963e+03	3.048852e+03	0	8.385536e-04
6.200000e+08	1.659744e+13	0.000000e+00	5.664737e-01	3.043518e+14	3.337348e+14	2.190894e+14	9.284541e+03	6.190930e+03	3.052287e+03	0	8.338349e-04
6.300000e+08	1.631913e+13	0.000000e+00	5.664737e-01	3.008657e+14	3.359332e+14	2.180219e+14	9.268030e+03	6.197653e+03	3.055601e+03	0	8.291478e-04
6.400000e+08	1.604578e+13	0.000000e+00	5.664737e-01	2.974405e+14	3.380632e+14	2.169620e+14	9.251707e+03	6.204135e+03	3.058797e+03	0	8.244923e-04
6.500000e+08	1.577731e+13	0.000000e+00	5.664737e-01	2.940753e+14	3.401255e+14	2.159095e+14	9.235569e+03	6.210383e+03	3.061878e+03	0	8.198682e-04
6.600000e+08	1.551364e+13	0.000000e+00	5.664737e-01	2.907689e+14	3.421205e+14	2.148645e+14	9.219613e+03	6.216400e+03	3.064844e+03	0	8.152752e-04
6.700000e+08	1.525468e+13	0.000000e+00	5.664737e-01	2.875203e+14	3.440490e+14	2.138267e+14	9.203836e+03	6.222192e+03	3.067700e+03	0	8.107134e-04
6.800000e+08	1.500033e+13	0.000000e+00	5.664737e-01	2.843284e+14	3.459115e+14	2.127963e+14	9.188235e+03	6.227762e+03	3.070446e+03	0	8.061823e-04
6.900000e+08	1.475052e+13	0.000000e+00	5.664737e-01	2.811923e+14	3.477088e+14	2.117731e+14	9.172806e+03	6.233117e+03	3.073086e+03	0	8.016820e-04
7.000000e+08	1.450516e+13	0.000000e+00	5.664737e-01	2.781108e+14	3.494415e+14	2.107571e+14	9.157547e+03	6.238260e+03	3.075622e+03	0	7.972121e-04
7.100000e+08	1.426417e+13	0.000000e+00	5.664737e-01	2.750829e+14	3.511105e+14	2.097482e+14	9.142455e+03	6.243196e+03	3.078055e+03	0	7.927724e-04
7.200000e+08	1.402747e+13	0.000000e+00	5.664737e-01	2.721076e+14	3.527165e+14	2.087463e+14	9.127527e+03	6.247929e+03	3.080389e+03	0	7.883627e-04
7.300000e+08	1.379497e+13	0.000000e+00	5.664737e-01	2.691840e+14	3.542603e+14	2.077514e+14	9.112760e+03	6.252464e+03	3.082625e+03	0	7.839828e-04
7.400000e+08	1.356659e+13	0.000000e+00	5.664737e-01	2.663111e+14	3.557427e+14	2.067635e+14	9.098151e+03	6.256805e+03	3.084765e+03	0	7.796325e-04
7.500000e+08	1.334226e+13	0.000000e+00	5.664737e-01	2.634879e+14	3.571646e+14	2.057825e+14	9.083697e+03	6.260956e+03	3.086811e+03	0	7.753114e-04
7.600000e+08	1.312191e+13	0.000000e+00	5.664737e-01	2.607134e+14	3.585268e+14	2.048083e+14	9.069396e+03	6.264921e+03	3.088766e+03	0	7.710194e-04
7.700000e+08	1.290544e+13	0.000000e+00	5.664737e-01	2.579867e+14	3.598303e+14	2.038409e+14	9.055246e+03	6.268705e+03	3.090632e+03	0	7.667561e-04
7.800000e+08	1.269279e+13	0.000000e+00	5.664737e-01	2.553070e+14	3.610759e+14	2.028802e+14	9.041243e+03	6.272311e+03	3.092410e+03	0	7.625213e-04
7.900000e+08	1.248388e+13	0.000000e+00	5.664737e-01	2.526732e+14	3.622646e+14	2.019262e+14	9.027385e+03	6.275744e+03	3.094102e+03	0	7.583147e-04
8.000000e+08	1.227864e+13	0.000000e+00	5.664737e-01	2.500845e+14	3.633971e+14	2.009788e+14	9.013669e+03	6.279007e+03	3.095711e+03	0	7.541361e-04
8.100000e+08	1.207699e+13	0.000000e+00	5.664737e-01	2.475400e+14	3.644747e+14	2.000379e+14	9.000094e+03	6.282105e+03	3.097238e+03	0	7.499851e-04
8.200000e+08	1.187888e+13	0.000000e+00	5.664737e-01	2.450388e+14	3.654979e+14	1.991036e+14	8.986657e+03	6.285040e+03	3.098686e+03	0	7.458614e-04
8.300000e+08	1.168422e+13	0.000000e+00	5.664737e-01	2.425801e+14	3.664680e+14	1.981757e+14	8.973355e+03	6.287817e+03	3.100055e+03	0	7.417648e-04
8.400000e+08	1.149294e+13	0.000000e+00	5.664737e-01	2.401631e+14	3.673858e+14	1.972543e+14	8.960186e+03	6.290440e+03	3.101348e+03	0	7.376949e-04
8.500000e+08	1.130499e+13	0.000000e+00	5.664737e-01	2.377869e+14	3.682523e+14	1.963392e+14	8.947147e+03	6.292911e+03	3.102566e+03	0	7.336514e-04
8.600000e+08	1.112030e+13	0.000000e+00	5.664737e-01	2.354507e+14	3.690684e+14	1.954304e+14	8.934238e+03	6.295235e+03	3.103712e+03	0	7.296341e-04
8.700000e+08	1.093879e+13	0.000000e+00	5.664737e-01	2.331537e+14	3.698351e+14	1.945279e+14	8.921455e+03	6.297415e+03	3.104786e+03	0	7.256426e-04
8.800000e+08	1.076041e+13	0.000000e+00	5.664737e-01	2.308952e+14	3.705533e+14	1.936315e+14	8.908796e+03	6.299453e+03	3.105792e+03	0	7.216765e-04
8.900000e+08	1.058509e+13	0.000000e+00	5.664737e-01	2.286743e+14	3.712240e+14	1.927414e+14	8.896260e+03	6.301355e+03	3.106729e+03	0	7.177356e-04
9.000000e+08	1.041277e+13	0.000000e+00	5.664737e-01	2.264904e+14	3.718482e+14	1.918573e+14	8.883844e+03	6.303122e+03	3.107600e+03	0	7.138195e-04
9.100000e+08	1.024339e+13	0.000000e+00	5.664737e-01	2.243427e+14	3.724268e+14	1.909793e+14	8.871546e+03	6.304758e+03	3.108407e+03	0	7.099280e-04
9.200000e+08	1.007690e+13	0.000000e+00	5.664737e-01	2.222304e+14	3.729606e+14	1.901073e+14	8.859365e+03	6.306266e+03	3.109150e+03	0	7.060606e-04
9.300000e+08	9.913228e+12	0.000000e+00	5.664737e-01	2.201529e+14	3.734509e+14	1.892413e+14	8.847298e+03	6.307649e+03	3.109832e+03	0	7.022170e-04
9.400000e+08	9.752324e+12	0.000000e+00	5.664737e-01	2.181094e+14	3.738983e+14	1.883812e+14	8.835343e+03	6.308910e+03	3.110454e+03	0	6.983970e-04
9.500000e+08	9.594129e+12	0.000000e+00	5.664737e-01	2.160993e+14	3.743039e+14	1.875270e+14	8.823499e+03	6.310053e+03	3.111017e+03	0	6.946001e-04
9.600000e+08	9.438591e+12	0.000000e+00	5.664737e-01	2.141219e+14	3.746686e+14	1.866786e+14	8.811764e+03	6.311079e+03	3.111524e+03	0	6.908261e-04
9.700000e+08	9.285654e+12	0.000000e+00	5.664737e-01	2.121765e+14	3.749933e+14	1.858359e+14	8.800136e+03	6.311992e+03	3.111974e+03	0	6.870745e-04
9.800000e+08	9.135266e+12	0.000000e+00	5.664737e-01	2.102626e+14	3.752788e+14	1.849990e+14	8.788614e+03	6.312795e+03	3.112369e+03	0	6.833451e-04
9.900000e+08	8.987375e+12	0.000000e+00	5.664737e-01	2.083794e+14	3.755262e+14	1.841678e+14	8.777195e+03	6.313490e+03	3.112712e+03	0	6.796374e-04
1.000000e+09	8.841931e+12	0.000000e+00	5.664737e-01	2.065263e+14	3.757363e+14	1.833423e+14	8.765878e+03	6.314080e+03	3.113003e+03	0	6.759513e-04
1.010000e+09	8.698885e+12	0.000000e+00	5.664737e-01	2.047028e+14	3.759098e+14	1.825223e+14	8.754662e+03	6.314567e+03	3.113243e+03	0	6.722862e-04
1.020000e+09	8.558186e+12	0.000000e+00	5.664737e-01	2.029082e+14	3.760479e+14	1.817079e+14	8.743544e+03	6.314955e+03	3.113434e+03	0	6.686419e-04
1.030000e+09	8.419789e+12	0.000000e+00	5.664737e-01	2.011420e+14	3.761512e+14	1.808990e+14	8.732523e+03	6.315245e+03	3.113577e+03	0	6.650180e-04
1.040000e+09	8.283646e+12	0.000000e+00	5.664737e-01	1.994036e+14	3.762208e+14	1.800955e+14	8.721599e+03	6.315439e+03	3.113673e+03	0	6.614142e-04
1.050000e+09	8.149711e+12	0.000000e+00	5.664737e-01	1.976924e+14	3.762572e+14	1.792975e+14	8.710768e+03	6.315542e+03	3.113724e+03	0	6.578301e-04
1.060000e+09	8.017940e+12	0.000000e+00	5.664737e-01	1.960079e+14	3.762614e+14	1.785049e+14	8.700030e+03	6.315554e+03	3.113729e+03	0	6.542654e-04
1.070000e+09	7.888289e+12	0.000000e+00	5.664737e-01	1.943495e+14	3.762343e+14	1.777176e+14	8.689383e+03	6.315477e+03	3.113692e+03	0	6.507197e-04
1.080000e+09	7.760714e+12	0.000000e+00	5.664737e-01	1.927168e+14	3.761766e+14	1.769356e+14	8.678827e+03	6.315315e+03	3.113612e+03	0	6.471926e-04
1.090000e+09	7.635175e+12	0.000000e+00	5.664737e-01	1.911092e+14	3.760890e+14	1.761589e+14	8.668358e+03	6.315070e+03	3.113491e+03	0	6.436839e-04
1.100000e+09	7.511630e+12	0.000000e+00	5.664737e-01	1.895263e+14	3.759725e+14	1.753874e+14	8.657977e+03	6.314743e+03	3.113330e+03	0	6.401932e-04
1.110000e+09	7.390039e+12	0.000000e+00	5.664737e-01	1.879674e+14	3.758276e+14	1.746210e+14	8.647682e+03	6.314336e+03	3.113129e+03	0	6.367201e-04
1.120000e+09	7.270362e+12	0.000000e+00	5.664737e-01	1.864322e+14	3.756553e+14	1.738598e+14	8.637471e+03	6.313853e+03	3.112891e+03	0	6.332643e-04
1.130000e+09	7.152561e+12	0.000000e+00	5.664737e-01	1.849201e+14	3.754562e+14	1.731037e+14	8.627343e+03	6.313293e+03	3.112615e+03	0	6.298254e-04
1.140000e+09	7.036599e+12	0.000000e+00	5.664737e-01	1.834308e+14	3.752311e+14	1.723527e+14	8.617297e+03	6.312661e+03	3.112303e+03	0	6.264031e-04
1.150000e+09	6.922437e+12	0.000000e+00	5.664737e-01	1.819637e+14	3.749807e+14	1.716066e+14	8.607332e+03	6.311957e+03	3.111956e+03	0	6.229971e-04
1.160000e+09	6.810041e+12	0.000000e+00	5.664737e-01	1.805185e+14	3.747056e+14	1.708656e+14	8.597447e+03	6.311183e+03	3.111575e+03	0	6.196069e-04
1.170000e+09	6.699375e+12	0.000000e+00	5.664737e-01	1.790946e+14	3.744065e+14	1.701294e+14	8.587639e+03	6.310342e+03	3.111160e+03	0	6.162323e-04
1.180000e+09	6.590404e+12	0.000000e+00	5.664737e-01	1.776917e+14	3.740843e+14	1.693982e+14	8.577909e+03	6.309434e+03	3.110712e+03	0	6.128728e-04
1.190000e+09	6.483095e+12	0.000000e+00	5.664737e-01	1.763093e+14	3.737394e+14	1.686718e+14	8.568255e+03	6.308462e+03	3.110233e+03	0	6.095282e-04
1.200000e+09	6.377415e+12	0.000000e+00	5.664737e-01	1.749471e+14	3.733726e+14	1.679503e+14	8.558676e+03	6.307428e+03	3.109723e+03	0	6.061981e-04
1.210000e+09	6.273331e+12	0.000000e+00	5.664737e-01	1.736047e+14	3.729845e+14	1.672335e+14	8.549171e+03	6.306333e+03	3.109183e+03	0	6.028821e-04
1.220000e+09	6.170811e+12	0.000000e+00	5.664737e-01	1.722816e+14	3.725757e+14	1.665215e+14	8.539738e+03	6.305178e+03	3.108614e+03	0	5.995799e-04
1.230000e+09	6.069825e+12	0.000000e+00	5.664737e-01	1.709775e+14	3.721467e+14	1.658142e+14	8.530377e+03	6.303966e+03	3.108017e+03	0	5.962912e-04
1.240000e+09	5.970343e+12	0.000000e+00	5.664737e-01	1.696920e+14	3.716984e+14	1.651116e+14	8.521087e+03	6.302698e+03	3.107391e+03	0	5.930156e-04
1.250000e+09	5.872335e+12	0.000000e+00	5.664737e-01	1.684248e+14	3.712312e+14	1.644136e+14	8.511867e+03	6.301375e+03	3.106739e+03	0	5.897527e-04
1.260000e+09	5.775772e+12	0.000000e+00	5.664737e-01	1.671754e+14	3.707456e+14	1.637202e+14	8.502715e+03	6.299999e+03	3.106061e+03	0	5.865022e-04
1.270000e+09	5.680625e+12	0.000000e+00	5.664737e-01	1.659437e+14	3.702423e+14	1.630313e+14	8.493631e+03	6.298571e+03	3.105357e+03	0	5.832638e-04
1.280000e+09	5.586867e+12	0.000000e+00	5.664737e-01	1.647291e+14	3.697219e+14	1.623471e+14	8.484614e+03	6.297093e+03	3.104628e+03	0	5.800371e-04
1.290000e+09	5.494472e+12	0.000000e+00	5.664737e-01	1.635315e+14	3.691848e+14	1.616673e+14	8.475662e+03	6.295566e+03	3.103875e+03	0	5.768218e-04
1.300000e+09	5.403411e+12	0.000000e+00	5.664737e-01	1.623504e+14	3.686316e+14	1.609919e+14	8.466776e+03	6.293992e+03	3.103099e+03	0	5.736174e-04
1.310000e+09	5.313661e+12	0.000000e+00	5.664737e-01	1.611855e+14	3.680627e+14	1.603210e+14	8.457953e+03	6.292371e+03	3.102300e+03	0	5.704238e-04
1.320000e+09	5.225195e+12	0.000000e+00	5.664737e-01	1.600366e+14	3.674788e+14	1.596545e+14	8.449194e+03	6.290705e+03	3.101479e+03	0	5.672404e-04
1.330000e+09	5.137988e+12	0.000000e+00	5.664737e-01	1.589033e+14	3.668802e+14	1.589924e+14	8.440497e+03	6.288996e+03	3.100636e+03	0	5.640670e-04
1.340000e+09	5.052017e+12	0.000000e+00	5.664737e-01	1.577853e+14	3.662676e+14	1.583345e+14	8.431861e+03	6.287244e+03	3.099772e+03	0	5.609032e-04
1.350000e+09	4.967257e+12	0.000000e+00	5.664737e-01	1.566824e+14	3.656413e+14	1.576810e+14	8.423286e+03	6.285451e+03	3.098888e+03	0	5.577487e-04
1.360000e+09	4.883686e+12	0.000000e+00	5.664737e-01	1.555943e+14	3.650019e+14	1.570317e+14	8.414771e+03	6.283618e+03	3.097984e+03	0	5.546030e-04
