#t		Qconv[W]	Ri[Rp]		R*[Rp]		Qc[W]		Qm[W]		Qr[W]		Tcmb[K]		Tl[K]		Tup[K]		RiFlag		Bs[T]
0.000000e+00	3.333959e+11	0.000000e+00	4.673367e-01	1.318550e+13	1.258015e+15	1.027778e+14	4.339527e+03	3.070429e+03	2.045440e+03	0	2.723531e-04
1.000000e+07	3.326512e+11	0.000000e+00	4.673367e-01	1.315661e+13	1.075956e+15	1.022083e+14	4.334176e+03	2.972655e+03	1.980305e+03	0	2.721502e-04
2.000000e+07	3.289705e+11	0.000000e+00	4.673367e-01	1.301651e+13	9.349810e+14	1.016431e+14	4.328835e+03	2.889777e+03	1.925094e+03	0	2.711427e-04
3.000000e+07	3.236992e+11	0.000000e+00	4.673367e-01	1.281616e+13	8.234484e+14	1.010821e+14	4.323551e+03	2.818542e+03	1.877639e+03	0	2.696867e-04
4.000000e+07	3.176164e+11	0.000000e+00	4.673367e-01	1.258509e+13	7.335610e+14	1.005253e+14	4.318348e+03	2.756588e+03	1.836367e+03	0	2.679867e-04
5.000000e+07	3.111797e+11	0.000000e+00	4.673367e-01	1.234063e+13	6.599470e+14	9.997268e+13	4.313238e+03	2.702159e+03	1.800108e+03	0	2.661641e-04
6.000000e+07	3.046595e+11	0.000000e+00	4.673367e-01	1.209301e+13	5.988111e+14	9.942415e+13	4.308226e+03	2.653923e+03	1.767974e+03	0	2.642919e-04
7.000000e+07	2.982150e+11	0.000000e+00	4.673367e-01	1.184828e+13	5.474106e+14	9.887972e+13	4.303315e+03	2.610849e+03	1.739280e+03	0	2.624151e-04
8.000000e+07	2.919384e+11	0.000000e+00	4.673367e-01	1.160991e+13	5.037233e+14	9.833933e+13	4.298503e+03	2.572130e+03	1.713486e+03	0	2.605610e-04
9.000000e+07	2.858801e+11	0.000000e+00	4.673367e-01	1.137983e+13	4.662317e+14	9.780296e+13	4.293787e+03	2.537119e+03	1.690162e+03	0	2.587460e-04
1.000000e+08	2.800655e+11	0.000000e+00	4.673367e-01	1.115900e+13	4.337780e+14	9.727058e+13	4.289164e+03	2.505295e+03	1.668962e+03	0	2.569797e-04
1.100000e+08	2.745041e+11	0.000000e+00	4.673367e-01	1.094776e+13	4.054665e+14	9.674214e+13	4.284631e+03	2.476233e+03	1.649602e+03	0	2.552674e-04
1.200000e+08	2.691957e+11	0.000000e+00	4.673367e-01	1.074612e+13	3.805946e+14	9.621762e+13	4.280183e+03	2.449582e+03	1.631848e+03	0	2.536112e-04
1.300000e+08	2.641343e+11	0.000000e+00	4.673367e-01	1.055384e+13	3.586051e+14	9.569698e+13	4.275816e+03	2.425048e+03	1.615503e+03	0	2.520116e-04
1.400000e+08	2.593104e+11	0.000000e+00	4.673367e-01	1.037057e+13	3.390509e+14	9.518020e+13	4.271528e+03	2.402384e+03	1.600405e+03	0	2.504680e-04
1.500000e+08	2.547128e+11	0.000000e+00	4.673367e-01	1.019589e+13	3.215698e+14	9.466724e+13	4.267314e+03	2.381382e+03	1.586415e+03	0	2.489789e-04
1.600000e+08	2.503295e+11	0.000000e+00	4.673367e-01	1.002932e+13	3.058657e+14	9.415807e+13	4.263170e+03	2.361864e+03	1.573412e+03	0	2.475424e-04
1.700000e+08	2.461481e+11	0.000000e+00	4.673367e-01	9.870415e+12	2.916946e+14	9.365265e+13	4.259095e+03	2.343677e+03	1.561297e+03	0	2.461564e-04
1.800000e+08	2.421565e+11	0.000000e+00	4.673367e-01	9.718707e+12	2.788538e+14	9.315096e+13	4.255083e+03	2.326688e+03	1.549979e+03	0	2.448186e-04
1.900000e+08	2.383430e+11	0.000000e+00	4.673367e-01	9.573752e+12	2.671735e+14	9.265297e+13	4.251133e+03	2.310782e+03	1.539383e+03	0	2.435266e-04
2.000000e+08	2.346965e+11	0.000000e+00	4.673367e-01	9.435130e+12	2.565108e+14	9.215864e+13	4.247242e+03	2.295859e+03	1.529441e+03	0	2.422783e-04
2.100000e+08	2.312064e+11	0.000000e+00	4.673367e-01	9.302442e+12	2.467447e+14	9.166794e+13	4.243407e+03	2.281830e+03	1.520096e+03	0	2.410713e-04
2.200000e+08	2.278629e+11	0.000000e+00	4.673367e-01	9.175313e+12	2.377719e+14	9.118085e+13	4.239625e+03	2.268618e+03	1.511294e+03	0	2.399037e-04
2.300000e+08	2.246569e+11	0.000000e+00	4.673367e-01	9.053395e+12	2.295039e+14	9.069734e+13	4.235896e+03	2.256152e+03	1.502990e+03	0	2.387732e-04
2.400000e+08	2.215796e+11	0.000000e+00	4.673367e-01	8.936362e+12	2.218645e+14	9.021736e+13	4.232215e+03	2.244373e+03	1.495143e+03	0	2.376780e-04
2.500000e+08	2.186232e+11	0.000000e+00	4.673367e-01	8.823913e+12	2.147877e+14	8.974091e+13	4.228583e+03	2.233225e+03	1.487716e+03	0	2.366161e-04
2.600000e+08	2.157802e+11	0.000000e+00	4.673367e-01	8.715766e+12	2.082162e+14	8.926794e+13	4.224995e+03	2.222659e+03	1.480677e+03	0	2.355860e-04
2.700000e+08	2.130438e+11	0.000000e+00	4.673367e-01	8.611662e+12	2.021000e+14	8.879843e+13	4.221452e+03	2.212631e+03	1.473997e+03	0	2.345859e-04
2.800000e+08	2.104076e+11	0.000000e+00	4.673367e-01	8.511358e+12	1.963951e+14	8.833235e+13	4.217951e+03	2.203101e+03	1.467648e+03	0	2.336143e-04
2.900000e+08	2.078657e+11	0.000000e+00	4.673367e-01	8.414633e+12	1.910630e+14	8.786967e+13	4.214490e+03	2.194034e+03	1.461608e+03	0	2.326697e-04
3.000000e+08	2.054126e+11	0.000000e+00	4.673367e-01	8.321277e+12	1.860697e+14	8.741036e+13	4.211069e+03	2.185396e+03	1.455854e+03	0	2.317509e-04
3.100000e+08	2.030433e+11	0.000000e+00	4.673367e-01	8.231099e+12	1.813850e+14	8.695440e+13	4.207686e+03	2.177159e+03	1.450367e+03	0	2.308564e-04
3.200000e+08	2.007531e+11	0.000000e+00	4.673367e-01	8.143919e+12	1.769819e+14	8.650175e+13	4.204339e+03	2.169295e+03	1.445128e+03	0	2.299851e-04
3.300000e+08	1.985375e+11	0.000000e+00	4.673367e-01	8.059571e+12	1.728368e+14	8.605240e+13	4.201028e+03	2.161780e+03	1.440122e+03	0	2.291359e-04
3.400000e+08	1.963924e+11	0.000000e+00	4.673367e-01	7.977902e+12	1.689282e+14	8.560631e+13	4.197750e+03	2.154591e+03	1.435333e+03	0	2.283077e-04
3.500000e+08	1.943142e+11	0.000000e+00	4.673367e-01	7.898766e+12	1.652369e+14	8.516346e+13	4.194506e+03	2.147708e+03	1.430747e+03	0	2.274995e-04
3.600000e+08	1.922993e+11	0.000000e+00	4.673367e-01	7.822031e+12	1.617458e+14	8.472382e+13	4.191294e+03	2.141112e+03	1.426353e+03	0	2.267104e-04
3.700000e+08	1.903443e+11	0.000000e+00	4.673367e-01	7.747572e+12	1.584394e+14	8.428736e+13	4.188114e+03	2.134784e+03	1.422138e+03	0	2.259395e-04
3.800000e+08	1.884462e+11	0.000000e+00	4.673367e-01	7.675272e+12	1.553037e+14	8.385406e+13	4.184963e+03	2.128710e+03	1.418091e+03	0	2.251860e-04
3.900000e+08	1.866021e+11	0.000000e+00	4.673367e-01	7.605022e+12	1.523260e+14	8.342389e+13	4.181842e+03	2.122874e+03	1.414203e+03	0	2.244491e-04
4.000000e+08	1.848094e+11	0.000000e+00	4.673367e-01	7.536722e+12	1.494950e+14	8.299683e+13	4.178749e+03	2.117263e+03	1.410465e+03	0	2.237280e-04
4.100000e+08	1.830656e+11	0.000000e+00	4.673367e-01	7.470276e+12	1.468000e+14	8.257285e+13	4.175684e+03	2.111864e+03	1.406868e+03	0	2.230221e-04
4.200000e+08	1.813683e+11	0.000000e+00	4.673367e-01	7.405595e+12	1.442317e+14	8.215192e+13	4.172646e+03	2.106664e+03	1.403405e+03	0	2.223307e-04
4.300000e+08	1.797153e+11	0.000000e+00	4.673367e-01	7.342596e+12	1.417814e+14	8.173403e+13	4.169634e+03	2.101654e+03	1.400067e+03	0	2.216532e-04
4.400000e+08	1.781045e+11	0.000000e+00	4.673367e-01	7.281201e+12	1.394411e+14	8.131914e+13	4.166648e+03	2.096822e+03	1.396848e+03	0	2.209890e-04
4.500000e+08	1.765341e+11	0.000000e+00	4.673367e-01	7.221337e+12	1.372037e+14	8.090723e+13	4.163686e+03	2.092160e+03	1.393743e+03	0	2.203376e-04
4.600000e+08	1.750022e+11	0.000000e+00	4.673367e-01	7.162934e+12	1.350624e+14	8.049828e+13	4.160749e+03	2.087659e+03	1.390744e+03	0	2.196984e-04
4.700000e+08	1.735071e+11	0.000000e+00	4.673367e-01	7.105929e+12	1.330111e+14	8.009227e+13	4.157836e+03	2.083309e+03	1.387846e+03	0	2.190709e-04
4.800000e+08	1.720472e+11	0.000000e+00	4.673367e-01	7.050259e+12	1.310443e+14	7.968916e+13	4.154946e+03	2.079104e+03	1.385045e+03	0	2.184548e-04
4.900000e+08	1.706210e+11	0.000000e+00	4.673367e-01	6.995869e+12	1.291568e+14	7.928894e+13	4.152078e+03	2.075037e+03	1.382335e+03	0	2.178494e-04
5.000000e+08	1.692270e+11	0.000000e+00	4.673367e-01	6.942703e+12	1.273437e+14	7.889158e+13	4.149233e+03	2.071100e+03	1.379713e+03	0	2.172545e-04
5.100000e+08	1.678639e+11	0.000000e+00	4.673367e-01	6.890711e+12	1.256007e+14	7.849706e+13	4.146409e+03	2.067286e+03	1.377172e+03	0	2.166697e-04
5.200000e+08	1.665305e+11	0.000000e+00	4.673367e-01	6.839844e+12	1.239236e+14	7.810535e+13	4.143606e+03	2.063591e+03	1.374711e+03	0	2.160945e-04
5.300000e+08	1.652256e+11	0.000000e+00	4.673367e-01	6.790058e+12	1.223088e+14	7.771644e+13	4.140824e+03	2.060009e+03	1.372324e+03	0	2.155285e-04
5.400000e+08	1.639480e+11	0.000000e+00	4.673367e-01	6.741310e+12	1.207526e+14	7.733030e+13	4.138062e+03	2.056534e+03	1.370009e+03	0	2.149715e-04
5.500000e+08	1.626966e+11	0.000000e+00	4.673367e-01	6.693558e+12	1.192518e+14	7.694691e+13	4.135320e+03	2.053160e+03	1.367762e+03	0	2.144232e-04
5.600000e+08	1.614704e+11	0.000000e+00	4.673367e-01	6.646764e+12	1.178035e+14	7.656624e+13	4.132597e+03	2.049885e+03	1.365580e+03	0	2.138832e-04
5.700000e+08	1.602685e+11	0.000000e+00	4.673367e-01	6.600892e+12	1.164047e+14	7.618827e+13	4.129894e+03	2.046702e+03	1.363460e+03	0	2.133512e-04
5.800000e+08	1.590900e+11	0.000000e+00	4.673367e-01	6.555907e+12	1.150528e+14	7.581299e+13	4.127208e+03	2.043609e+03	1.361399e+03	0	2.128270e-04
5.900000e+08	1.579340e+11	0.000000e+00	4.673367e-01	6.511778e+12	1.137454e+14	7.544037e+13	4.124542e+03	2.040601e+03	1.359395e+03	0	2.123102e-04
6.000000e+08	1.567997e+11	0.000000e+00	4.673367e-01	6.468471e+12	1.124802e+14	7.507038e+13	4.121893e+03	2.037673e+03	1.357445e+03	0	2.118007e-04
6.100000e+08	1.556862e+11	0.000000e+00	4.673367e-01	6.425959e+12	1.112551e+14	7.470302e+13	4.119261e+03	2.034824e+03	1.355547e+03	0	2.112982e-04
6.200000e+08	1.545930e+11	0.000000e+00	4.673367e-01	6.384213e+12	1.100680e+14	7.433824e+13	4.116647e+03	2.032049e+03	1.353698e+03	0	2.108024e-04
6.300000e+08	1.535192e+11	0.000000e+00	4.673367e-01	6.343206e+12	1.089171e+14	7.397605e+13	4.114050e+03	2.029346e+03	1.351897e+03	0	2.103132e-04
6.400000e+08	1.524642e+11	0.000000e+00	4.673367e-01	6.302913e+12	1.078005e+14	7.361640e+13	4.111470e+03	2.026710e+03	1.350142e+03	0	2.098303e-04
6.500000e+08	1.514273e+11	0.000000e+00	4.673367e-01	6.263311e+12	1.067168e+14	7.325929e+13	4.108905e+03	2.024141e+03	1.348430e+03	0	2.093536e-04
6.600000e+08	1.504080e+11	0.000000e+00	4.673367e-01	6.224375e+12	1.056642e+14	7.290470e+13	4.106357e+03	2.021634e+03	1.346760e+03	0	2.088828e-04
6.700000e+08	1.494057e+11	0.000000e+00	4.673367e-01	6.186084e+12	1.046415e+14	7.255259e+13	4.103825e+03	2.019187e+03	1.345130e+03	0	2.084178e-04
6.800000e+08	1.484198e+11	0.000000e+00	4.673367e-01	6.148417e+12	1.036471e+14	7.220296e+13	4.101309e+03	2.016798e+03	1.343538e+03	0	2.079583e-04
6.900000e+08	1.474498e+11	0.000000e+00	4.673367e-01	6.111355e+12	1.026797e+14	7.185579e+13	4.098807e+03	2.014465e+03	1.341984e+03	0	2.075043e-04
7.000000e+08	1.464952e+11	0.000000e+00	4.673367e-01	6.074878e+12	1.017383e+14	7.151104e+13	4.096321e+03	2.012185e+03	1.340465e+03	0	2.070555e-04
7.100000e+08	1.455556e+11	0.000000e+00	4.673367e-01	6.038968e+12	1.008216e+14	7.116871e+13	4.093849e+03	2.009956e+03	1.338981e+03	0	2.066119e-04
7.200000e+08	1.446303e+11	0.000000e+00	4.673367e-01	6.003608e+12	9.992857e+13	7.082877e+13	4.091392e+03	2.007777e+03	1.337529e+03	0	2.061732e-04
7.300000e+08	1.437192e+11	0.000000e+00	4.673367e-01	5.968780e+12	9.905816e+13	7.049121e+13	4.088950e+03	2.005645e+03	1.336108e+03	0	2.057393e-04
7.400000e+08	1.428216e+11	0.000000e+00	4.673367e-01	5.934470e+12	9.820942e+13	7.015601e+13	4.086521e+03	2.003559e+03	1.334719e+03	0	2.053101e-04
7.500000e+08	1.419372e+11	0.000000e+00	4.673367e-01	5.900663e+12	9.738145e+13	6.982314e+13	4.084107e+03	2.001516e+03	1.333358e+03	0	2.048854e-04
7.600000e+08	1.410657e+11	0.000000e+00	4.673367e-01	5.867342e+12	9.657338e+13	6.949259e+13	4.081706e+03	1.999516e+03	1.332025e+03	0	2.044652e-04
7.700000e+08	1.402066e+11	0.000000e+00	4.673367e-01	5.834496e+12	9.578439e+13	6.916434e+13	4.079319e+03	1.997556e+03	1.330720e+03	0	2.040493e-04
7.800000e+08	1.393596e+11	0.000000e+00	4.673367e-01	5.802109e+12	9.501371e+13	6.883837e+13	4.076945e+03	1.995636e+03	1.329441e+03	0	2.036376e-04
7.900000e+08	1.385244e+11	0.000000e+00	4.673367e-01	5.770171e+12	9.426061e+13	6.851467e+13	4.074584e+03	1.993754e+03	1.328187e+03	0	2.032300e-04
8.000000e+08	1.377007e+11	0.000000e+00	4.673367e-01	5.738667e+12	9.352440e+13	6.819321e+13	4.072237e+03	1.991907e+03	1.326957e+03	0	2.028263e-04
8.100000e+08	1.368881e+11	0.000000e+00	4.673367e-01	5.707587e+12	9.280442e+13	6.787398e+13	4.069902e+03	1.990096e+03	1.325750e+03	0	2.024266e-04
8.200000e+08	1.360863e+11	0.000000e+00	4.673367e-01	5.676919e+12	9.210004e+13	6.755696e+13	4.067580e+03	1.988319e+03	1.324566e+03	0	2.020306e-04
8.300000e+08	1.352951e+11	0.000000e+00	4.673367e-01	5.646653e+12	9.141067e+13	6.724213e+13	4.065270e+03	1.986575e+03	1.323404e+03	0	2.016383e-04
8.400000e+08	1.345141e+11	0.000000e+00	4.673367e-01	5.616777e+12	9.073575e+13	6.692947e+13	4.062972e+03	1.984862e+03	1.322263e+03	0	2.012496e-04
8.500000e+08	1.337432e+11	0.000000e+00	4.673367e-01	5.587282e+12	9.007474e+13	6.661897e+13	4.060687e+03	1.983180e+03	1.321143e+03	0	2.008643e-04
8.600000e+08	1.329820e+11	0.000000e+00	4.673367e-01	5.558159e+12	8.942712e+13	6.631062e+13	4.058413e+03	1.981527e+03	1.320042e+03	0	2.004826e-04
8.700000e+08	1.322303e+11	0.000000e+00	4.673367e-01	5.529397e+12	8.879242e+13	6.600438e+13	4.056152e+03	1.979903e+03	1.318959e+03	0	2.001041e-04
8.800000e+08	1.314880e+11	0.000000e+00	4.673367e-01	5.500989e+12	8.817017e+13	6.570025e+13	4.053902e+03	1.978306e+03	1.317896e+03	0	1.997289e-04
8.900000e+08	1.307547e+11	0.000000e+00	4.673367e-01	5.472925e+12	8.755993e+13	6.539821e+13	4.051663e+03	1.976735e+03	1.316849e+03	0	1.993569e-04
9.000000e+08	1.300302e+11	0.000000e+00	4.673367e-01	5.445197e+12	8.696128e+13	6.509825e+13	4.049436e+03	1.975191e+03	1.315820e+03	0	1.989881e-04
9.100000e+08	1.293143e+11	0.000000e+00	4.673367e-01	5.417797e+12	8.637382e+13	6.480034e+13	4.047221e+03	1.973671e+03	1.314808e+03	0	1.986222e-04
9.200000e+08	1.286069e+11	0.000000e+00	4.673367e-01	5.390719e+12	8.579716e+13	6.450447e+13	4.045016e+03	1.972175e+03	1.313812e+03	0	1.982594e-04
9.300000e+08	1.279077e+11	0.000000e+00	4.673367e-01	5.363953e+12	8.523095e+13	6.421062e+13	4.042823e+03	1.970703e+03	1.312831e+03	0	1.978994e-04
9.400000e+08	1.272165e+11	0.000000e+00	4.673367e-01	5.337493e+12	8.467483e+13	6.391878e+13	4.040640e+03	1.969253e+03	1.311865e+03	0	1.975423e-04
9.500000e+08	1.265332e+11	0.000000e+00	4.673367e-01	5.311332e+12	8.412848e+13	6.362894e+13	4.038468e+03	1.967825e+03	1.310914e+03	0	1.971880e-04
9.600000e+08	1.258576e+11	0.000000e+00	4.673367e-01	5.285464e+12	8.359156e+13	6.334107e+13	4.036307e+03	1.966418e+03	1.309977e+03	0	1.968364e-04
9.700000e+08	1.251895e+11	0.000000e+00	4.673367e-01	5.259882e+12	8.306379e+13	6.305516e+13	4.034156e+03	1.965032e+03	1.309053e+03	0	1.964875e-04
9.800000e+08	1.245288e+11	0.000000e+00	4.673367e-01	5.234580e+12	8.254487e+13	6.277119e+13	4.032015e+03	1.963666e+03	1.308143e+03	0	1.961412e-04
9.900000e+08	1.238753e+11	0.000000e+00	4.673367e-01	5.209551e+12	8.203451e+13	6.248916e+13	4.029885e+03	1.962318e+03	1.307245e+03	0	1.957975e-04
1.000000e+09	1.232288e+11	0.000000e+00	4.673367e-01	5.184791e+12	8.153246e+13	6.220904e+13	4.027765e+03	1.960990e+03	1.306360e+03	0	1.954563e-04
1.010000e+09	1.225891e+11	0.000000e+00	4.673367e-01	5.160293e+12	8.103846e+13	6.193082e+13	4.025655e+03	1.959680e+03	1.305487e+03	0	1.951175e-04
1.020000e+09	1.219563e+11	0.000000e+00	4.673367e-01	5.136052e+12	8.055226e+13	6.165449e+13	4.023556e+03	1.958387e+03	1.304626e+03	0	1.947812e-04
1.030000e+09	1.213300e+11	0.000000e+00	4.673367e-01	5.112063e+12	8.007363e+13	6.138002e+13	4.021465e+03	1.957111e+03	1.303776e+03	0	1.944472e-04
1.040000e+09	1.207103e+11	0.000000e+00	4.673367e-01	5.088321e+12	7.960235e+13	6.110742e+13	4.019385e+03	1.955852e+03	1.302938e+03	0	1.941156e-04
1.050000e+09	1.200969e+11	0.000000e+00	4.673367e-01	5.064821e+12	7.913820e+13	6.083665e+13	4.017314e+03	1.954609e+03	1.302109e+03	0	1.937862e-04
1.060000e+09	1.194897e+11	0.000000e+00	4.673367e-01	5.041557e+12	7.868097e+13	6.056770e+13	4.015253e+03	1.953382e+03	1.301292e+03	0	1.934591e-04
1.070000e+09	1.188886e+11	0.000000e+00	4.673367e-01	5.018526e+12	7.823047e+13	6.030057e+13	4.013202e+03	1.952169e+03	1.300484e+03	0	1.931342e-04
1.080000e+09	1.182935e+11	0.000000e+00	4.673367e-01	4.995723e+12	7.778650e+13	6.003524e+13	4.011159e+03	1.950972e+03	1.299687e+03	0	1.928114e-04
1.090000e+09	1.177043e+11	0.000000e+00	4.673367e-01	4.973144e+12	7.734888e+13	5.977169e+13	4.009126e+03	1.949789e+03	1.298898e+03	0	1.924907e-04
1.100000e+09	1.171209e+11	0.000000e+00	4.673367e-01	4.950784e+12	7.691744e+13	5.950991e+13	4.007102e+03	1.948620e+03	1.298119e+03	0	1.921721e-04
1.110000e+09	1.165431e+11	0.000000e+00	4.673367e-01	4.928639e+12	7.649201e+13	5.924989e+13	4.005087e+03	1.947464e+03	1.297350e+03	0	1.918556e-04
1.120000e+09	1.159708e+11	0.000000e+00	4.673367e-01	4.906706e+12	7.607242e+13	5.899161e+13	4.003082e+03	1.946321e+03	1.296589e+03	0	1.915411e-04
1.130000e+09	1.154040e+11	0.000000e+00	4.673367e-01	4.884981e+12	7.565852e+13	5.873505e+13	4.001085e+03	1.945192e+03	1.295836e+03	0	1.912285e-04
1.140000e+09	1.148426e+11	0.000000e+00	4.673367e-01	4.863459e+12	7.525016e+13	5.848021e+13	3.999097e+03	1.944075e+03	1.295092e+03	0	1.909179e-04
1.150000e+09	1.142864e+11	0.000000e+00	4.673367e-01	4.842138e+12	7.484719e+13	5.822708e+13	3.997117e+03	1.942970e+03	1.294356e+03	0	1.906092e-04
1.160000e+09	1.137353e+11	0.000000e+00	4.673367e-01	4.821013e+12	7.444948e+13	5.797563e+13	3.995147e+03	1.941877e+03	1.293627e+03	0	1.903023e-04
1.170000e+09	1.131894e+11	0.000000e+00	4.673367e-01	4.800082e+12	7.405688e+13	5.772586e+13	3.993185e+03	1.940795e+03	1.292907e+03	0	1.899974e-04
1.180000e+09	1.126484e+11	0.000000e+00	4.673367e-01	4.779340e+12	7.366928e+13	5.747774e+13	3.991231e+03	1.939725e+03	1.292194e+03	0	1.896942e-04
1.190000e+09	1.121124e+11	0.000000e+00	4.673367e-01	4.758786e+12	7.328655e+13	5.723128e+13	3.989286e+03	1.938665e+03	1.291488e+03	0	1.893928e-04
1.200000e+09	1.115811e+11	0.000000e+00	4.673367e-01	4.738415e+12	7.290857e+13	5.698646e+13	3.987349e+03	1.937616e+03	1.290789e+03	0	1.890932e-04
1.210000e+09	1.110546e+11	0.000000e+00	4.673367e-01	4.718224e+12	7.253521e+13	5.674325e+13	3.985421e+03	1.936578e+03	1.290098e+03	0	1.887953e-04
1.220000e+09	1.105328e+11	0.000000e+00	4.673367e-01	4.698211e+12	7.216638e+13	5.650166e+13	3.983501e+03	1.935550e+03	1.289413e+03	0	1.884991e-04
1.230000e+09	1.100155e+11	0.000000e+00	4.673367e-01	4.678373e+12	7.180196e+13	5.626167e+13	3.981588e+03	1.934531e+03	1.288734e+03	0	1.882046e-04
1.240000e+09	1.095028e+11	0.000000e+00	4.673367e-01	4.658707e+12	7.144185e+13	5.602326e+13	3.979684e+03	1.933522e+03	1.288062e+03	0	1.879118e-04
1.250000e+09	1.089945e+11	0.000000e+00	4.673367e-01	4.639210e+12	7.108595e+13	5.578643e+13	3.977788e+03	1.932523e+03	1.287396e+03	0	1.876206e-04
1.260000e+09	1.084905e+11	0.000000e+00	4.673367e-01	4.619879e+12	7.073416e+13	5.555116e+13	3.975900e+03	1.931533e+03	1.286737e+03	0	1.873310e-04
1.270000e+09	1.079909e+11	0.000000e+00	4.673367e-01	4.600713e+12	7.038639e+13	5.531744e+13	3.974020e+03	1.930552e+03	1.286083e+03	0	1.870430e-04
1.280000e+09	1.074955e+11	0.000000e+00	4.673367e-01	4.581707e+12	7.004255e+13	5.508526e+13	3.972147e+03	1.929579e+03	1.285435e+03	0	1.867565e-04
1.290000e+09	1.070043e+11	0.000000e+00	4.673367e-01	4.562861e+12	6.970255e+13	5.485460e+13	3.970282e+03	1.928615e+03	1.284793e+03	0	1.864716e-04
1.300000e+09	1.065171e+11	0.000000e+00	4.673367e-01	4.544171e+12	6.936631e+13	5.462545e+13	3.968425e+03	1.927660e+03	1.284157e+03	0	1.861882e-04
1.310000e+09	1.060340e+11	0.000000e+00	4.673367e-01	4.525635e+12	6.903374e+13	5.439781e+13	3.966576e+03	1.926712e+03	1.283526e+03	0	1.859063e-04
1.320000e+09	1.055549e+11	0.000000e+00	4.673367e-01	4.507251e+12	6.870477e+13	5.417166e+13	3.964734e+03	1.925773e+03	1.282900e+03	0	1.856259e-04
1.330000e+09	1.050798e+11	0.000000e+00	4.673367e-01	4.489017e+12	6.837932e+13	5.394699e+13	3.962899e+03	1.924841e+03	1.282279e+03	0	1.853469e-04
1.340000e+09	1.046084e+11	0.000000e+00	4.673367e-01	4.470930e+12	6.805732e+13	5.372378e+13	3.961072e+03	1.923917e+03	1.281664e+03	0	1.850694e-04
1.350000e+09	1.041409e+11	0.000000e+00	4.673367e-01	4.452989e+12	6.773870e+13	5.350204e+13	3.959252e+03	1.923001e+03	1.281053e+03	0	1.847933e-04
1.360000e+09	1.036772e+11	0.000000e+00	4.673367e-01	4.435190e+12	6.742338e+13	5.328174e+13	3.957440e+03	1.922091e+03	1.280447e+03	0	1.845186e-04
