#t		Qconv[W]	Ri[Rp]		R*[Rp]		Qc[W]		Qm[W]		Qr[W]		Tcmb[K]		Tl[K]		Tup[K]		RiFlag		Bs[T]
0.000000e+00	6.595529e+11	0.000000e+00	4.623115e-01	2.242195e+13	1.599258e+15	1.323632e+14	4.963367e+03	3.362096e+03	2.103218e+03	0	3.384857e-04
1.000000e+07	6.512750e+11	0.000000e+00	4.623115e-01	2.215216e+13	1.380816e+15	1.316298e+14	4.956309e+03	3.262614e+03	2.040986e+03	0	3.370637e-04
2.000000e+07	6.397582e+11	0.000000e+00	4.623115e-01	2.177742e+13	1.209314e+15	1.309019e+14	4.949334e+03	3.177520e+03	1.987754e+03	0	3.350650e-04
3.000000e+07	6.266538e+11	0.000000e+00	4.623115e-01	2.135124e+13	1.072022e+15	1.301794e+14	4.942477e+03	3.103815e+03	1.941646e+03	0	3.327615e-04
4.000000e+07	6.129136e+11	0.000000e+00	4.623115e-01	2.090449e+13	9.602478e+14	1.294624e+14	4.935753e+03	3.039287e+03	1.901280e+03	0	3.303114e-04
5.000000e+07	5.990888e+11	0.000000e+00	4.623115e-01	2.045503e+13	8.679033e+14	1.287506e+14	4.929169e+03	2.982269e+03	1.865611e+03	0	3.278090e-04
6.000000e+07	5.854964e+11	0.000000e+00	4.623115e-01	2.001312e+13	7.906218e+14	1.280442e+14	4.922726e+03	2.931481e+03	1.833840e+03	0	3.253109e-04
7.000000e+07	5.723136e+11	0.000000e+00	4.623115e-01	1.958452e+13	7.252072e+14	1.273431e+14	4.916421e+03	2.885926e+03	1.805342e+03	0	3.228508e-04
8.000000e+07	5.596338e+11	0.000000e+00	4.623115e-01	1.917225e+13	6.692756e+14	1.266471e+14	4.910251e+03	2.844809e+03	1.779621e+03	0	3.204487e-04
9.000000e+07	5.474993e+11	0.000000e+00	4.623115e-01	1.877768e+13	6.210197e+14	1.259564e+14	4.904210e+03	2.807496e+03	1.756278e+03	0	3.181156e-04
1.000000e+08	5.359214e+11	0.000000e+00	4.623115e-01	1.840119e+13	5.790481e+14	1.252707e+14	4.898293e+03	2.773466e+03	1.734991e+03	0	3.158573e-04
1.100000e+08	5.248933e+11	0.000000e+00	4.623115e-01	1.804253e+13	5.422752e+14	1.245902e+14	4.892494e+03	2.742296e+03	1.715492e+03	0	3.136757e-04
1.200000e+08	5.143969e+11	0.000000e+00	4.623115e-01	1.770113e+13	5.098436e+14	1.239147e+14	4.886808e+03	2.713630e+03	1.697559e+03	0	3.115707e-04
1.300000e+08	5.044084e+11	0.000000e+00	4.623115e-01	1.737621e+13	4.810682e+14	1.232442e+14	4.881229e+03	2.687174e+03	1.681009e+03	0	3.095408e-04
1.400000e+08	4.949013e+11	0.000000e+00	4.623115e-01	1.706692e+13	4.553963e+14	1.225786e+14	4.875752e+03	2.662675e+03	1.665683e+03	0	3.075837e-04
1.500000e+08	4.858475e+11	0.000000e+00	4.623115e-01	1.677234e+13	4.323775e+14	1.219180e+14	4.870372e+03	2.639921e+03	1.651449e+03	0	3.056965e-04
1.600000e+08	4.772195e+11	0.000000e+00	4.623115e-01	1.649159e+13	4.116417e+14	1.212622e+14	4.865085e+03	2.618730e+03	1.638193e+03	0	3.038761e-04
1.700000e+08	4.689904e+11	0.000000e+00	4.623115e-01	1.622378e+13	3.928825e+14	1.206113e+14	4.859886e+03	2.598943e+03	1.625815e+03	0	3.021193e-04
1.800000e+08	4.611346e+11	0.000000e+00	4.623115e-01	1.596808e+13	3.758440e+14	1.199652e+14	4.854771e+03	2.580425e+03	1.614231e+03	0	3.004229e-04
1.900000e+08	4.536280e+11	0.000000e+00	4.623115e-01	1.572372e+13	3.603115e+14	1.193239e+14	4.849737e+03	2.563056e+03	1.603365e+03	0	2.987838e-04
2.000000e+08	4.464478e+11	0.000000e+00	4.623115e-01	1.548996e+13	3.461033e+14	1.186873e+14	4.844779e+03	2.546732e+03	1.593153e+03	0	2.971990e-04
2.100000e+08	4.395729e+11	0.000000e+00	4.623115e-01	1.526611e+13	3.330649e+14	1.180553e+14	4.839895e+03	2.531360e+03	1.583537e+03	0	2.956656e-04
2.200000e+08	4.329838e+11	0.000000e+00	4.623115e-01	1.505153e+13	3.210641e+14	1.174280e+14	4.835081e+03	2.516860e+03	1.574466e+03	0	2.941808e-04
2.300000e+08	4.266622e+11	0.000000e+00	4.623115e-01	1.484564e+13	3.099874e+14	1.168053e+14	4.830335e+03	2.503159e+03	1.565895e+03	0	2.927421e-04
2.400000e+08	4.205913e+11	0.000000e+00	4.623115e-01	1.464789e+13	2.997366e+14	1.161872e+14	4.825654e+03	2.490193e+03	1.557784e+03	0	2.913470e-04
2.500000e+08	4.147555e+11	0.000000e+00	4.623115e-01	1.445777e+13	2.902268e+14	1.155736e+14	4.821034e+03	2.477904e+03	1.550097e+03	0	2.899932e-04
2.600000e+08	4.091404e+11	0.000000e+00	4.623115e-01	1.427482e+13	2.813835e+14	1.149645e+14	4.816475e+03	2.466241e+03	1.542801e+03	0	2.886786e-04
2.700000e+08	4.037327e+11	0.000000e+00	4.623115e-01	1.409860e+13	2.731420e+14	1.143598e+14	4.811973e+03	2.455157e+03	1.535867e+03	0	2.874011e-04
2.800000e+08	3.985200e+11	0.000000e+00	4.623115e-01	1.392871e+13	2.654452e+14	1.137595e+14	4.807526e+03	2.444611e+03	1.529269e+03	0	2.861589e-04
2.900000e+08	3.934908e+11	0.000000e+00	4.623115e-01	1.376479e+13	2.582428e+14	1.131637e+14	4.803133e+03	2.434563e+03	1.522984e+03	0	2.849500e-04
3.000000e+08	3.886348e+11	0.000000e+00	4.623115e-01	1.360648e+13	2.514904e+14	1.125722e+14	4.798792e+03	2.424980e+03	1.516989e+03	0	2.837730e-04
3.100000e+08	3.839419e+11	0.000000e+00	4.623115e-01	1.345347e+13	2.451484e+14	1.119849e+14	4.794500e+03	2.415831e+03	1.511266e+03	0	2.826261e-04
3.200000e+08	3.794032e+11	0.000000e+00	4.623115e-01	1.330548e+13	2.391819e+14	1.114020e+14	4.790256e+03	2.407086e+03	1.505795e+03	0	2.815081e-04
3.300000e+08	3.750102e+11	0.000000e+00	4.623115e-01	1.316221e+13	2.335595e+14	1.108233e+14	4.786059e+03	2.398720e+03	1.500561e+03	0	2.804173e-04
3.400000e+08	3.707550e+11	0.000000e+00	4.623115e-01	1.302342e+13	2.282529e+14	1.102488e+14	4.781908e+03	2.390708e+03	1.495550e+03	0	2.793527e-04
3.500000e+08	3.666304e+11	0.000000e+00	4.623115e-01	1.288887e+13	2.232372e+14	1.096785e+14	4.777799e+03	2.383029e+03	1.490746e+03	0	2.783129e-04
3.600000e+08	3.626295e+11	0.000000e+00	4.623115e-01	1.275834e+13	2.184896e+14	1.091123e+14	4.773733e+03	2.375661e+03	1.486137e+03	0	2.772968e-04
3.700000e+08	3.587461e+11	0.000000e+00	4.623115e-01	1.263162e+13	2.139895e+14	1.085502e+14	4.769709e+03	2.368588e+03	1.481712e+03	0	2.763034e-04
3.800000e+08	3.549741e+11	0.000000e+00	4.623115e-01	1.250853e+13	2.097187e+14	1.079921e+14	4.765724e+03	2.361791e+03	1.477460e+03	0	2.753316e-04
3.900000e+08	3.513082e+11	0.000000e+00	4.623115e-01	1.238888e+13	2.056602e+14	1.074381e+14	4.761778e+03	2.355254e+03	1.473371e+03	0	2.743805e-04
4.000000e+08	3.477431e+11	0.000000e+00	4.623115e-01	1.227251e+13	2.017990e+14	1.068882e+14	4.757869e+03	2.348963e+03	1.469435e+03	0	2.734492e-04
4.100000e+08	3.442740e+11	0.000000e+00	4.623115e-01	1.215926e+13	1.981210e+14	1.063421e+14	4.753997e+03	2.342904e+03	1.465645e+03	0	2.725368e-04
4.200000e+08	3.408964e+11	0.000000e+00	4.623115e-01	1.204898e+13	1.946138e+14	1.058000e+14	4.750161e+03	2.337065e+03	1.461992e+03	0	2.716426e-04
4.300000e+08	3.376060e+11	0.000000e+00	4.623115e-01	1.194153e+13	1.912658e+14	1.052618e+14	4.746359e+03	2.331433e+03	1.458469e+03	0	2.707658e-04
4.400000e+08	3.343989e+11	0.000000e+00	4.623115e-01	1.183679e+13	1.880664e+14	1.047275e+14	4.742592e+03	2.325997e+03	1.455069e+03	0	2.699057e-04
4.500000e+08	3.312714e+11	0.000000e+00	4.623115e-01	1.173464e+13	1.850060e+14	1.041970e+14	4.738857e+03	2.320748e+03	1.451785e+03	0	2.690616e-04
4.600000e+08	3.282199e+11	0.000000e+00	4.623115e-01	1.163495e+13	1.820757e+14	1.036704e+14	4.735155e+03	2.315675e+03	1.448612e+03	0	2.682329e-04
4.700000e+08	3.252411e+11	0.000000e+00	4.623115e-01	1.153764e+13	1.792674e+14	1.031475e+14	4.731483e+03	2.310771e+03	1.445543e+03	0	2.674190e-04
4.800000e+08	3.223320e+11	0.000000e+00	4.623115e-01	1.144258e+13	1.765735e+14	1.026283e+14	4.727843e+03	2.306025e+03	1.442575e+03	0	2.666193e-04
4.900000e+08	3.194895e+11	0.000000e+00	4.623115e-01	1.134969e+13	1.739871e+14	1.021129e+14	4.724232e+03	2.301431e+03	1.439701e+03	0	2.658333e-04
5.000000e+08	3.167111e+11	0.000000e+00	4.623115e-01	1.125889e+13	1.715018e+14	1.016012e+14	4.720651e+03	2.296982e+03	1.436917e+03	0	2.650604e-04
5.100000e+08	3.139939e+11	0.000000e+00	4.623115e-01	1.117007e+13	1.691117e+14	1.010931e+14	4.717098e+03	2.292669e+03	1.434220e+03	0	2.643002e-04
5.200000e+08	3.113357e+11	0.000000e+00	4.623115e-01	1.108317e+13	1.668113e+14	1.005886e+14	4.713573e+03	2.288487e+03	1.431604e+03	0	2.635523e-04
5.300000e+08	3.087340e+11	0.000000e+00	4.623115e-01	1.099811e+13	1.645955e+14	1.000878e+14	4.710076e+03	2.284430e+03	1.429066e+03	0	2.628161e-04
5.400000e+08	3.061866e+11	0.000000e+00	4.623115e-01	1.091482e+13	1.624597e+14	9.959047e+13	4.706605e+03	2.280492e+03	1.426602e+03	0	2.620913e-04
5.500000e+08	3.036915e+11	0.000000e+00	4.623115e-01	1.083322e+13	1.603993e+14	9.909671e+13	4.703161e+03	2.276668e+03	1.424210e+03	0	2.613774e-04
5.600000e+08	3.012467e+11	0.000000e+00	4.623115e-01	1.075326e+13	1.584105e+14	9.860647e+13	4.699742e+03	2.272952e+03	1.421885e+03	0	2.606741e-04
5.700000e+08	2.988504e+11	0.000000e+00	4.623115e-01	1.067488e+13	1.564892e+14	9.811970e+13	4.696349e+03	2.269339e+03	1.419625e+03	0	2.599811e-04
5.800000e+08	2.965007e+11	0.000000e+00	4.623115e-01	1.059801e+13	1.546320e+14	9.763639e+13	4.692980e+03	2.265826e+03	1.417428e+03	0	2.592979e-04
5.900000e+08	2.941959e+11	0.000000e+00	4.623115e-01	1.052261e+13	1.528357e+14	9.715650e+13	4.689635e+03	2.262408e+03	1.415289e+03	0	2.586243e-04
6.000000e+08	2.919346e+11	0.000000e+00	4.623115e-01	1.044862e+13	1.510970e+14	9.668002e+13	4.686315e+03	2.259080e+03	1.413207e+03	0	2.579600e-04
6.100000e+08	2.897151e+11	0.000000e+00	4.623115e-01	1.037599e+13	1.494131e+14	9.620690e+13	4.683017e+03	2.255839e+03	1.411180e+03	0	2.573046e-04
6.200000e+08	2.875360e+11	0.000000e+00	4.623115e-01	1.030467e+13	1.477813e+14	9.573712e+13	4.679742e+03	2.252681e+03	1.409204e+03	0	2.566578e-04
6.300000e+08	2.853959e+11	0.000000e+00	4.623115e-01	1.023462e+13	1.461991e+14	9.527066e+13	4.676490e+03	2.249603e+03	1.407279e+03	0	2.560195e-04
6.400000e+08	2.832936e+11	0.000000e+00	4.623115e-01	1.016580e+13	1.446641e+14	9.480750e+13	4.673260e+03	2.246601e+03	1.405401e+03	0	2.553893e-04
6.500000e+08	2.812277e+11	0.000000e+00	4.623115e-01	1.009817e+13	1.431739e+14	9.434759e+13	4.670052e+03	2.243673e+03	1.403570e+03	0	2.547670e-04
6.600000e+08	2.791971e+11	0.000000e+00	4.623115e-01	1.003168e+13	1.417267e+14	9.389092e+13	4.666865e+03	2.240816e+03	1.401782e+03	0	2.541523e-04
6.700000e+08	2.772007e+11	0.000000e+00	4.623115e-01	9.966311e+12	1.403202e+14	9.343746e+13	4.663698e+03	2.238026e+03	1.400037e+03	0	2.535451e-04
6.800000e+08	2.752373e+11	0.000000e+00	4.623115e-01	9.902013e+12	1.389528e+14	9.298719e+13	4.660553e+03	2.235301e+03	1.398332e+03	0	2.529451e-04
6.900000e+08	2.733060e+11	0.000000e+00	4.623115e-01	9.838758e+12	1.376226e+14	9.254007e+13	4.657427e+03	2.232638e+03	1.396666e+03	0	2.523521e-04
7.000000e+08	2.714057e+11	0.000000e+00	4.623115e-01	9.776513e+12	1.363281e+14	9.209609e+13	4.654322e+03	2.230036e+03	1.395038e+03	0	2.517658e-04
7.100000e+08	2.695355e+11	0.000000e+00	4.623115e-01	9.715248e+12	1.350676e+14	9.165522e+13	4.651236e+03	2.227491e+03	1.393447e+03	0	2.511862e-04
7.200000e+08	2.676945e+11	0.000000e+00	4.623115e-01	9.654933e+12	1.338396e+14	9.121743e+13	4.648170e+03	2.225002e+03	1.391889e+03	0	2.506130e-04
7.300000e+08	2.658818e+11	0.000000e+00	4.623115e-01	9.595541e+12	1.326429e+14	9.078269e+13	4.645122e+03	2.222567e+03	1.390366e+03	0	2.500461e-04
7.400000e+08	2.640967e+11	0.000000e+00	4.623115e-01	9.537045e+12	1.314760e+14	9.035100e+13	4.642093e+03	2.220183e+03	1.388874e+03	0	2.494852e-04
7.500000e+08	2.623382e+11	0.000000e+00	4.623115e-01	9.479418e+12	1.303377e+14	8.992231e+13	4.639083e+03	2.217848e+03	1.387414e+03	0	2.489303e-04
7.600000e+08	2.606058e+11	0.000000e+00	4.623115e-01	9.422636e+12	1.292269e+14	8.949661e+13	4.636091e+03	2.215561e+03	1.385984e+03	0	2.483811e-04
7.700000e+08	2.588985e+11	0.000000e+00	4.623115e-01	9.366675e+12	1.281425e+14	8.907387e+13	4.633117e+03	2.213321e+03	1.384582e+03	0	2.478375e-04
7.800000e+08	2.572158e+11	0.000000e+00	4.623115e-01	9.311514e+12	1.270833e+14	8.865407e+13	4.630160e+03	2.211125e+03	1.383208e+03	0	2.472994e-04
7.900000e+08	2.555569e+11	0.000000e+00	4.623115e-01	9.257129e+12	1.260485e+14	8.823719e+13	4.627221e+03	2.208971e+03	1.381861e+03	0	2.467666e-04
8.000000e+08	2.539213e+11	0.000000e+00	4.623115e-01	9.203501e+12	1.250370e+14	8.782319e+13	4.624299e+03	2.206859e+03	1.380540e+03	0	2.462390e-04
8.100000e+08	2.523083e+11	0.000000e+00	4.623115e-01	9.150608e+12	1.240479e+14	8.741207e+13	4.621393e+03	2.204787e+03	1.379244e+03	0	2.457165e-04
8.200000e+08	2.507172e+11	0.000000e+00	4.623115e-01	9.098433e+12	1.230804e+14	8.700379e+13	4.618505e+03	2.202754e+03	1.377972e+03	0	2.451989e-04
8.300000e+08	2.491476e+11	0.000000e+00	4.623115e-01	9.046955e+12	1.221337e+14	8.659833e+13	4.615633e+03	2.200758e+03	1.376723e+03	0	2.446862e-04
8.400000e+08	2.475989e+11	0.000000e+00	4.623115e-01	8.996158e+12	1.212070e+14	8.619568e+13	4.612777e+03	2.198797e+03	1.375496e+03	0	2.441781e-04
8.500000e+08	2.460706e+11	0.000000e+00	4.623115e-01	8.946025e+12	1.202996e+14	8.579580e+13	4.609937e+03	2.196872e+03	1.374292e+03	0	2.436747e-04
8.600000e+08	2.445621e+11	0.000000e+00	4.623115e-01	8.896538e+12	1.194107e+14	8.539868e+13	4.607113e+03	2.194980e+03	1.373108e+03	0	2.431757e-04
8.700000e+08	2.430729e+11	0.000000e+00	4.623115e-01	8.847681e+12	1.185398e+14	8.500429e+13	4.604304e+03	2.193120e+03	1.371945e+03	0	2.426811e-04
8.800000e+08	2.416027e+11	0.000000e+00	4.623115e-01	8.799441e+12	1.176861e+14	8.461261e+13	4.601511e+03	2.191292e+03	1.370802e+03	0	2.421909e-04
8.900000e+08	2.401509e+11	0.000000e+00	4.623115e-01	8.751801e+12	1.168490e+14	8.422363e+13	4.598733e+03	2.189495e+03	1.369677e+03	0	2.417048e-04
9.000000e+08	2.387171e+11	0.000000e+00	4.623115e-01	8.704748e+12	1.160281e+14	8.383732e+13	4.595970e+03	2.187726e+03	1.368571e+03	0	2.412228e-04
9.100000e+08	2.373009e+11	0.000000e+00	4.623115e-01	8.658268e+12	1.152227e+14	8.345365e+13	4.593222e+03	2.185987e+03	1.367483e+03	0	2.407448e-04
9.200000e+08	2.359018e+11	0.000000e+00	4.623115e-01	8.612347e+12	1.144323e+14	8.307261e+13	4.590489e+03	2.184274e+03	1.366411e+03	0	2.402708e-04
9.300000e+08	2.345196e+11	0.000000e+00	4.623115e-01	8.566974e+12	1.136564e+14	8.269418e+13	4.587770e+03	2.182589e+03	1.365357e+03	0	2.398006e-04
9.400000e+08	2.331537e+11	0.000000e+00	4.623115e-01	8.522134e+12	1.128945e+14	8.231833e+13	4.585065e+03	2.180930e+03	1.364319e+03	0	2.393341e-04
9.500000e+08	2.318038e+11	0.000000e+00	4.623115e-01	8.477818e+12	1.121462e+14	8.194505e+13	4.582375e+03	2.179295e+03	1.363297e+03	0	2.388713e-04
9.600000e+08	2.304697e+11	0.000000e+00	4.623115e-01	8.434013e+12	1.114110e+14	8.157432e+13	4.579698e+03	2.177685e+03	1.362289e+03	0	2.384122e-04
9.700000e+08	2.291509e+11	0.000000e+00	4.623115e-01	8.390707e+12	1.106885e+14	8.120611e+13	4.577036e+03	2.176098e+03	1.361297e+03	0	2.379565e-04
9.800000e+08	2.278471e+11	0.000000e+00	4.623115e-01	8.347891e+12	1.099784e+14	8.084040e+13	4.574387e+03	2.174535e+03	1.360319e+03	0	2.375044e-04
9.900000e+08	2.265579e+11	0.000000e+00	4.623115e-01	8.305554e+12	1.092801e+14	8.047718e+13	4.571751e+03	2.172993e+03	1.359354e+03	0	2.370556e-04
1.000000e+09	2.252832e+11	0.000000e+00	4.623115e-01	8.263686e+12	1.085935e+14	8.011643e+13	4.569129e+03	2.171473e+03	1.358403e+03	0	2.366102e-04
1.010000e+09	2.240225e+11	0.000000e+00	4.623115e-01	8.222277e+12	1.079180e+14	7.975812e+13	4.566520e+03	2.169974e+03	1.357466e+03	0	2.361680e-04
1.020000e+09	2.227757e+11	0.000000e+00	4.623115e-01	8.181318e+12	1.072534e+14	7.940225e+13	4.563924e+03	2.168495e+03	1.356541e+03	0	2.357290e-04
1.030000e+09	2.215423e+11	0.000000e+00	4.623115e-01	8.140799e+12	1.065993e+14	7.904877e+13	4.561341e+03	2.167036e+03	1.355628e+03	0	2.352932e-04
1.040000e+09	2.203222e+11	0.000000e+00	4.623115e-01	8.100712e+12	1.059554e+14	7.869769e+13	4.558770e+03	2.165597e+03	1.354727e+03	0	2.348605e-04
1.050000e+09	2.191150e+11	0.000000e+00	4.623115e-01	8.061049e+12	1.053215e+14	7.834898e+13	4.556213e+03	2.164175e+03	1.353838e+03	0	2.344307e-04
1.060000e+09	2.179206e+11	0.000000e+00	4.623115e-01	8.021800e+12	1.046972e+14	7.800262e+13	4.553668e+03	2.162772e+03	1.352960e+03	0	2.340040e-04
1.070000e+09	2.167387e+11	0.000000e+00	4.623115e-01	7.982958e+12	1.040823e+14	7.765859e+13	4.551135e+03	2.161386e+03	1.352093e+03	0	2.335802e-04
1.080000e+09	2.155689e+11	0.000000e+00	4.623115e-01	7.944515e+12	1.034765e+14	7.731688e+13	4.548614e+03	2.160018e+03	1.351237e+03	0	2.331592e-04
1.090000e+09	2.144112e+11	0.000000e+00	4.623115e-01	7.906464e+12	1.028796e+14	7.697747e+13	4.546106e+03	2.158666e+03	1.350392e+03	0	2.327411e-04
1.100000e+09	2.132653e+11	0.000000e+00	4.623115e-01	7.868797e+12	1.022912e+14	7.664033e+13	4.543610e+03	2.157330e+03	1.349556e+03	0	2.323257e-04
1.110000e+09	2.121309e+11	0.000000e+00	4.623115e-01	7.831507e+12	1.017113e+14	7.630546e+13	4.541125e+03	2.156010e+03	1.348730e+03	0	2.319130e-04
1.120000e+09	2.110078e+11	0.000000e+00	4.623115e-01	7.794587e+12	1.011394e+14	7.597283e+13	4.538652e+03	2.154705e+03	1.347914e+03	0	2.315030e-04
1.130000e+09	2.098959e+11	0.000000e+00	4.623115e-01	7.758030e+12	1.005755e+14	7.564243e+13	4.536191e+03	2.153416e+03	1.347107e+03	0	2.310957e-04
1.140000e+09	2.087950e+11	0.000000e+00	4.623115e-01	7.721831e+12	1.000194e+14	7.531423e+13	4.533741e+03	2.152140e+03	1.346309e+03	0	2.306909e-04
1.150000e+09	2.077047e+11	0.000000e+00	4.623115e-01	7.685982e+12	9.947071e+13	7.498823e+13	4.531303e+03	2.150879e+03	1.345520e+03	0	2.302887e-04
1.160000e+09	2.066251e+11	0.000000e+00	4.623115e-01	7.650477e+12	9.892937e+13	7.466439e+13	4.528876e+03	2.149632e+03	1.344740e+03	0	2.298890e-04
1.170000e+09	2.055558e+11	0.000000e+00	4.623115e-01	7.615311e+12	9.839518e+13	7.434272e+13	4.526461e+03	2.148398e+03	1.343968e+03	0	2.294917e-04
1.180000e+09	2.044966e+11	0.000000e+00	4.623115e-01	7.580477e+12	9.786794e+13	7.402319e+13	4.524056e+03	2.147177e+03	1.343204e+03	0	2.290969e-04
1.190000e+09	2.034475e+11	0.000000e+00	4.623115e-01	7.545970e+12	9.734749e+13	7.370578e+13	4.521662e+03	2.145969e+03	1.342449e+03	0	2.287045e-04
1.200000e+09	2.024082e+11	0.000000e+00	4.623115e-01	7.511784e+12	9.683366e+13	7.339048e+13	4.519280e+03	2.144773e+03	1.341701e+03	0	2.283144e-04
1.210000e+09	2.013787e+11	0.000000e+00	4.623115e-01	7.477914e+12	9.632628e+13	7.307727e+13	4.516908e+03	2.143590e+03	1.340960e+03	0	2.279266e-04
1.220000e+09	2.003586e+11	0.000000e+00	4.623115e-01	7.444355e+12	9.582521e+13	7.276614e+13	4.514546e+03	2.142418e+03	1.340227e+03	0	2.275411e-04
1.230000e+09	1.993479e+11	0.000000e+00	4.623115e-01	7.411102e+12	9.533028e+13	7.245706e+13	4.512196e+03	2.141258e+03	1.339501e+03	0	2.271578e-04
1.240000e+09	1.983464e+11	0.000000e+00	4.623115e-01	7.378149e+12	9.484136e+13	7.215003e+13	4.509855e+03	2.140109e+03	1.338783e+03	0	2.267768e-04
1.250000e+09	1.973539e+11	0.000000e+00	4.623115e-01	7.345492e+12	9.435830e+13	7.184502e+13	4.507526e+03	2.138971e+03	1.338071e+03	0	2.263979e-04
1.260000e+09	1.963704e+11	0.000000e+00	4.623115e-01	7.313126e+12	9.388098e+13	7.154202e+13	4.505206e+03	2.137843e+03	1.337366e+03	0	2.260212e-04
1.270000e+09	1.953956e+11	0.000000e+00	4.623115e-01	7.281047e+12	9.340925e+13	7.124102e+13	4.502897e+03	2.136726e+03	1.336667e+03	0	2.256466e-04
1.280000e+09	1.944295e+11	0.000000e+00	4.623115e-01	7.249250e+12	9.294300e+13	7.094200e+13	4.500598e+03	2.135620e+03	1.335975e+03	0	2.252741e-04
1.290000e+09	1.934719e+11	0.000000e+00	4.623115e-01	7.217730e+12	9.248210e+13	7.064495e+13	4.498308e+03	2.134523e+03	1.335289e+03	0	2.249036e-04
1.300000e+09	1.925227e+11	0.000000e+00	4.623115e-01	7.186484e+12	9.202643e+13	7.034984e+13	4.496029e+03	2.133437e+03	1.334609e+03	0	2.245352e-04
1.310000e+09	1.915817e+11	0.000000e+00	4.623115e-01	7.155507e+12	9.157587e+13	7.005667e+13	4.493760e+03	2.132359e+03	1.333935e+03	0	2.241688e-04
1.320000e+09	1.906488e+11	0.000000e+00	4.623115e-01	7.124795e+12	9.113033e+13	6.976542e+13	4.491500e+03	2.131291e+03	1.333267e+03	0	2.238043e-04
1.330000e+09	1.897239e+11	0.000000e+00	4.623115e-01	7.094345e+12	9.068969e+13	6.947608e+13	4.489250e+03	2.130233e+03	1.332605e+03	0	2.234418e-04
1.340000e+09	1.888069e+11	0.000000e+00	4.623115e-01	7.064152e+12	9.025384e+13	6.918862e+13	4.487010e+03	2.129183e+03	1.331948e+03	0	2.230813e-04
1.350000e+09	1.878976e+11	0.000000e+00	4.623115e-01	7.034212e+12	8.982270e+13	6.890304e+13	4.484779e+03	2.128142e+03	1.331297e+03	0	2.227226e-04
1.360000e+09	1.869960e+11	0.000000e+00	4.623115e-01	7.004522e+12	8.939615e+13	6.861932e+13	4.482558e+03	2.127109e+03	1.330651e+03	0	2.223658e-04
