#t		Qconv[W]	Ri[Rp]		R*[Rp]		Qc[W]		Qm[W]		Qr[W]		Tcmb[K]		Tl[K]		Tup[K]		RiFlag		Bs[T]
0.000000e+00	2.449508e+12	0.000000e+00	4.572864e-01	6.039568e+13	2.480894e+15	2.203333e+14	6.645222e+03	4.162754e+03	2.244537e+03	0	5.115038e-04
1.000000e+07	2.396170e+12	0.000000e+00	4.572864e-01	5.915981e+13	2.196740e+15	2.191124e+14	6.634322e+03	4.063960e+03	2.191268e+03	0	5.077638e-04
2.000000e+07	2.340846e+12	0.000000e+00	4.572864e-01	5.787829e+13	1.965178e+15	2.179008e+14	6.623643e+03	3.977388e+03	2.144589e+03	0	5.038255e-04
3.000000e+07	2.285490e+12	0.000000e+00	4.572864e-01	5.659617e+13	1.773744e+15	2.166981e+14	6.613193e+03	3.900828e+03	2.103308e+03	0	4.998224e-04
4.000000e+07	2.231222e+12	0.000000e+00	4.572864e-01	5.533926e+13	1.613467e+15	2.155045e+14	6.602974e+03	3.832578e+03	2.066508e+03	0	4.958346e-04
5.000000e+07	2.178662e+12	0.000000e+00	4.572864e-01	5.412186e+13	1.477762e+15	2.143198e+14	6.592981e+03	3.771307e+03	2.033472e+03	0	4.919102e-04
6.000000e+07	2.128133e+12	0.000000e+00	4.572864e-01	5.295139e+13	1.361710e+15	2.131438e+14	6.583207e+03	3.715961e+03	2.003629e+03	0	4.880775e-04
7.000000e+07	2.079773e+12	0.000000e+00	4.572864e-01	5.183105e+13	1.261572e+15	2.119767e+14	6.573643e+03	3.665691e+03	1.976523e+03	0	4.843521e-04
8.000000e+07	2.033611e+12	0.000000e+00	4.572864e-01	5.076149e+13	1.174471e+15	2.108182e+14	6.564280e+03	3.619805e+03	1.951782e+03	0	4.807417e-04
9.000000e+07	1.989610e+12	0.000000e+00	4.572864e-01	4.974185e+13	1.098156e+15	2.096684e+14	6.555110e+03	3.577736e+03	1.929098e+03	0	4.772492e-04
1.000000e+08	1.947695e+12	0.000000e+00	4.572864e-01	4.877041e+13	1.030851e+15	2.085270e+14	6.546124e+03	3.539011e+03	1.908218e+03	0	4.738740e-04
1.100000e+08	1.907770e+12	0.000000e+00	4.572864e-01	4.784495e+13	9.711352e+14	2.073942e+14	6.537312e+03	3.503236e+03	1.888929e+03	0	4.706137e-04
1.200000e+08	1.869731e+12	0.000000e+00	4.572864e-01	4.696304e+13	9.178612e+14	2.062697e+14	6.528667e+03	3.470076e+03	1.871049e+03	0	4.674648e-04
1.300000e+08	1.833467e+12	0.000000e+00	4.572864e-01	4.612215e+13	8.700945e+14	2.051536e+14	6.520180e+03	3.439248e+03	1.854427e+03	0	4.644229e-04
1.400000e+08	1.798872e+12	0.000000e+00	4.572864e-01	4.531982e+13	8.270672e+14	2.040457e+14	6.511845e+03	3.410507e+03	1.838929e+03	0	4.614833e-04
1.500000e+08	1.765841e+12	0.000000e+00	4.572864e-01	4.455362e+13	7.881430e+14	2.029461e+14	6.503655e+03	3.383643e+03	1.824445e+03	0	4.586413e-04
1.600000e+08	1.734276e+12	0.000000e+00	4.572864e-01	4.382127e+13	7.527909e+14	2.018545e+14	6.495602e+03	3.358475e+03	1.810874e+03	0	4.558920e-04
1.700000e+08	1.704081e+12	0.000000e+00	4.572864e-01	4.312062e+13	7.205647e+14	2.007710e+14	6.487681e+03	3.334843e+03	1.798132e+03	0	4.532307e-04
1.800000e+08	1.675171e+12	0.000000e+00	4.572864e-01	4.244963e+13	6.910875e+14	1.996955e+14	6.479887e+03	3.312608e+03	1.786143e+03	0	4.506530e-04
1.900000e+08	1.647463e+12	0.000000e+00	4.572864e-01	4.180644e+13	6.640384e+14	1.986279e+14	6.472214e+03	3.291648e+03	1.774841e+03	0	4.481546e-04
2.000000e+08	1.620882e+12	0.000000e+00	4.572864e-01	4.118927e+13	6.391431e+14	1.975682e+14	6.464656e+03	3.271855e+03	1.764169e+03	0	4.457312e-04
2.100000e+08	1.595357e+12	0.000000e+00	4.572864e-01	4.059652e+13	6.161658e+14	1.965162e+14	6.457210e+03	3.253131e+03	1.754073e+03	0	4.433791e-04
2.200000e+08	1.570823e+12	0.000000e+00	4.572864e-01	4.002667e+13	5.949029e+14	1.954720e+14	6.449870e+03	3.235392e+03	1.744508e+03	0	4.410945e-04
2.300000e+08	1.547220e+12	0.000000e+00	4.572864e-01	3.947834e+13	5.751777e+14	1.944354e+14	6.442633e+03	3.218561e+03	1.735433e+03	0	4.388740e-04
2.400000e+08	1.524491e+12	0.000000e+00	4.572864e-01	3.895023e+13	5.568361e+14	1.934065e+14	6.435496e+03	3.202569e+03	1.726810e+03	0	4.367144e-04
2.500000e+08	1.502586e+12	0.000000e+00	4.572864e-01	3.844115e+13	5.397435e+14	1.923851e+14	6.428453e+03	3.187353e+03	1.718606e+03	0	4.346126e-04
2.600000e+08	1.481456e+12	0.000000e+00	4.572864e-01	3.795000e+13	5.237815e+14	1.913711e+14	6.421502e+03	3.172859e+03	1.710791e+03	0	4.325657e-04
2.700000e+08	1.461057e+12	0.000000e+00	4.572864e-01	3.747575e+13	5.088457e+14	1.903646e+14	6.414640e+03	3.159036e+03	1.703337e+03	0	4.305712e-04
2.800000e+08	1.441348e+12	0.000000e+00	4.572864e-01	3.701745e+13	4.948440e+14	1.893654e+14	6.407863e+03	3.145837e+03	1.696221e+03	0	4.286263e-04
2.900000e+08	1.422291e+12	0.000000e+00	4.572864e-01	3.657423e+13	4.816945e+14	1.883735e+14	6.401169e+03	3.133221e+03	1.689418e+03	0	4.267289e-04
3.000000e+08	1.403850e+12	0.000000e+00	4.572864e-01	3.614526e+13	4.693243e+14	1.873889e+14	6.394554e+03	3.121149e+03	1.682909e+03	0	4.248766e-04
3.100000e+08	1.385993e+12	0.000000e+00	4.572864e-01	3.572979e+13	4.576684e+14	1.864114e+14	6.388017e+03	3.109587e+03	1.676675e+03	0	4.230674e-04
3.200000e+08	1.368689e+12	0.000000e+00	4.572864e-01	3.532711e+13	4.466685e+14	1.854410e+14	6.381555e+03	3.098503e+03	1.670699e+03	0	4.212994e-04
3.300000e+08	1.351909e+12	0.000000e+00	4.572864e-01	3.493656e+13	4.362725e+14	1.844777e+14	6.375166e+03	3.087868e+03	1.664964e+03	0	4.195706e-04
3.400000e+08	1.335627e+12	0.000000e+00	4.572864e-01	3.455752e+13	4.264332e+14	1.835214e+14	6.368847e+03	3.077654e+03	1.659457e+03	0	4.178794e-04
3.500000e+08	1.319818e+12	0.000000e+00	4.572864e-01	3.418942e+13	4.171083e+14	1.825720e+14	6.362597e+03	3.067837e+03	1.654163e+03	0	4.162241e-04
3.600000e+08	1.304459e+12	0.000000e+00	4.572864e-01	3.383174e+13	4.082594e+14	1.816295e+14	6.356413e+03	3.058393e+03	1.649071e+03	0	4.146032e-04
3.700000e+08	1.289528e+12	0.000000e+00	4.572864e-01	3.348396e+13	3.998518e+14	1.806938e+14	6.350293e+03	3.049302e+03	1.644170e+03	0	4.130153e-04
3.800000e+08	1.275004e+12	0.000000e+00	4.572864e-01	3.314562e+13	3.918540e+14	1.797649e+14	6.344237e+03	3.040544e+03	1.639447e+03	0	4.114589e-04
3.900000e+08	1.260870e+12	0.000000e+00	4.572864e-01	3.281628e+13	3.842372e+14	1.788427e+14	6.338241e+03	3.032100e+03	1.634894e+03	0	4.099328e-04
4.000000e+08	1.247107e+12	0.000000e+00	4.572864e-01	3.249554e+13	3.769752e+14	1.779272e+14	6.332305e+03	3.023954e+03	1.630502e+03	0	4.084358e-04
4.100000e+08	1.233699e+12	0.000000e+00	4.572864e-01	3.218299e+13	3.700443e+14	1.770183e+14	6.326426e+03	3.016090e+03	1.626262e+03	0	4.069667e-04
4.200000e+08	1.220629e+12	0.000000e+00	4.572864e-01	3.187829e+13	3.634224e+14	1.761159e+14	6.320604e+03	3.008493e+03	1.622166e+03	0	4.055245e-04
4.300000e+08	1.207883e+12	0.000000e+00	4.572864e-01	3.158109e+13	3.570897e+14	1.752200e+14	6.314837e+03	3.001150e+03	1.618206e+03	0	4.041081e-04
4.400000e+08	1.195447e+12	0.000000e+00	4.572864e-01	3.129107e+13	3.510276e+14	1.743306e+14	6.309124e+03	2.994048e+03	1.614377e+03	0	4.027165e-04
4.500000e+08	1.183309e+12	0.000000e+00	4.572864e-01	3.100793e+13	3.452193e+14	1.734476e+14	6.303463e+03	2.987174e+03	1.610670e+03	0	4.013488e-04
4.600000e+08	1.171455e+12	0.000000e+00	4.572864e-01	3.073138e+13	3.396491e+14	1.725709e+14	6.297853e+03	2.980518e+03	1.607082e+03	0	4.000041e-04
4.700000e+08	1.159874e+12	0.000000e+00	4.572864e-01	3.046116e+13	3.343028e+14	1.717005e+14	6.292293e+03	2.974069e+03	1.603604e+03	0	3.986816e-04
4.800000e+08	1.148556e+12	0.000000e+00	4.572864e-01	3.019700e+13	3.291671e+14	1.708363e+14	6.286782e+03	2.967818e+03	1.600233e+03	0	3.973805e-04
4.900000e+08	1.137489e+12	0.000000e+00	4.572864e-01	2.993868e+13	3.242296e+14	1.699783e+14	6.281318e+03	2.961754e+03	1.596964e+03	0	3.961001e-04
5.000000e+08	1.126664e+12	0.000000e+00	4.572864e-01	2.968596e+13	3.194791e+14	1.691265e+14	6.275901e+03	2.955870e+03	1.593791e+03	0	3.948395e-04
5.100000e+08	1.116071e+12	0.000000e+00	4.572864e-01	2.943863e+13	3.149049e+14	1.682807e+14	6.270530e+03	2.950157e+03	1.590711e+03	0	3.935983e-04
5.200000e+08	1.105703e+12	0.000000e+00	4.572864e-01	2.919649e+13	3.104974e+14	1.674410e+14	6.265203e+03	2.944608e+03	1.587719e+03	0	3.923756e-04
5.300000e+08	1.095550e+12	0.000000e+00	4.572864e-01	2.895934e+13	3.062473e+14	1.666072e+14	6.259920e+03	2.939215e+03	1.584811e+03	0	3.911710e-04
5.400000e+08	1.085604e+12	0.000000e+00	4.572864e-01	2.872700e+13	3.021463e+14	1.657794e+14	6.254680e+03	2.933971e+03	1.581984e+03	0	3.899837e-04
5.500000e+08	1.075859e+12	0.000000e+00	4.572864e-01	2.849929e+13	2.981864e+14	1.649575e+14	6.249482e+03	2.928870e+03	1.579233e+03	0	3.888132e-04
5.600000e+08	1.066307e+12	0.000000e+00	4.572864e-01	2.827606e+13	2.943603e+14	1.641414e+14	6.244325e+03	2.923906e+03	1.576557e+03	0	3.876591e-04
5.700000e+08	1.056941e+12	0.000000e+00	4.572864e-01	2.805715e+13	2.906611e+14	1.633312e+14	6.239209e+03	2.919074e+03	1.573951e+03	0	3.865207e-04
5.800000e+08	1.047755e+12	0.000000e+00	4.572864e-01	2.784240e+13	2.870825e+14	1.625266e+14	6.234131e+03	2.914366e+03	1.571413e+03	0	3.853977e-04
5.900000e+08	1.038742e+12	0.000000e+00	4.572864e-01	2.763168e+13	2.836183e+14	1.617278e+14	6.229093e+03	2.909780e+03	1.568940e+03	0	3.842894e-04
6.000000e+08	1.029897e+12	0.000000e+00	4.572864e-01	2.742484e+13	2.802630e+14	1.609346e+14	6.224093e+03	2.905309e+03	1.566529e+03	0	3.831956e-04
6.100000e+08	1.021214e+12	0.000000e+00	4.572864e-01	2.722177e+13	2.770114e+14	1.601471e+14	6.219130e+03	2.900948e+03	1.564178e+03	0	3.821157e-04
6.200000e+08	1.012688e+12	0.000000e+00	4.572864e-01	2.702234e+13	2.738583e+14	1.593651e+14	6.214203e+03	2.896694e+03	1.561884e+03	0	3.810493e-04
6.300000e+08	1.004314e+12	0.000000e+00	4.572864e-01	2.682643e+13	2.707993e+14	1.585886e+14	6.209313e+03	2.892543e+03	1.559646e+03	0	3.799961e-04
6.400000e+08	9.960875e+11	0.000000e+00	4.572864e-01	2.663392e+13	2.678300e+14	1.578176e+14	6.204458e+03	2.888490e+03	1.557460e+03	0	3.789557e-04
6.500000e+08	9.880030e+11	0.000000e+00	4.572864e-01	2.644473e+13	2.649462e+14	1.570521e+14	6.199638e+03	2.884531e+03	1.555326e+03	0	3.779276e-04
6.600000e+08	9.800565e+11	0.000000e+00	4.572864e-01	2.625873e+13	2.621440e+14	1.562919e+14	6.194852e+03	2.880663e+03	1.553240e+03	0	3.769117e-04
6.700000e+08	9.722437e+11	0.000000e+00	4.572864e-01	2.607583e+13	2.594200e+14	1.555370e+14	6.190100e+03	2.876883e+03	1.551202e+03	0	3.759075e-04
6.800000e+08	9.645607e+11	0.000000e+00	4.572864e-01	2.589595e+13	2.567705e+14	1.547875e+14	6.185380e+03	2.873187e+03	1.549209e+03	0	3.749146e-04
6.900000e+08	9.570036e+11	0.000000e+00	4.572864e-01	2.571898e+13	2.541924e+14	1.540432e+14	6.180693e+03	2.869572e+03	1.547260e+03	0	3.739330e-04
7.000000e+08	9.495687e+11	0.000000e+00	4.572864e-01	2.554485e+13	2.516825e+14	1.533042e+14	6.176039e+03	2.866036e+03	1.545353e+03	0	3.729621e-04
7.100000e+08	9.422524e+11	0.000000e+00	4.572864e-01	2.537348e+13	2.492381e+14	1.525703e+14	6.171415e+03	2.862574e+03	1.543487e+03	0	3.720017e-04
7.200000e+08	9.350513e+11	0.000000e+00	4.572864e-01	2.520478e+13	2.468564e+14	1.518416e+14	6.166823e+03	2.859185e+03	1.541659e+03	0	3.710517e-04
7.300000e+08	9.279623e+11	0.000000e+00	4.572864e-01	2.503868e+13	2.445348e+14	1.511179e+14	6.162261e+03	2.855867e+03	1.539870e+03	0	3.701116e-04
7.400000e+08	9.209821e+11	0.000000e+00	4.572864e-01	2.487510e+13	2.422709e+14	1.503993e+14	6.157729e+03	2.852615e+03	1.538117e+03	0	3.691812e-04
7.500000e+08	9.141078e+11	0.000000e+00	4.572864e-01	2.471399e+13	2.400622e+14	1.496857e+14	6.153226e+03	2.849429e+03	1.536399e+03	0	3.682604e-04
7.600000e+08	9.073365e+11	0.000000e+00	4.572864e-01	2.455526e+13	2.379068e+14	1.489771e+14	6.148753e+03	2.846307e+03	1.534715e+03	0	3.673488e-04
7.700000e+08	9.006654e+11	0.000000e+00	4.572864e-01	2.439886e+13	2.358023e+14	1.482734e+14	6.144308e+03	2.843244e+03	1.533064e+03	0	3.664463e-04
7.800000e+08	8.940919e+11	0.000000e+00	4.572864e-01	2.424473e+13	2.337469e+14	1.475746e+14	6.139892e+03	2.840241e+03	1.531445e+03	0	3.655527e-04
7.900000e+08	8.876134e+11	0.000000e+00	4.572864e-01	2.409280e+13	2.317387e+14	1.468806e+14	6.135503e+03	2.837295e+03	1.529856e+03	0	3.646676e-04
8.000000e+08	8.812274e+11	0.000000e+00	4.572864e-01	2.394303e+13	2.297760e+14	1.461915e+14	6.131142e+03	2.834403e+03	1.528297e+03	0	3.637909e-04
8.100000e+08	8.749317e+11	0.000000e+00	4.572864e-01	2.379535e+13	2.278569e+14	1.455071e+14	6.126808e+03	2.831564e+03	1.526766e+03	0	3.629225e-04
8.200000e+08	8.687238e+11	0.000000e+00	4.572864e-01	2.364971e+13	2.259799e+14	1.448275e+14	6.122501e+03	2.828777e+03	1.525264e+03	0	3.620621e-04
8.300000e+08	8.626016e+11	0.000000e+00	4.572864e-01	2.350606e+13	2.241434e+14	1.441526e+14	6.118220e+03	2.826040e+03	1.523788e+03	0	3.612096e-04
8.400000e+08	8.565630e+11	0.000000e+00	4.572864e-01	2.336435e+13	2.223460e+14	1.434823e+14	6.113965e+03	2.823351e+03	1.522338e+03	0	3.603648e-04
8.500000e+08	8.506060e+11	0.000000e+00	4.572864e-01	2.322454e+13	2.205864e+14	1.428166e+14	6.109735e+03	2.820708e+03	1.520913e+03	0	3.595274e-04
8.600000e+08	8.447285e+11	0.000000e+00	4.572864e-01	2.308658e+13	2.188630e+14	1.421556e+14	6.105531e+03	2.818110e+03	1.519512e+03	0	3.586974e-04
8.700000e+08	8.389288e+11	0.000000e+00	4.572864e-01	2.295042e+13	2.171748e+14	1.414991e+14	6.101352e+03	2.815556e+03	1.518135e+03	0	3.578746e-04
8.800000e+08	8.332048e+11	0.000000e+00	4.572864e-01	2.281602e+13	2.155205e+14	1.408471e+14	6.097197e+03	2.813045e+03	1.516781e+03	0	3.570589e-04
8.900000e+08	8.275550e+11	0.000000e+00	4.572864e-01	2.268335e+13	2.138988e+14	1.401996e+14	6.093067e+03	2.810574e+03	1.515449e+03	0	3.562500e-04
9.000000e+08	8.219776e+11	0.000000e+00	4.572864e-01	2.255236e+13	2.123088e+14	1.395565e+14	6.088960e+03	2.808144e+03	1.514138e+03	0	3.554478e-04
9.100000e+08	8.164708e+11	0.000000e+00	4.572864e-01	2.242302e+13	2.107494e+14	1.389179e+14	6.084878e+03	2.805752e+03	1.512848e+03	0	3.546523e-04
9.200000e+08	8.110333e+11	0.000000e+00	4.572864e-01	2.229528e+13	2.092195e+14	1.382836e+14	6.080818e+03	2.803397e+03	1.511579e+03	0	3.538632e-04
9.300000e+08	8.056633e+11	0.000000e+00	4.572864e-01	2.216911e+13	2.077182e+14	1.376537e+14	6.076782e+03	2.801079e+03	1.510329e+03	0	3.530805e-04
9.400000e+08	8.003594e+11	0.000000e+00	4.572864e-01	2.204448e+13	2.062446e+14	1.370280e+14	6.072768e+03	2.798796e+03	1.509098e+03	0	3.523040e-04
9.500000e+08	7.951202e+11	0.000000e+00	4.572864e-01	2.192136e+13	2.047977e+14	1.364067e+14	6.068777e+03	2.796547e+03	1.507885e+03	0	3.515336e-04
9.600000e+08	7.899443e+11	0.000000e+00	4.572864e-01	2.179970e+13	2.033768e+14	1.357895e+14	6.064809e+03	2.794332e+03	1.506691e+03	0	3.507691e-04
9.700000e+08	7.848302e+11	0.000000e+00	4.572864e-01	2.167949e+13	2.019811e+14	1.351766e+14	6.060862e+03	2.792149e+03	1.505514e+03	0	3.500105e-04
9.800000e+08	7.797768e+11	0.000000e+00	4.572864e-01	2.156069e+13	2.006097e+14	1.345678e+14	6.056937e+03	2.789997e+03	1.504353e+03	0	3.492577e-04
9.900000e+08	7.747828e+11	0.000000e+00	4.572864e-01	2.144327e+13	1.992619e+14	1.339632e+14	6.053034e+03	2.787875e+03	1.503209e+03	0	3.485105e-04
1.000000e+09	7.698468e+11	0.000000e+00	4.572864e-01	2.132719e+13	1.979370e+14	1.333627e+14	6.049151e+03	2.785784e+03	1.502082e+03	0	3.477688e-04
1.010000e+09	7.649678e+11	0.000000e+00	4.572864e-01	2.121245e+13	1.966343e+14	1.327663e+14	6.045290e+03	2.783721e+03	1.500969e+03	0	3.470326e-04
1.020000e+09	7.601446e+11	0.000000e+00	4.572864e-01	2.109900e+13	1.953532e+14	1.321739e+14	6.041449e+03	2.781686e+03	1.499872e+03	0	3.463017e-04
1.030000e+09	7.553760e+11	0.000000e+00	4.572864e-01	2.098682e+13	1.940930e+14	1.315855e+14	6.037629e+03	2.779678e+03	1.498790e+03	0	3.455760e-04
1.040000e+09	7.506610e+11	0.000000e+00	4.572864e-01	2.087590e+13	1.928532e+14	1.310011e+14	6.033830e+03	2.777697e+03	1.497722e+03	0	3.448555e-04
1.050000e+09	7.459986e+11	0.000000e+00	4.572864e-01	2.076619e+13	1.916331e+14	1.304206e+14	6.030050e+03	2.775742e+03	1.496667e+03	0	3.441400e-04
1.060000e+09	7.413876e+11	0.000000e+00	4.572864e-01	2.065768e+13	1.904321e+14	1.298440e+14	6.026290e+03	2.773812e+03	1.495627e+03	0	3.434295e-04
1.070000e+09	7.368271e+11	0.000000e+00	4.572864e-01	2.055035e+13	1.892498e+14	1.292714e+14	6.022550e+03	2.771906e+03	1.494599e+03	0	3.427239e-04
1.080000e+09	7.323162e+11	0.000000e+00	4.572864e-01	2.044417e+13	1.880857e+14	1.287026e+14	6.018829e+03	2.770024e+03	1.493584e+03	0	3.420231e-04
1.090000e+09	7.278539e+11	0.000000e+00	4.572864e-01	2.033913e+13	1.869391e+14	1.281376e+14	6.015127e+03	2.768166e+03	1.492582e+03	0	3.413270e-04
1.100000e+09	7.234393e+11	0.000000e+00	4.572864e-01	2.023519e+13	1.858097e+14	1.275764e+14	6.011444e+03	2.766330e+03	1.491592e+03	0	3.406355e-04
1.110000e+09	7.190716e+11	0.000000e+00	4.572864e-01	2.013234e+13	1.846970e+14	1.270189e+14	6.007780e+03	2.764516e+03	1.490614e+03	0	3.399486e-04
1.120000e+09	7.147497e+11	0.000000e+00	4.572864e-01	2.003057e+13	1.836006e+14	1.264652e+14	6.004135e+03	2.762723e+03	1.489647e+03	0	3.392662e-04
1.130000e+09	7.104731e+11	0.000000e+00	4.572864e-01	1.992985e+13	1.825199e+14	1.259152e+14	6.000508e+03	2.760951e+03	1.488692e+03	0	3.385882e-04
1.140000e+09	7.062407e+11	0.000000e+00	4.572864e-01	1.983015e+13	1.814547e+14	1.253689e+14	5.996899e+03	2.759200e+03	1.487748e+03	0	3.379145e-04
1.150000e+09	7.020518e+11	0.000000e+00	4.572864e-01	1.973148e+13	1.804045e+14	1.248262e+14	5.993309e+03	2.757469e+03	1.486814e+03	0	3.372451e-04
1.160000e+09	6.979057e+11	0.000000e+00	4.572864e-01	1.963380e+13	1.793689e+14	1.242872e+14	5.989736e+03	2.755757e+03	1.485891e+03	0	3.365799e-04
1.170000e+09	6.938016e+11	0.000000e+00	4.572864e-01	1.953709e+13	1.783475e+14	1.237517e+14	5.986181e+03	2.754064e+03	1.484978e+03	0	3.359188e-04
1.180000e+09	6.897388e+11	0.000000e+00	4.572864e-01	1.944135e+13	1.773401e+14	1.232198e+14	5.982643e+03	2.752389e+03	1.484075e+03	0	3.352618e-04
1.190000e+09	6.857166e+11	0.000000e+00	4.572864e-01	1.934655e+13	1.763462e+14	1.226915e+14	5.979123e+03	2.750732e+03	1.483182e+03	0	3.346089e-04
1.200000e+09	6.817342e+11	0.000000e+00	4.572864e-01	1.925269e+13	1.753655e+14	1.221666e+14	5.975619e+03	2.749093e+03	1.482298e+03	0	3.339598e-04
1.210000e+09	6.777911e+11	0.000000e+00	4.572864e-01	1.915974e+13	1.743977e+14	1.216452e+14	5.972133e+03	2.747471e+03	1.481424e+03	0	3.333147e-04
1.220000e+09	6.738864e+11	0.000000e+00	4.572864e-01	1.906768e+13	1.734426e+14	1.211273e+14	5.968664e+03	2.745866e+03	1.480558e+03	0	3.326734e-04
1.230000e+09	6.700197e+11	0.000000e+00	4.572864e-01	1.897651e+13	1.724997e+14	1.206128e+14	5.965211e+03	2.744278e+03	1.479702e+03	0	3.320359e-04
1.240000e+09	6.661903e+11	0.000000e+00	4.572864e-01	1.888621e+13	1.715688e+14	1.201017e+14	5.961774e+03	2.742705e+03	1.478854e+03	0	3.314022e-04
1.250000e+09	6.623976e+11	0.000000e+00	4.572864e-01	1.879676e+13	1.706496e+14	1.195940e+14	5.958354e+03	2.741148e+03	1.478014e+03	0	3.307720e-04
1.260000e+09	6.586409e+11	0.000000e+00	4.572864e-01	1.870816e+13	1.697419e+14	1.190897e+14	5.954950e+03	2.739606e+03	1.477183e+03	0	3.301456e-04
1.270000e+09	6.549197e+11	0.000000e+00	4.572864e-01	1.862038e+13	1.688454e+14	1.185886e+14	5.951563e+03	2.738080e+03	1.476360e+03	0	3.295226e-04
1.280000e+09	6.512335e+11	0.000000e+00	4.572864e-01	1.853342e+13	1.679599e+14	1.180909e+14	5.948191e+03	2.736567e+03	1.475544e+03	0	3.289032e-04
1.290000e+09	6.475817e+11	0.000000e+00	4.572864e-01	1.844725e+13	1.670850e+14	1.175964e+14	5.944834e+03	2.735070e+03	1.474737e+03	0	3.282873e-04
1.300000e+09	6.439637e+11	0.000000e+00	4.572864e-01	1.836188e+13	1.662206e+14	1.171051e+14	5.941494e+03	2.733586e+03	1.473937e+03	0	3.276748e-04
1.310000e+09	6.403790e+11	0.000000e+00	4.572864e-01	1.827729e+13	1.653664e+14	1.166171e+14	5.938169e+03	2.732116e+03	1.473144e+03	0	3.270656e-04
1.320000e+09	6.368271e+11	0.000000e+00	4.572864e-01	1.819346e+13	1.645223e+14	1.161323e+14	5.934859e+03	2.730659e+03	1.472359e+03	0	3.264598e-04
1.330000e+09	6.333076e+11	0.000000e+00	4.572864e-01	1.811038e+13	1.636879e+14	1.156507e+14	5.931564e+03	2.729215e+03	1.471580e+03	0	3.258573e-04
1.340000e+09	6.298199e+11	0.000000e+00	4.572864e-01	1.802805e+13	1.628631e+14	1.151722e+14	5.928284e+03	2.727784e+03	1.470808e+03	0	3.252580e-04
1.350000e+09	6.263635e+11	0.000000e+00	4.572864e-01	1.794645e+13	1.620477e+14	1.146968e+14	5.925019e+03	2.726366e+03	1.470044e+03	0	3.246619e-04
1.360000e+09	6.229380e+11	0.000000e+00	4.572864e-01	1.786557e+13	1.612415e+14	1.142245e+14	5.921769e+03	2.724960e+03	1.469286e+03	0	3.240690e-04
