#t		Qconv[W]	Ri[Rp]		R*[Rp]		Qc[W]		Qm[W]		Qr[W]		Tcmb[K]		Tl[K]		Tup[K]		RiFlag		Bs[T]
0.000000e+00	6.913899e+12	0.000000e+00	4.522614e-01	1.328523e+14	3.363603e+15	3.377814e+14	8.715297e+03	5.161939e+03	2.392124e+03	0	7.114960e-04
1.000000e+07	6.757275e+12	0.000000e+00	4.522614e-01	1.301025e+14	3.058765e+15	3.359098e+14	8.700390e+03	5.070226e+03	2.349623e+03	0	7.060823e-04
2.000000e+07	6.603518e+12	0.000000e+00	4.522614e-01	1.274030e+14	2.800162e+15	3.340523e+14	8.685789e+03	4.987767e+03	2.311410e+03	0	7.006857e-04
3.000000e+07	6.454079e+12	0.000000e+00	4.522614e-01	1.247792e+14	2.578654e+15	3.322086e+14	8.671490e+03	4.913178e+03	2.276844e+03	0	6.953597e-04
4.000000e+07	6.309753e+12	0.000000e+00	4.522614e-01	1.222449e+14	2.387270e+15	3.303787e+14	8.657484e+03	4.845341e+03	2.245407e+03	0	6.901374e-04
5.000000e+07	6.170922e+12	0.000000e+00	4.522614e-01	1.198067e+14	2.220613e+15	3.285624e+14	8.643761e+03	4.783343e+03	2.216677e+03	0	6.850382e-04
6.000000e+07	6.037706e+12	0.000000e+00	4.522614e-01	1.174668e+14	2.074457e+15	3.267597e+14	8.630311e+03	4.726434e+03	2.190304e+03	0	6.800729e-04
7.000000e+07	5.910064e+12	0.000000e+00	4.522614e-01	1.152243e+14	1.945451e+15	3.249704e+14	8.617122e+03	4.673989e+03	2.166000e+03	0	6.752462e-04
8.000000e+07	5.787852e+12	0.000000e+00	4.522614e-01	1.130768e+14	1.830909e+15	3.231944e+14	8.604184e+03	4.625484e+03	2.143522e+03	0	6.705594e-04
9.000000e+07	5.670871e+12	0.000000e+00	4.522614e-01	1.110207e+14	1.728662e+15	3.214316e+14	8.591486e+03	4.580474e+03	2.122664e+03	0	6.660109e-04
1.000000e+08	5.558885e+12	0.000000e+00	4.522614e-01	1.090520e+14	1.636936e+15	3.196819e+14	8.579018e+03	4.538582e+03	2.103250e+03	0	6.615977e-04
1.100000e+08	5.451646e+12	0.000000e+00	4.522614e-01	1.071663e+14	1.554272e+15	3.179452e+14	8.566771e+03	4.499484e+03	2.085132e+03	0	6.573157e-04
1.200000e+08	5.348904e+12	0.000000e+00	4.522614e-01	1.053593e+14	1.479459e+15	3.162213e+14	8.554734e+03	4.462900e+03	2.068178e+03	0	6.531602e-04
1.300000e+08	5.250408e+12	0.000000e+00	4.522614e-01	1.036265e+14	1.411486e+15	3.145103e+14	8.542899e+03	4.428588e+03	2.052278e+03	0	6.491262e-04
1.400000e+08	5.155918e+12	0.000000e+00	4.522614e-01	1.019638e+14	1.349504e+15	3.128119e+14	8.531259e+03	4.396337e+03	2.037332e+03	0	6.452086e-04
1.500000e+08	5.065205e+12	0.000000e+00	4.522614e-01	1.003671e+14	1.292791e+15	3.111260e+14	8.519804e+03	4.365959e+03	2.023254e+03	0	6.414022e-04
1.600000e+08	4.978049e+12	0.000000e+00	4.522614e-01	9.883269e+13	1.240736e+15	3.094526e+14	8.508529e+03	4.337292e+03	2.009970e+03	0	6.377021e-04
1.700000e+08	4.894246e+12	0.000000e+00	4.522614e-01	9.735691e+13	1.192814e+15	3.077915e+14	8.497425e+03	4.310192e+03	1.997411e+03	0	6.341033e-04
1.800000e+08	4.813601e+12	0.000000e+00	4.522614e-01	9.593640e+13	1.148575e+15	3.061427e+14	8.486486e+03	4.284530e+03	1.985519e+03	0	6.306012e-04
1.900000e+08	4.735935e+12	0.000000e+00	4.522614e-01	9.456801e+13	1.107628e+15	3.045060e+14	8.475707e+03	4.260191e+03	1.974240e+03	0	6.271913e-04
2.000000e+08	4.661079e+12	0.000000e+00	4.522614e-01	9.324877e+13	1.069636e+15	3.028814e+14	8.465080e+03	4.237073e+03	1.963527e+03	0	6.238693e-04
2.100000e+08	4.588874e+12	0.000000e+00	4.522614e-01	9.197595e+13	1.034303e+15	3.012687e+14	8.454602e+03	4.215085e+03	1.953337e+03	0	6.206310e-04
2.200000e+08	4.519174e+12	0.000000e+00	4.522614e-01	9.074697e+13	1.001371e+15	2.996679e+14	8.444266e+03	4.194142e+03	1.943632e+03	0	6.174728e-04
2.300000e+08	4.451842e+12	0.000000e+00	4.522614e-01	8.955943e+13	9.706135e+14	2.980788e+14	8.434068e+03	4.174172e+03	1.934377e+03	0	6.143908e-04
2.400000e+08	4.386750e+12	0.000000e+00	4.522614e-01	8.841111e+13	9.418303e+14	2.965014e+14	8.424003e+03	4.155106e+03	1.925542e+03	0	6.113817e-04
2.500000e+08	4.323780e+12	0.000000e+00	4.522614e-01	8.729993e+13	9.148446e+14	2.949355e+14	8.414066e+03	4.136882e+03	1.917096e+03	0	6.084422e-04
2.600000e+08	4.262819e+12	0.000000e+00	4.522614e-01	8.622395e+13	8.894991e+14	2.933811e+14	8.404254e+03	4.119445e+03	1.909016e+03	0	6.055692e-04
2.700000e+08	4.203765e+12	0.000000e+00	4.522614e-01	8.518135e+13	8.656540e+14	2.918380e+14	8.394563e+03	4.102743e+03	1.901276e+03	0	6.027598e-04
2.800000e+08	4.146521e+12	0.000000e+00	4.522614e-01	8.417045e+13	8.431845e+14	2.903062e+14	8.384988e+03	4.086731e+03	1.893855e+03	0	6.000113e-04
2.900000e+08	4.090997e+12	0.000000e+00	4.522614e-01	8.318967e+13	8.219788e+14	2.887856e+14	8.375527e+03	4.071364e+03	1.886735e+03	0	5.973211e-04
3.000000e+08	4.037107e+12	0.000000e+00	4.522614e-01	8.223753e+13	8.019364e+14	2.872761e+14	8.366175e+03	4.056605e+03	1.879895e+03	0	5.946867e-04
3.100000e+08	3.984774e+12	0.000000e+00	4.522614e-01	8.131265e+13	7.829671e+14	2.857776e+14	8.356931e+03	4.042417e+03	1.873320e+03	0	5.921058e-04
3.200000e+08	3.933923e+12	0.000000e+00	4.522614e-01	8.041373e+13	7.649893e+14	2.842899e+14	8.347790e+03	4.028766e+03	1.866994e+03	0	5.895764e-04
3.300000e+08	3.884484e+12	0.000000e+00	4.522614e-01	7.953957e+13	7.479295e+14	2.828131e+14	8.338750e+03	4.015623e+03	1.860903e+03	0	5.870961e-04
3.400000e+08	3.836393e+12	0.000000e+00	4.522614e-01	7.868903e+13	7.317206e+14	2.813470e+14	8.329808e+03	4.002957e+03	1.855034e+03	0	5.846633e-04
3.500000e+08	3.789588e+12	0.000000e+00	4.522614e-01	7.786104e+13	7.163023e+14	2.798916e+14	8.320961e+03	3.990744e+03	1.849374e+03	0	5.822759e-04
3.600000e+08	3.744013e+12	0.000000e+00	4.522614e-01	7.705459e+13	7.016191e+14	2.784467e+14	8.312207e+03	3.978959e+03	1.843912e+03	0	5.799322e-04
3.700000e+08	3.699613e+12	0.000000e+00	4.522614e-01	7.626875e+13	6.876209e+14	2.770123e+14	8.303544e+03	3.967578e+03	1.838638e+03	0	5.776306e-04
3.800000e+08	3.656338e+12	0.000000e+00	4.522614e-01	7.550263e+13	6.742617e+14	2.755882e+14	8.294968e+03	3.956582e+03	1.833542e+03	0	5.753696e-04
3.900000e+08	3.614139e+12	0.000000e+00	4.522614e-01	7.475539e+13	6.614993e+14	2.741745e+14	8.286479e+03	3.945949e+03	1.828615e+03	0	5.731475e-04
4.000000e+08	3.572972e+12	0.000000e+00	4.522614e-01	7.402624e+13	6.492954e+14	2.727709e+14	8.278073e+03	3.935663e+03	1.823848e+03	0	5.709630e-04
4.100000e+08	3.532795e+12	0.000000e+00	4.522614e-01	7.331444e+13	6.376143e+14	2.713775e+14	8.269749e+03	3.925705e+03	1.819234e+03	0	5.688148e-04
4.200000e+08	3.493566e+12	0.000000e+00	4.522614e-01	7.261930e+13	6.264237e+14	2.699941e+14	8.261505e+03	3.916060e+03	1.814764e+03	0	5.667016e-04
4.300000e+08	3.455249e+12	0.000000e+00	4.522614e-01	7.194013e+13	6.156935e+14	2.686207e+14	8.253339e+03	3.906712e+03	1.810432e+03	0	5.646221e-04
4.400000e+08	3.417807e+12	0.000000e+00	4.522614e-01	7.127633e+13	6.053960e+14	2.672572e+14	8.245250e+03	3.897648e+03	1.806232e+03	0	5.625753e-04
4.500000e+08	3.381207e+12	0.000000e+00	4.522614e-01	7.062729e+13	5.955058e+14	2.659034e+14	8.237234e+03	3.888854e+03	1.802156e+03	0	5.605599e-04
4.600000e+08	3.345416e+12	0.000000e+00	4.522614e-01	6.999246e+13	5.859992e+14	2.645594e+14	8.229292e+03	3.880318e+03	1.798201e+03	0	5.585750e-04
4.700000e+08	3.310404e+12	0.000000e+00	4.522614e-01	6.937130e+13	5.768542e+14	2.632250e+14	8.221420e+03	3.872028e+03	1.794359e+03	0	5.566196e-04
4.800000e+08	3.276142e+12	0.000000e+00	4.522614e-01	6.876330e+13	5.680506e+14	2.619002e+14	8.213619e+03	3.863973e+03	1.790626e+03	0	5.546926e-04
4.900000e+08	3.242603e+12	0.000000e+00	4.522614e-01	6.816799e+13	5.595696e+14	2.605849e+14	8.205885e+03	3.856144e+03	1.786998e+03	0	5.527932e-04
5.000000e+08	3.209760e+12	0.000000e+00	4.522614e-01	6.758492e+13	5.513936e+14	2.592789e+14	8.198219e+03	3.848529e+03	1.783469e+03	0	5.509206e-04
5.100000e+08	3.177590e+12	0.000000e+00	4.522614e-01	6.701364e+13	5.435063e+14	2.579823e+14	8.190617e+03	3.841120e+03	1.780036e+03	0	5.490738e-04
5.200000e+08	3.146067e+12	0.000000e+00	4.522614e-01	6.645375e+13	5.358925e+14	2.566950e+14	8.183080e+03	3.833908e+03	1.776694e+03	0	5.472521e-04
5.300000e+08	3.115171e+12	0.000000e+00	4.522614e-01	6.590486e+13	5.285380e+14	2.554168e+14	8.175606e+03	3.826885e+03	1.773439e+03	0	5.454548e-04
5.400000e+08	3.084880e+12	0.000000e+00	4.522614e-01	6.536659e+13	5.214297e+14	2.541478e+14	8.168193e+03	3.820044e+03	1.770269e+03	0	5.436811e-04
5.500000e+08	3.055173e+12	0.000000e+00	4.522614e-01	6.483859e+13	5.145550e+14	2.528877e+14	8.160841e+03	3.813376e+03	1.767179e+03	0	5.419303e-04
5.600000e+08	3.026032e+12	0.000000e+00	4.522614e-01	6.432053e+13	5.079024e+14	2.516366e+14	8.153548e+03	3.806875e+03	1.764166e+03	0	5.402017e-04
5.700000e+08	2.997437e+12	0.000000e+00	4.522614e-01	6.381207e+13	5.014611e+14	2.503945e+14	8.146313e+03	3.800534e+03	1.761227e+03	0	5.384947e-04
5.800000e+08	2.969371e+12	0.000000e+00	4.522614e-01	6.331290e+13	4.952209e+14	2.491611e+14	8.139135e+03	3.794346e+03	1.758360e+03	0	5.368088e-04
5.900000e+08	2.941817e+12	0.000000e+00	4.522614e-01	6.282275e+13	4.891723e+14	2.479364e+14	8.132013e+03	3.788307e+03	1.755561e+03	0	5.351432e-04
6.000000e+08	2.914760e+12	0.000000e+00	4.522614e-01	6.234131e+13	4.833062e+14	2.467205e+14	8.124947e+03	3.782410e+03	1.752829e+03	0	5.334975e-04
6.100000e+08	2.888184e+12	0.000000e+00	4.522614e-01	6.186833e+13	4.776143e+14	2.455131e+14	8.117934e+03	3.776650e+03	1.750159e+03	0	5.318711e-04
6.200000e+08	2.862073e+12	0.000000e+00	4.522614e-01	6.140355e+13	4.720886e+14	2.443143e+14	8.110974e+03	3.771021e+03	1.747551e+03	0	5.302635e-04
6.300000e+08	2.836415e+12	0.000000e+00	4.522614e-01	6.094672e+13	4.667217e+14	2.431239e+14	8.104067e+03	3.765519e+03	1.745001e+03	0	5.286741e-04
6.400000e+08	2.811196e+12	0.000000e+00	4.522614e-01	6.049760e+13	4.615065e+14	2.419419e+14	8.097211e+03	3.760140e+03	1.742508e+03	0	5.271026e-04
6.500000e+08	2.786402e+12	0.000000e+00	4.522614e-01	6.005597e+13	4.564365e+14	2.407683e+14	8.090405e+03	3.754878e+03	1.740070e+03	0	5.255484e-04
6.600000e+08	2.762022e+12	0.000000e+00	4.522614e-01	5.962161e+13	4.515052e+14	2.396029e+14	8.083649e+03	3.749730e+03	1.737684e+03	0	5.240111e-04
6.700000e+08	2.738043e+12	0.000000e+00	4.522614e-01	5.919432e+13	4.467069e+14	2.384457e+14	8.076941e+03	3.744691e+03	1.735349e+03	0	5.224903e-04
6.800000e+08	2.714454e+12	0.000000e+00	4.522614e-01	5.877389e+13	4.420359e+14	2.372966e+14	8.070282e+03	3.739758e+03	1.733063e+03	0	5.209855e-04
6.900000e+08	2.691244e+12	0.000000e+00	4.522614e-01	5.836014e+13	4.374870e+14	2.361556e+14	8.063670e+03	3.734926e+03	1.730824e+03	0	5.194964e-04
7.000000e+08	2.668404e+12	0.000000e+00	4.522614e-01	5.795288e+13	4.330551e+14	2.350226e+14	8.057104e+03	3.730194e+03	1.728631e+03	0	5.180225e-04
7.100000e+08	2.645922e+12	0.000000e+00	4.522614e-01	5.755193e+13	4.287355e+14	2.338975e+14	8.050584e+03	3.725556e+03	1.726481e+03	0	5.165636e-04
7.200000e+08	2.623789e+12	0.000000e+00	4.522614e-01	5.715713e+13	4.245238e+14	2.327803e+14	8.044109e+03	3.721010e+03	1.724375e+03	0	5.151192e-04
7.300000e+08	2.601995e+12	0.000000e+00	4.522614e-01	5.676830e+13	4.204156e+14	2.316709e+14	8.037678e+03	3.716553e+03	1.722309e+03	0	5.136890e-04
7.400000e+08	2.580533e+12	0.000000e+00	4.522614e-01	5.638530e+13	4.164069e+14	2.305693e+14	8.031291e+03	3.712182e+03	1.720284e+03	0	5.122727e-04
7.500000e+08	2.559392e+12	0.000000e+00	4.522614e-01	5.600797e+13	4.124939e+14	2.294753e+14	8.024947e+03	3.707894e+03	1.718296e+03	0	5.108700e-04
7.600000e+08	2.538565e+12	0.000000e+00	4.522614e-01	5.563617e+13	4.086729e+14	2.283889e+14	8.018645e+03	3.703686e+03	1.716346e+03	0	5.094805e-04
7.700000e+08	2.518044e+12	0.000000e+00	4.522614e-01	5.526976e+13	4.049405e+14	2.273101e+14	8.012385e+03	3.699556e+03	1.714433e+03	0	5.081040e-04
7.800000e+08	2.497821e+12	0.000000e+00	4.522614e-01	5.490860e+13	4.012934e+14	2.262388e+14	8.006166e+03	3.695501e+03	1.712553e+03	0	5.067401e-04
7.900000e+08	2.477889e+12	0.000000e+00	4.522614e-01	5.455256e+13	3.977284e+14	2.251750e+14	7.999988e+03	3.691519e+03	1.710708e+03	0	5.053886e-04
8.000000e+08	2.458241e+12	0.000000e+00	4.522614e-01	5.420152e+13	3.942426e+14	2.241185e+14	7.993850e+03	3.687608e+03	1.708896e+03	0	5.040492e-04
8.100000e+08	2.438869e+12	0.000000e+00	4.522614e-01	5.385535e+13	3.908330e+14	2.230693e+14	7.987751e+03	3.683765e+03	1.707115e+03	0	5.027217e-04
8.200000e+08	2.419767e+12	0.000000e+00	4.522614e-01	5.351394e+13	3.874971e+14	2.220274e+14	7.981691e+03	3.679989e+03	1.705365e+03	0	5.014057e-04
8.300000e+08	2.400928e+12	0.000000e+00	4.522614e-01	5.317717e+13	3.842323e+14	2.209927e+14	7.975669e+03	3.676277e+03	1.703645e+03	0	5.001011e-04
8.400000e+08	2.382347e+12	0.000000e+00	4.522614e-01	5.284495e+13	3.810359e+14	2.199652e+14	7.969686e+03	3.672627e+03	1.701953e+03	0	4.988077e-04
8.500000e+08	2.364017e+12	0.000000e+00	4.522614e-01	5.251715e+13	3.779058e+14	2.189447e+14	7.963739e+03	3.669038e+03	1.700290e+03	0	4.975251e-04
8.600000e+08	2.345932e+12	0.000000e+00	4.522614e-01	5.219368e+13	3.748396e+14	2.179313e+14	7.957830e+03	3.665507e+03	1.698654e+03	0	4.962532e-04
8.700000e+08	2.328088e+12	0.000000e+00	4.522614e-01	5.187445e+13	3.718352e+14	2.169249e+14	7.951956e+03	3.662034e+03	1.697044e+03	0	4.949917e-04
8.800000e+08	2.310478e+12	0.000000e+00	4.522614e-01	5.155935e+13	3.688906e+14	2.159253e+14	7.946119e+03	3.658616e+03	1.695460e+03	0	4.937405e-04
8.900000e+08	2.293097e+12	0.000000e+00	4.522614e-01	5.124829e+13	3.660038e+14	2.149327e+14	7.940317e+03	3.655251e+03	1.693901e+03	0	4.924993e-04
9.000000e+08	2.275940e+12	0.000000e+00	4.522614e-01	5.094119e+13	3.631729e+14	2.139468e+14	7.934550e+03	3.651939e+03	1.692366e+03	0	4.912679e-04
9.100000e+08	2.259003e+12	0.000000e+00	4.522614e-01	5.063796e+13	3.603961e+14	2.129677e+14	7.928817e+03	3.648678e+03	1.690855e+03	0	4.900462e-04
9.200000e+08	2.242280e+12	0.000000e+00	4.522614e-01	5.033851e+13	3.576717e+14	2.119954e+14	7.923118e+03	3.645465e+03	1.689366e+03	0	4.888340e-04
9.300000e+08	2.225767e+12	0.000000e+00	4.522614e-01	5.004277e+13	3.549980e+14	2.110296e+14	7.917453e+03	3.642301e+03	1.687900e+03	0	4.876310e-04
9.400000e+08	2.209459e+12	0.000000e+00	4.522614e-01	4.975065e+13	3.523735e+14	2.100705e+14	7.911822e+03	3.639183e+03	1.686455e+03	0	4.864372e-04
9.500000e+08	2.193352e+12	0.000000e+00	4.522614e-01	4.946208e+13	3.497967e+14	2.091179e+14	7.906223e+03	3.636111e+03	1.685031e+03	0	4.852523e-04
9.600000e+08	2.177443e+12	0.000000e+00	4.522614e-01	4.917699e+13	3.472660e+14	2.081718e+14	7.900656e+03	3.633083e+03	1.683628e+03	0	4.840762e-04
9.700000e+08	2.161726e+12	0.000000e+00	4.522614e-01	4.889530e+13	3.447802e+14	2.072322e+14	7.895122e+03	3.630097e+03	1.682244e+03	0	4.829087e-04
9.800000e+08	2.146198e+12	0.000000e+00	4.522614e-01	4.861695e+13	3.423378e+14	2.062989e+14	7.889619e+03	3.627153e+03	1.680880e+03	0	4.817496e-04
9.900000e+08	2.130855e+12	0.000000e+00	4.522614e-01	4.834187e+13	3.399376e+14	2.053720e+14	7.884148e+03	3.624250e+03	1.679535e+03	0	4.805989e-04
1.000000e+09	2.115694e+12	0.000000e+00	4.522614e-01	4.806999e+13	3.375784e+14	2.044514e+14	7.878707e+03	3.621386e+03	1.678208e+03	0	4.794563e-04
1.010000e+09	2.100710e+12	0.000000e+00	4.522614e-01	4.780125e+13	3.352589e+14	2.035370e+14	7.873297e+03	3.618561e+03	1.676898e+03	0	4.783218e-04
1.020000e+09	2.085900e+12	0.000000e+00	4.522614e-01	4.753559e+13	3.329781e+14	2.026288e+14	7.867917e+03	3.615774e+03	1.675607e+03	0	4.771951e-04
1.030000e+09	2.071261e+12	0.000000e+00	4.522614e-01	4.727295e+13	3.307348e+14	2.017268e+14	7.862567e+03	3.613023e+03	1.674332e+03	0	4.760761e-04
1.040000e+09	2.056790e+12	0.000000e+00	4.522614e-01	4.701327e+13	3.285279e+14	2.008309e+14	7.857246e+03	3.610307e+03	1.673073e+03	0	4.749648e-04
1.050000e+09	2.042483e+12	0.000000e+00	4.522614e-01	4.675649e+13	3.263566e+14	1.999410e+14	7.851955e+03	3.607627e+03	1.671831e+03	0	4.738610e-04
1.060000e+09	2.028338e+12	0.000000e+00	4.522614e-01	4.650256e+13	3.242197e+14	1.990571e+14	7.846692e+03	3.604980e+03	1.670605e+03	0	4.727645e-04
1.070000e+09	2.014350e+12	0.000000e+00	4.522614e-01	4.625143e+13	3.221164e+14	1.981792e+14	7.841458e+03	3.602366e+03	1.669393e+03	0	4.716753e-04
1.080000e+09	2.000518e+12	0.000000e+00	4.522614e-01	4.600305e+13	3.200457e+14	1.973072e+14	7.836253e+03	3.599784e+03	1.668197e+03	0	4.705931e-04
1.090000e+09	1.986838e+12	0.000000e+00	4.522614e-01	4.575735e+13	3.180067e+14	1.964410e+14	7.831075e+03	3.597234e+03	1.667015e+03	0	4.695180e-04
1.100000e+09	1.973307e+12	0.000000e+00	4.522614e-01	4.551430e+13	3.159988e+14	1.955806e+14	7.825925e+03	3.594714e+03	1.665847e+03	0	4.684498e-04
1.110000e+09	1.959924e+12	0.000000e+00	4.522614e-01	4.527385e+13	3.140209e+14	1.947261e+14	7.820802e+03	3.592225e+03	1.664694e+03	0	4.673883e-04
1.120000e+09	1.946684e+12	0.000000e+00	4.522614e-01	4.503595e+13	3.120724e+14	1.938772e+14	7.815706e+03	3.589764e+03	1.663553e+03	0	4.663335e-04
1.130000e+09	1.933587e+12	0.000000e+00	4.522614e-01	4.480056e+13	3.101524e+14	1.930341e+14	7.810637e+03	3.587332e+03	1.662426e+03	0	4.652853e-04
1.140000e+09	1.920628e+12	0.000000e+00	4.522614e-01	4.456762e+13	3.082604e+14	1.921965e+14	7.805594e+03	3.584927e+03	1.661312e+03	0	4.642435e-04
1.150000e+09	1.907806e+12	0.000000e+00	4.522614e-01	4.433710e+13	3.063955e+14	1.913646e+14	7.800577e+03	3.582550e+03	1.660210e+03	0	4.632081e-04
1.160000e+09	1.895118e+12	0.000000e+00	4.522614e-01	4.410896e+13	3.045570e+14	1.905382e+14	7.795587e+03	3.580200e+03	1.659121e+03	0	4.621790e-04
1.170000e+09	1.882563e+12	0.000000e+00	4.522614e-01	4.388316e+13	3.027444e+14	1.897173e+14	7.790622e+03	3.577875e+03	1.658044e+03	0	4.611561e-04
1.180000e+09	1.870136e+12	0.000000e+00	4.522614e-01	4.365965e+13	3.009570e+14	1.889019e+14	7.785682e+03	3.575576e+03	1.656978e+03	0	4.601392e-04
1.190000e+09	1.857838e+12	0.000000e+00	4.522614e-01	4.343840e+13	2.991942e+14	1.880919e+14	7.780767e+03	3.573301e+03	1.655924e+03	0	4.591283e-04
1.200000e+09	1.845665e+12	0.000000e+00	4.522614e-01	4.321936e+13	2.974554e+14	1.872873e+14	7.775878e+03	3.571050e+03	1.654881e+03	0	4.581233e-04
1.210000e+09	1.833615e+12	0.000000e+00	4.522614e-01	4.300251e+13	2.957400e+14	1.864880e+14	7.771013e+03	3.568824e+03	1.653849e+03	0	4.571241e-04
1.220000e+09	1.821686e+12	0.000000e+00	4.522614e-01	4.278781e+13	2.940475e+14	1.856940e+14	7.766172e+03	3.566620e+03	1.652828e+03	0	4.561307e-04
1.230000e+09	1.809877e+12	0.000000e+00	4.522614e-01	4.257521e+13	2.923774e+14	1.849052e+14	7.761356e+03	3.564439e+03	1.651817e+03	0	4.551429e-04
1.240000e+09	1.798184e+12	0.000000e+00	4.522614e-01	4.236470e+13	2.907290e+14	1.841217e+14	7.756563e+03	3.562280e+03	1.650817e+03	0	4.541607e-04
1.250000e+09	1.786607e+12	0.000000e+00	4.522614e-01	4.215623e+13	2.891020e+14	1.833433e+14	7.751794e+03	3.560142e+03	1.649826e+03	0	4.531839e-04
1.260000e+09	1.775144e+12	0.000000e+00	4.522614e-01	4.194976e+13	2.874958e+14	1.825701e+14	7.747048e+03	3.558026e+03	1.648846e+03	0	4.522126e-04
1.270000e+09	1.763792e+12	0.000000e+00	4.522614e-01	4.174528e+13	2.859100e+14	1.818020e+14	7.742326e+03	3.555931e+03	1.647875e+03	0	4.512466e-04
1.280000e+09	1.752550e+12	0.000000e+00	4.522614e-01	4.154274e+13	2.843441e+14	1.810389e+14	7.737627e+03	3.553856e+03	1.646913e+03	0	4.502858e-04
1.290000e+09	1.741417e+12	0.000000e+00	4.522614e-01	4.134213e+13	2.827977e+14	1.802809e+14	7.732950e+03	3.551801e+03	1.645960e+03	0	4.493303e-04
1.300000e+09	1.730390e+12	0.000000e+00	4.522614e-01	4.114340e+13	2.812704e+14	1.795278e+14	7.728296e+03	3.549765e+03	1.645017e+03	0	4.483799e-04
1.310000e+09	1.719468e+12	0.000000e+00	4.522614e-01	4.094652e+13	2.797617e+14	1.787796e+14	7.723664e+03	3.547748e+03	1.644082e+03	0	4.474345e-04
1.320000e+09	1.708649e+12	0.000000e+00	4.522614e-01	4.075148e+13	2.782712e+14	1.780364e+14	7.719055e+03	3.545750e+03	1.643156e+03	0	4.464941e-04
1.330000e+09	1.697931e+12	0.000000e+00	4.522614e-01	4.055824e+13	2.767986e+14	1.772980e+14	7.714467e+03	3.543770e+03	1.642239e+03	0	4.455586e-04
1.340000e+09	1.687314e+12	0.000000e+00	4.522614e-01	4.036678e+13	2.753435e+14	1.765644e+14	7.709901e+03	3.541808e+03	1.641330e+03	0	4.446280e-04
1.350000e+09	1.676796e+12	0.000000e+00	4.522614e-01	4.017706e+13	2.739055e+14	1.758356e+14	7.705357e+03	3.539864e+03	1.640429e+03	0	4.437021e-04
1.360000e+09	1.666374e+12	0.000000e+00	4.522614e-01	3.998907e+13	2.724843e+14	1.751116e+14	7.700834e+03	3.537936e+03	1.639536e+03	0	4.427810e-04
