#t		Qconv[W]	Ri[Rp]		R*[Rp]		Qc[W]		Qm[W]		Qr[W]		Tcmb[K]		Tl[K]		Tup[K]		RiFlag		Bs[T]
0.000000e+00	8.434735e+12	0.000000e+00	4.472361e-01	1.567439e+14	3.541154e+15	3.683373e+14	9.293541e+03	5.439254e+03	2.427456e+03	0	7.631071e-04
1.000000e+07	8.243180e+12	0.000000e+00	4.472361e-01	1.535085e+14	3.239606e+15	3.662964e+14	9.277086e+03	5.349804e+03	2.387535e+03	0	7.572860e-04
2.000000e+07	8.056333e+12	0.000000e+00	4.472361e-01	1.503526e+14	2.981437e+15	3.642708e+14	9.260970e+03	5.268911e+03	2.351434e+03	0	7.515204e-04
3.000000e+07	7.875371e+12	0.000000e+00	4.472361e-01	1.472957e+14	2.758479e+15	3.622604e+14	9.245182e+03	5.195356e+03	2.318608e+03	0	7.458509e-04
4.000000e+07	7.700905e+12	0.000000e+00	4.472361e-01	1.443481e+14	2.564412e+15	3.602649e+14	9.229715e+03	5.128146e+03	2.288613e+03	0	7.403020e-04
5.000000e+07	7.533185e+12	0.000000e+00	4.472361e-01	1.415140e+14	2.394288e+15	3.582844e+14	9.214555e+03	5.066461e+03	2.261084e+03	0	7.348881e-04
6.000000e+07	7.372233e+12	0.000000e+00	4.472361e-01	1.387938e+14	2.244184e+15	3.563186e+14	9.199692e+03	5.009622e+03	2.235717e+03	0	7.296166e-04
7.000000e+07	7.217927e+12	0.000000e+00	4.472361e-01	1.361853e+14	2.110960e+15	3.543674e+14	9.185113e+03	4.957057e+03	2.212258e+03	0	7.244901e-04
8.000000e+07	7.070056e+12	0.000000e+00	4.472361e-01	1.336851e+14	1.992076e+15	3.524308e+14	9.170807e+03	4.908284e+03	2.190492e+03	0	7.195085e-04
9.000000e+07	6.928362e+12	0.000000e+00	4.472361e-01	1.312887e+14	1.885458e+15	3.505085e+14	9.156762e+03	4.862892e+03	2.170234e+03	0	7.146694e-04
1.000000e+08	6.792558e+12	0.000000e+00	4.472361e-01	1.289914e+14	1.789403e+15	3.486005e+14	9.142968e+03	4.820528e+03	2.151328e+03	0	7.099691e-04
1.100000e+08	6.662349e+12	0.000000e+00	4.472361e-01	1.267882e+14	1.702496e+15	3.467067e+14	9.129415e+03	4.780890e+03	2.133638e+03	0	7.054033e-04
1.200000e+08	6.537440e+12	0.000000e+00	4.472361e-01	1.246742e+14	1.623555e+15	3.448269e+14	9.116092e+03	4.743712e+03	2.117046e+03	0	7.009670e-04
1.300000e+08	6.417540e+12	0.000000e+00	4.472361e-01	1.226444e+14	1.551589e+15	3.429611e+14	9.102991e+03	4.708766e+03	2.101450e+03	0	6.966551e-04
1.400000e+08	6.302370e+12	0.000000e+00	4.472361e-01	1.206941e+14	1.485758e+15	3.411090e+14	9.090102e+03	4.675849e+03	2.086760e+03	0	6.924626e-04
1.500000e+08	6.191666e+12	0.000000e+00	4.472361e-01	1.188190e+14	1.425346e+15	3.392706e+14	9.077417e+03	4.644785e+03	2.072896e+03	0	6.883841e-04
1.600000e+08	6.085174e+12	0.000000e+00	4.472361e-01	1.170148e+14	1.369743e+15	3.374459e+14	9.064929e+03	4.615416e+03	2.059789e+03	0	6.844147e-04
1.700000e+08	5.982658e+12	0.000000e+00	4.472361e-01	1.152775e+14	1.318422e+15	3.356345e+14	9.052630e+03	4.587604e+03	2.047377e+03	0	6.805495e-04
1.800000e+08	5.883895e+12	0.000000e+00	4.472361e-01	1.136033e+14	1.270930e+15	3.338366e+14	9.040512e+03	4.561223e+03	2.035604e+03	0	6.767838e-04
1.900000e+08	5.788676e+12	0.000000e+00	4.472361e-01	1.119888e+14	1.226872e+15	3.320518e+14	9.028570e+03	4.536164e+03	2.024420e+03	0	6.731132e-04
2.000000e+08	5.696805e+12	0.000000e+00	4.472361e-01	1.104306e+14	1.185905e+15	3.302803e+14	9.016797e+03	4.512327e+03	2.013782e+03	0	6.695332e-04
2.100000e+08	5.608100e+12	0.000000e+00	4.472361e-01	1.089257e+14	1.147729e+15	3.285217e+14	9.005188e+03	4.489622e+03	2.003649e+03	0	6.660399e-04
2.200000e+08	5.522391e+12	0.000000e+00	4.472361e-01	1.074712e+14	1.112078e+15	3.267760e+14	8.993736e+03	4.467967e+03	1.993985e+03	0	6.626294e-04
2.300000e+08	5.439517e+12	0.000000e+00	4.472361e-01	1.060645e+14	1.078720e+15	3.250432e+14	8.982436e+03	4.447291e+03	1.984758e+03	0	6.592980e-04
2.400000e+08	5.359331e+12	0.000000e+00	4.472361e-01	1.047030e+14	1.047450e+15	3.233231e+14	8.971284e+03	4.427526e+03	1.975937e+03	0	6.560423e-04
2.500000e+08	5.281694e+12	0.000000e+00	4.472361e-01	1.033845e+14	1.018085e+15	3.216155e+14	8.960275e+03	4.408611e+03	1.967496e+03	0	6.528590e-04
2.600000e+08	5.206476e+12	0.000000e+00	4.472361e-01	1.021067e+14	9.904609e+14	3.199205e+14	8.949404e+03	4.390493e+03	1.959409e+03	0	6.497450e-04
2.700000e+08	5.133555e+12	0.000000e+00	4.472361e-01	1.008676e+14	9.644339e+14	3.182379e+14	8.938667e+03	4.373119e+03	1.951656e+03	0	6.466973e-04
2.800000e+08	5.062819e+12	0.000000e+00	4.472361e-01	9.966530e+13	9.398737e+14	3.165675e+14	8.928060e+03	4.356444e+03	1.944214e+03	0	6.437133e-04
2.900000e+08	4.994160e+12	0.000000e+00	4.472361e-01	9.849802e+13	9.166636e+14	3.149093e+14	8.917579e+03	4.340426e+03	1.937065e+03	0	6.407901e-04
3.000000e+08	4.927481e+12	0.000000e+00	4.472361e-01	9.736408e+13	8.946985e+14	3.132633e+14	8.907220e+03	4.325025e+03	1.930192e+03	0	6.379255e-04
3.100000e+08	4.862688e+12	0.000000e+00	4.472361e-01	9.626191e+13	8.738838e+14	3.116292e+14	8.896980e+03	4.310206e+03	1.923579e+03	0	6.351171e-04
3.200000e+08	4.799693e+12	0.000000e+00	4.472361e-01	9.519006e+13	8.541338e+14	3.100070e+14	8.886856e+03	4.295934e+03	1.917210e+03	0	6.323625e-04
3.300000e+08	4.738414e+12	0.000000e+00	4.472361e-01	9.414714e+13	8.353711e+14	3.083966e+14	8.876844e+03	4.282180e+03	1.911071e+03	0	6.296598e-04
3.400000e+08	4.678775e+12	0.000000e+00	4.472361e-01	9.313186e+13	8.175251e+14	3.067979e+14	8.866942e+03	4.268916e+03	1.905151e+03	0	6.270070e-04
3.500000e+08	4.620702e+12	0.000000e+00	4.472361e-01	9.214300e+13	8.005318e+14	3.052108e+14	8.857146e+03	4.256113e+03	1.899438e+03	0	6.244021e-04
3.600000e+08	4.564129e+12	0.000000e+00	4.472361e-01	9.117941e+13	7.843327e+14	3.036352e+14	8.847454e+03	4.243749e+03	1.893920e+03	0	6.218433e-04
3.700000e+08	4.508991e+12	0.000000e+00	4.472361e-01	9.024002e+13	7.688746e+14	3.020710e+14	8.837863e+03	4.231800e+03	1.888587e+03	0	6.193290e-04
3.800000e+08	4.455226e+12	0.000000e+00	4.472361e-01	8.932381e+13	7.541085e+14	3.005181e+14	8.828370e+03	4.220245e+03	1.883431e+03	0	6.168576e-04
3.900000e+08	4.402779e+12	0.000000e+00	4.472361e-01	8.842982e+13	7.399898e+14	2.989765e+14	8.818974e+03	4.209064e+03	1.878441e+03	0	6.144275e-04
4.000000e+08	4.351596e+12	0.000000e+00	4.472361e-01	8.755715e+13	7.264773e+14	2.974459e+14	8.809671e+03	4.198239e+03	1.873610e+03	0	6.120373e-04
4.100000e+08	4.301625e+12	0.000000e+00	4.472361e-01	8.670494e+13	7.135333e+14	2.959265e+14	8.800460e+03	4.187752e+03	1.868929e+03	0	6.096855e-04
4.200000e+08	4.252819e+12	0.000000e+00	4.472361e-01	8.587238e+13	7.011230e+14	2.944179e+14	8.791338e+03	4.177587e+03	1.864393e+03	0	6.073709e-04
4.300000e+08	4.205133e+12	0.000000e+00	4.472361e-01	8.505872e+13	6.892143e+14	2.929203e+14	8.782304e+03	4.167729e+03	1.859993e+03	0	6.050922e-04
4.400000e+08	4.158522e+12	0.000000e+00	4.472361e-01	8.426321e+13	6.777776e+14	2.914334e+14	8.773355e+03	4.158163e+03	1.855724e+03	0	6.028482e-04
4.500000e+08	4.112947e+12	0.000000e+00	4.472361e-01	8.348519e+13	6.667855e+14	2.899572e+14	8.764490e+03	4.148876e+03	1.851580e+03	0	6.006378e-04
4.600000e+08	4.068368e+12	0.000000e+00	4.472361e-01	8.272399e+13	6.562126e+14	2.884916e+14	8.755706e+03	4.139856e+03	1.847554e+03	0	5.984599e-04
4.700000e+08	4.024750e+12	0.000000e+00	4.472361e-01	8.197901e+13	6.460353e+14	2.870365e+14	8.747002e+03	4.131091e+03	1.843643e+03	0	5.963135e-04
4.800000e+08	3.982056e+12	0.000000e+00	4.472361e-01	8.124965e+13	6.362319e+14	2.855918e+14	8.738377e+03	4.122569e+03	1.839839e+03	0	5.941975e-04
4.900000e+08	3.940255e+12	0.000000e+00	4.472361e-01	8.053536e+13	6.267819e+14	2.841575e+14	8.729827e+03	4.114280e+03	1.836140e+03	0	5.921110e-04
5.000000e+08	3.899315e+12	0.000000e+00	4.472361e-01	7.983561e+13	6.176664e+14	2.827335e+14	8.721353e+03	4.106214e+03	1.832540e+03	0	5.900531e-04
5.100000e+08	3.859205e+12	0.000000e+00	4.472361e-01	7.914989e+13	6.088679e+14	2.813196e+14	8.712953e+03	4.098362e+03	1.829036e+03	0	5.880230e-04
5.200000e+08	3.819898e+12	0.000000e+00	4.472361e-01	7.847773e+13	6.003699e+14	2.799158e+14	8.704624e+03	4.090714e+03	1.825623e+03	0	5.860198e-04
5.300000e+08	3.781366e+12	0.000000e+00	4.472361e-01	7.781867e+13	5.921571e+14	2.785220e+14	8.696366e+03	4.083263e+03	1.822298e+03	0	5.840427e-04
5.400000e+08	3.743583e+12	0.000000e+00	4.472361e-01	7.717228e+13	5.842151e+14	2.771381e+14	8.688177e+03	4.076000e+03	1.819056e+03	0	5.820909e-04
5.500000e+08	3.706525e+12	0.000000e+00	4.472361e-01	7.653813e+13	5.765305e+14	2.757641e+14	8.680056e+03	4.068918e+03	1.815895e+03	0	5.801638e-04
5.600000e+08	3.670168e+12	0.000000e+00	4.472361e-01	7.591584e+13	5.690906e+14	2.743999e+14	8.672001e+03	4.062009e+03	1.812812e+03	0	5.782607e-04
5.700000e+08	3.634490e+12	0.000000e+00	4.472361e-01	7.530502e+13	5.618838e+14	2.730453e+14	8.664012e+03	4.055267e+03	1.809803e+03	0	5.763808e-04
5.800000e+08	3.599469e+12	0.000000e+00	4.472361e-01	7.470532e+13	5.548990e+14	2.717003e+14	8.656087e+03	4.048686e+03	1.806866e+03	0	5.745235e-04
5.900000e+08	3.565085e+12	0.000000e+00	4.472361e-01	7.411638e+13	5.481257e+14	2.703649e+14	8.648225e+03	4.042258e+03	1.803998e+03	0	5.726883e-04
6.000000e+08	3.531317e+12	0.000000e+00	4.472361e-01	7.353788e+13	5.415543e+14	2.690390e+14	8.640425e+03	4.035980e+03	1.801196e+03	0	5.708744e-04
6.100000e+08	3.498149e+12	0.000000e+00	4.472361e-01	7.296950e+13	5.351755e+14	2.677224e+14	8.632685e+03	4.029844e+03	1.798457e+03	0	5.690814e-04
6.200000e+08	3.465560e+12	0.000000e+00	4.472361e-01	7.241094e+13	5.289806e+14	2.664151e+14	8.625006e+03	4.023845e+03	1.795780e+03	0	5.673087e-04
6.300000e+08	3.433535e+12	0.000000e+00	4.472361e-01	7.186191e+13	5.229616e+14	2.651171e+14	8.617384e+03	4.017980e+03	1.793163e+03	0	5.655558e-04
6.400000e+08	3.402056e+12	0.000000e+00	4.472361e-01	7.132213e+13	5.171107e+14	2.638282e+14	8.609821e+03	4.012242e+03	1.790602e+03	0	5.638222e-04
6.500000e+08	3.371108e+12	0.000000e+00	4.472361e-01	7.079134e+13	5.114207e+14	2.625483e+14	8.602314e+03	4.006627e+03	1.788096e+03	0	5.621073e-04
6.600000e+08	3.340676e+12	0.000000e+00	4.472361e-01	7.026927e+13	5.058847e+14	2.612775e+14	8.594863e+03	4.001132e+03	1.785644e+03	0	5.604107e-04
6.700000e+08	3.310744e+12	0.000000e+00	4.472361e-01	6.975568e+13	5.004963e+14	2.600157e+14	8.587467e+03	3.995751e+03	1.783242e+03	0	5.587320e-04
6.800000e+08	3.281300e+12	0.000000e+00	4.472361e-01	6.925035e+13	4.952494e+14	2.587626e+14	8.580125e+03	3.990481e+03	1.780890e+03	0	5.570707e-04
6.900000e+08	3.252330e+12	0.000000e+00	4.472361e-01	6.875303e+13	4.901380e+14	2.575184e+14	8.572835e+03	3.985318e+03	1.778586e+03	0	5.554264e-04
7.000000e+08	3.223820e+12	0.000000e+00	4.472361e-01	6.826352e+13	4.851568e+14	2.562829e+14	8.565599e+03	3.980258e+03	1.776328e+03	0	5.537987e-04
7.100000e+08	3.195759e+12	0.000000e+00	4.472361e-01	6.778160e+13	4.803006e+14	2.550561e+14	8.558413e+03	3.975298e+03	1.774114e+03	0	5.521872e-04
7.200000e+08	3.168134e+12	0.000000e+00	4.472361e-01	6.730708e+13	4.755644e+14	2.538378e+14	8.551278e+03	3.970434e+03	1.771944e+03	0	5.505915e-04
7.300000e+08	3.140934e+12	0.000000e+00	4.472361e-01	6.683975e+13	4.709435e+14	2.526280e+14	8.544193e+03	3.965665e+03	1.769815e+03	0	5.490113e-04
7.400000e+08	3.114148e+12	0.000000e+00	4.472361e-01	6.637944e+13	4.664335e+14	2.514267e+14	8.537157e+03	3.960985e+03	1.767727e+03	0	5.474461e-04
7.500000e+08	3.087765e+12	0.000000e+00	4.472361e-01	6.592596e+13	4.620302e+14	2.502338e+14	8.530170e+03	3.956393e+03	1.765677e+03	0	5.458958e-04
7.600000e+08	3.061775e+12	0.000000e+00	4.472361e-01	6.547914e+13	4.577295e+14	2.490492e+14	8.523230e+03	3.951885e+03	1.763666e+03	0	5.443599e-04
7.700000e+08	3.036168e+12	0.000000e+00	4.472361e-01	6.503882e+13	4.535277e+14	2.478728e+14	8.516337e+03	3.947460e+03	1.761691e+03	0	5.428380e-04
7.800000e+08	3.010935e+12	0.000000e+00	4.472361e-01	6.460482e+13	4.494210e+14	2.467046e+14	8.509490e+03	3.943113e+03	1.759751e+03	0	5.413300e-04
7.900000e+08	2.986066e+12	0.000000e+00	4.472361e-01	6.417701e+13	4.454062e+14	2.455445e+14	8.502689e+03	3.938844e+03	1.757846e+03	0	5.398355e-04
8.000000e+08	2.961553e+12	0.000000e+00	4.472361e-01	6.375523e+13	4.414798e+14	2.443924e+14	8.495932e+03	3.934649e+03	1.755974e+03	0	5.383543e-04
8.100000e+08	2.937386e+12	0.000000e+00	4.472361e-01	6.333933e+13	4.376386e+14	2.432483e+14	8.489220e+03	3.930527e+03	1.754134e+03	0	5.368859e-04
8.200000e+08	2.913559e+12	0.000000e+00	4.472361e-01	6.292917e+13	4.338799e+14	2.421122e+14	8.482552e+03	3.926474e+03	1.752325e+03	0	5.354303e-04
8.300000e+08	2.890062e+12	0.000000e+00	4.472361e-01	6.252462e+13	4.302005e+14	2.409839e+14	8.475927e+03	3.922490e+03	1.750547e+03	0	5.339870e-04
8.400000e+08	2.866887e+12	0.000000e+00	4.472361e-01	6.212556e+13	4.265980e+14	2.398634e+14	8.469345e+03	3.918571e+03	1.748798e+03	0	5.325559e-04
8.500000e+08	2.844029e+12	0.000000e+00	4.472361e-01	6.173184e+13	4.230695e+14	2.387506e+14	8.462804e+03	3.914717e+03	1.747078e+03	0	5.311367e-04
8.600000e+08	2.821478e+12	0.000000e+00	4.472361e-01	6.134336e+13	4.196127e+14	2.376455e+14	8.456305e+03	3.910925e+03	1.745386e+03	0	5.297292e-04
8.700000e+08	2.799229e+12	0.000000e+00	4.472361e-01	6.095999e+13	4.162252e+14	2.365480e+14	8.449846e+03	3.907193e+03	1.743720e+03	0	5.283331e-04
8.800000e+08	2.777275e+12	0.000000e+00	4.472361e-01	6.058162e+13	4.129046e+14	2.354581e+14	8.443428e+03	3.903519e+03	1.742081e+03	0	5.269482e-04
8.900000e+08	2.755609e+12	0.000000e+00	4.472361e-01	6.020815e+13	4.096489e+14	2.343756e+14	8.437049e+03	3.899903e+03	1.740467e+03	0	5.255744e-04
9.000000e+08	2.734224e+12	0.000000e+00	4.472361e-01	5.983945e+13	4.064559e+14	2.333006e+14	8.430710e+03	3.896342e+03	1.738878e+03	0	5.242113e-04
9.100000e+08	2.713115e+12	0.000000e+00	4.472361e-01	5.947544e+13	4.033236e+14	2.322329e+14	8.424410e+03	3.892835e+03	1.737312e+03	0	5.228588e-04
9.200000e+08	2.692275e+12	0.000000e+00	4.472361e-01	5.911600e+13	4.002502e+14	2.311726e+14	8.418148e+03	3.889380e+03	1.735771e+03	0	5.215166e-04
9.300000e+08	2.671700e+12	0.000000e+00	4.472361e-01	5.876105e+13	3.972337e+14	2.301195e+14	8.411923e+03	3.885976e+03	1.734251e+03	0	5.201847e-04
9.400000e+08	2.651382e+12	0.000000e+00	4.472361e-01	5.841049e+13	3.942725e+14	2.290736e+14	8.405736e+03	3.882622e+03	1.732754e+03	0	5.188627e-04
9.500000e+08	2.631318e+12	0.000000e+00	4.472361e-01	5.806422e+13	3.913649e+14	2.280348e+14	8.399586e+03	3.879315e+03	1.731279e+03	0	5.175506e-04
9.600000e+08	2.611501e+12	0.000000e+00	4.472361e-01	5.772216e+13	3.885092e+14	2.270032e+14	8.393472e+03	3.876056e+03	1.729824e+03	0	5.162480e-04
9.700000e+08	2.591927e+12	0.000000e+00	4.472361e-01	5.738422e+13	3.857039e+14	2.259785e+14	8.387394e+03	3.872842e+03	1.728390e+03	0	5.149550e-04
9.800000e+08	2.572591e+12	0.000000e+00	4.472361e-01	5.705033e+13	3.829475e+14	2.249609e+14	8.381352e+03	3.869672e+03	1.726975e+03	0	5.136712e-04
9.900000e+08	2.553488e+12	0.000000e+00	4.472361e-01	5.672039e+13	3.802385e+14	2.239501e+14	8.375344e+03	3.866546e+03	1.725580e+03	0	5.123966e-04
1.000000e+09	2.534612e+12	0.000000e+00	4.472361e-01	5.639433e+13	3.775757e+14	2.229462e+14	8.369372e+03	3.863462e+03	1.724204e+03	0	5.111309e-04
1.010000e+09	2.515961e+12	0.000000e+00	4.472361e-01	5.607208e+13	3.749576e+14	2.219491e+14	8.363433e+03	3.860419e+03	1.722846e+03	0	5.098741e-04
1.020000e+09	2.497529e+12	0.000000e+00	4.472361e-01	5.575356e+13	3.723831e+14	2.209588e+14	8.357529e+03	3.857416e+03	1.721505e+03	0	5.086259e-04
1.030000e+09	2.479311e+12	0.000000e+00	4.472361e-01	5.543869e+13	3.698508e+14	2.199751e+14	8.351658e+03	3.854452e+03	1.720183e+03	0	5.073862e-04
1.040000e+09	2.461305e+12	0.000000e+00	4.472361e-01	5.512741e+13	3.673597e+14	2.189982e+14	8.345820e+03	3.851526e+03	1.718877e+03	0	5.061550e-04
1.050000e+09	2.443506e+12	0.000000e+00	4.472361e-01	5.481965e+13	3.649085e+14	2.180278e+14	8.340015e+03	3.848637e+03	1.717587e+03	0	5.049319e-04
1.060000e+09	2.425910e+12	0.000000e+00	4.472361e-01	5.451535e+13	3.624962e+14	2.170639e+14	8.334242e+03	3.845784e+03	1.716314e+03	0	5.037169e-04
1.070000e+09	2.408513e+12	0.000000e+00	4.472361e-01	5.421443e+13	3.601217e+14	2.161066e+14	8.328501e+03	3.842966e+03	1.715057e+03	0	5.025099e-04
1.080000e+09	2.391311e+12	0.000000e+00	4.472361e-01	5.391684e+13	3.577841e+14	2.151557e+14	8.322792e+03	3.840183e+03	1.713815e+03	0	5.013107e-04
1.090000e+09	2.374301e+12	0.000000e+00	4.472361e-01	5.362251e+13	3.554823e+14	2.142112e+14	8.317114e+03	3.837433e+03	1.712587e+03	0	5.001193e-04
1.100000e+09	2.357480e+12	0.000000e+00	4.472361e-01	5.333139e+13	3.532155e+14	2.132730e+14	8.311467e+03	3.834716e+03	1.711375e+03	0	4.989354e-04
1.110000e+09	2.340843e+12	0.000000e+00	4.472361e-01	5.304342e+13	3.509826e+14	2.123411e+14	8.305851e+03	3.832031e+03	1.710177e+03	0	4.977590e-04
1.120000e+09	2.324388e+12	0.000000e+00	4.472361e-01	5.275854e+13	3.487829e+14	2.114155e+14	8.300265e+03	3.829377e+03	1.708992e+03	0	4.965899e-04
1.130000e+09	2.308112e+12	0.000000e+00	4.472361e-01	5.247670e+13	3.466155e+14	2.104960e+14	8.294709e+03	3.826754e+03	1.707821e+03	0	4.954281e-04
1.140000e+09	2.292011e+12	0.000000e+00	4.472361e-01	5.219784e+13	3.444796e+14	2.095827e+14	8.289182e+03	3.824160e+03	1.706664e+03	0	4.942734e-04
1.150000e+09	2.276082e+12	0.000000e+00	4.472361e-01	5.192192e+13	3.423743e+14	2.086755e+14	8.283685e+03	3.821596e+03	1.705520e+03	0	4.931257e-04
1.160000e+09	2.260322e+12	0.000000e+00	4.472361e-01	5.164887e+13	3.402990e+14	2.077744e+14	8.278217e+03	3.819060e+03	1.704388e+03	0	4.919849e-04
1.170000e+09	2.244728e+12	0.000000e+00	4.472361e-01	5.137866e+13	3.382529e+14	2.068793e+14	8.272777e+03	3.816552e+03	1.703268e+03	0	4.908509e-04
1.180000e+09	2.229298e+12	0.000000e+00	4.472361e-01	5.111123e+13	3.362352e+14	2.059901e+14	8.267366e+03	3.814071e+03	1.702161e+03	0	4.897236e-04
1.190000e+09	2.214028e+12	0.000000e+00	4.472361e-01	5.084654e+13	3.342454e+14	2.051068e+14	8.261983e+03	3.811616e+03	1.701066e+03	0	4.886029e-04
1.200000e+09	2.198916e+12	0.000000e+00	4.472361e-01	5.058454e+13	3.322827e+14	2.042294e+14	8.256628e+03	3.809188e+03	1.699982e+03	0	4.874887e-04
1.210000e+09	2.183959e+12	0.000000e+00	4.472361e-01	5.032518e+13	3.303465e+14	2.033578e+14	8.251300e+03	3.806785e+03	1.698910e+03	0	4.863809e-04
1.220000e+09	2.169156e+12	0.000000e+00	4.472361e-01	5.006843e+13	3.284362e+14	2.024920e+14	8.246000e+03	3.804406e+03	1.697848e+03	0	4.852794e-04
1.230000e+09	2.154502e+12	0.000000e+00	4.472361e-01	4.981423e+13	3.265512e+14	2.016319e+14	8.240727e+03	3.802052e+03	1.696798e+03	0	4.841842e-04
1.240000e+09	2.139996e+12	0.000000e+00	4.472361e-01	4.956256e+13	3.246909e+14	2.007775e+14	8.235480e+03	3.799722e+03	1.695758e+03	0	4.830951e-04
1.250000e+09	2.125635e+12	0.000000e+00	4.472361e-01	4.931336e+13	3.228547e+14	1.999287e+14	8.230260e+03	3.797415e+03	1.694728e+03	0	4.820121e-04
1.260000e+09	2.111417e+12	0.000000e+00	4.472361e-01	4.906660e+13	3.210422e+14	1.990855e+14	8.225066e+03	3.795131e+03	1.693709e+03	0	4.809350e-04
1.270000e+09	2.097340e+12	0.000000e+00	4.472361e-01	4.882224e+13	3.192527e+14	1.982479e+14	8.219898e+03	3.792869e+03	1.692699e+03	0	4.798638e-04
1.280000e+09	2.083402e+12	0.000000e+00	4.472361e-01	4.858024e+13	3.174857e+14	1.974158e+14	8.214756e+03	3.790629e+03	1.691700e+03	0	4.787984e-04
1.290000e+09	2.069599e+12	0.000000e+00	4.472361e-01	4.834056e+13	3.157409e+14	1.965892e+14	8.209639e+03	3.788411e+03	1.690709e+03	0	4.777387e-04
1.300000e+09	2.055931e+12	0.000000e+00	4.472361e-01	4.810318e+13	3.140176e+14	1.957680e+14	8.204548e+03	3.786213e+03	1.689729e+03	0	4.766847e-04
1.310000e+09	2.042395e+12	0.000000e+00	4.472361e-01	4.786804e+13	3.123154e+14	1.949521e+14	8.199481e+03	3.784036e+03	1.688757e+03	0	4.756362e-04
1.320000e+09	2.028989e+12	0.000000e+00	4.472361e-01	4.763513e+13	3.106339e+14	1.941416e+14	8.194439e+03	3.781879e+03	1.687794e+03	0	4.745932e-04
1.330000e+09	2.015711e+12	0.000000e+00	4.472361e-01	4.740440e+13	3.089727e+14	1.933365e+14	8.189422e+03	3.779741e+03	1.686840e+03	0	4.735557e-04
1.340000e+09	2.002559e+12	0.000000e+00	4.472361e-01	4.717582e+13	3.073313e+14	1.925365e+14	8.184429e+03	3.777623e+03	1.685895e+03	0	4.725235e-04
1.350000e+09	1.989531e+12	0.000000e+00	4.472361e-01	4.694936e+13	3.057092e+14	1.917418e+14	8.179459e+03	3.775524e+03	1.684958e+03	0	4.714966e-04
1.360000e+09	1.976625e+12	0.000000e+00	4.472361e-01	4.672499e+13	3.041062e+14	1.909523e+14	8.174514e+03	3.773443e+03	1.684030e+03	0	4.704749e-04
