#t		Qconv[W]	Ri[Rp]		R*[Rp]		Qc[W]		Qm[W]		Qr[W]		Tcmb[K]		Tl[K]		Tup[K]		RiFlag		Bs[T]
0.000000e+00	2.240549e+13	0.000000e+00	4.422112e-01	3.376747e+14	4.249388e+15	5.597903e+14	1.251137e+04	7.017272e+03	2.607744e+03	0	1.045933e-03
1.000000e+07	2.196466e+13	0.000000e+00	4.422112e-01	3.319325e+14	4.005276e+15	5.566886e+14	1.248960e+04	6.945791e+03	2.581181e+03	0	1.039028e-03
2.000000e+07	2.153765e+13	0.000000e+00	4.422112e-01	3.263691e+14	3.786311e+15	5.536102e+14	1.246819e+04	6.879234e+03	2.556447e+03	0	1.032250e-03
3.000000e+07	2.112450e+13	0.000000e+00	4.422112e-01	3.209848e+14	3.589013e+15	5.505547e+14	1.244715e+04	6.817089e+03	2.533353e+03	0	1.025607e-03
4.000000e+07	2.072502e+13	0.000000e+00	4.422112e-01	3.157774e+14	3.410493e+15	5.475221e+14	1.242645e+04	6.758912e+03	2.511733e+03	0	1.019101e-03
5.000000e+07	2.033893e+13	0.000000e+00	4.422112e-01	3.107429e+14	3.248336e+15	5.445121e+14	1.240608e+04	6.704320e+03	2.491446e+03	0	1.012733e-03
6.000000e+07	1.996581e+13	0.000000e+00	4.422112e-01	3.058763e+14	3.100507e+15	5.415245e+14	1.238604e+04	6.652978e+03	2.472366e+03	0	1.006502e-03
7.000000e+07	1.960524e+13	0.000000e+00	4.422112e-01	3.011718e+14	2.965286e+15	5.385591e+14	1.236631e+04	6.604593e+03	2.454385e+03	0	1.000406e-03
8.000000e+07	1.925673e+13	0.000000e+00	4.422112e-01	2.966232e+14	2.841205e+15	5.356159e+14	1.234688e+04	6.558906e+03	2.437407e+03	0	9.944427e-04
9.000000e+07	1.891980e+13	0.000000e+00	4.422112e-01	2.922244e+14	2.727010e+15	5.326945e+14	1.232775e+04	6.515689e+03	2.421347e+03	0	9.886088e-04
1.000000e+08	1.859396e+13	0.000000e+00	4.422112e-01	2.879690e+14	2.621620e+15	5.297948e+14	1.230890e+04	6.474739e+03	2.406130e+03	0	9.829005e-04
1.100000e+08	1.827873e+13	0.000000e+00	4.422112e-01	2.838507e+14	2.524104e+15	5.269166e+14	1.229032e+04	6.435876e+03	2.391687e+03	0	9.773143e-04
1.200000e+08	1.797363e+13	0.000000e+00	4.422112e-01	2.798635e+14	2.433650e+15	5.240597e+14	1.227200e+04	6.398937e+03	2.377960e+03	0	9.718462e-04
1.300000e+08	1.767822e+13	0.000000e+00	4.422112e-01	2.760015e+14	2.349552e+15	5.212241e+14	1.225395e+04	6.363777e+03	2.364894e+03	0	9.664923e-04
1.400000e+08	1.739204e+13	0.000000e+00	4.422112e-01	2.722590e+14	2.271193e+15	5.184093e+14	1.223614e+04	6.330267e+03	2.352441e+03	0	9.612487e-04
1.500000e+08	1.711468e+13	0.000000e+00	4.422112e-01	2.686306e+14	2.198028e+15	5.156154e+14	1.221857e+04	6.298288e+03	2.340557e+03	0	9.561115e-04
1.600000e+08	1.684575e+13	0.000000e+00	4.422112e-01	2.651112e+14	2.129579e+15	5.128422e+14	1.220123e+04	6.267734e+03	2.329203e+03	0	9.510770e-04
1.700000e+08	1.658485e+13	0.000000e+00	4.422112e-01	2.616958e+14	2.065422e+15	5.100894e+14	1.218412e+04	6.238508e+03	2.318342e+03	0	9.461415e-04
1.800000e+08	1.633163e+13	0.000000e+00	4.422112e-01	2.583798e+14	2.005182e+15	5.073569e+14	1.216723e+04	6.210521e+03	2.307941e+03	0	9.413015e-04
1.900000e+08	1.608575e+13	0.000000e+00	4.422112e-01	2.551587e+14	1.948523e+15	5.046445e+14	1.215056e+04	6.183694e+03	2.297972e+03	0	9.365536e-04
2.000000e+08	1.584687e+13	0.000000e+00	4.422112e-01	2.520283e+14	1.895148e+15	5.019521e+14	1.213409e+04	6.157954e+03	2.288406e+03	0	9.318944e-04
2.100000e+08	1.561469e+13	0.000000e+00	4.422112e-01	2.489847e+14	1.844789e+15	4.992794e+14	1.211782e+04	6.133232e+03	2.279219e+03	0	9.273209e-04
2.200000e+08	1.538892e+13	0.000000e+00	4.422112e-01	2.460241e+14	1.797205e+15	4.966264e+14	1.210175e+04	6.109467e+03	2.270388e+03	0	9.228299e-04
2.300000e+08	1.516929e+13	0.000000e+00	4.422112e-01	2.431429e+14	1.752181e+15	4.939929e+14	1.208587e+04	6.086603e+03	2.261891e+03	0	9.184185e-04
2.400000e+08	1.495552e+13	0.000000e+00	4.422112e-01	2.403378e+14	1.709521e+15	4.913787e+14	1.207017e+04	6.064588e+03	2.253710e+03	0	9.140840e-04
2.500000e+08	1.474738e+13	0.000000e+00	4.422112e-01	2.376055e+14	1.669051e+15	4.887836e+14	1.205466e+04	6.043372e+03	2.245826e+03	0	9.098237e-04
2.600000e+08	1.454463e+13	0.000000e+00	4.422112e-01	2.349432e+14	1.630610e+15	4.862076e+14	1.203932e+04	6.022911e+03	2.238222e+03	0	9.056350e-04
2.700000e+08	1.434706e+13	0.000000e+00	4.422112e-01	2.323478e+14	1.594054e+15	4.836503e+14	1.202415e+04	6.003165e+03	2.230884e+03	0	9.015155e-04
2.800000e+08	1.415444e+13	0.000000e+00	4.422112e-01	2.298167e+14	1.559250e+15	4.811117e+14	1.200915e+04	5.984094e+03	2.223797e+03	0	8.974628e-04
2.900000e+08	1.396658e+13	0.000000e+00	4.422112e-01	2.273474e+14	1.526080e+15	4.785917e+14	1.199431e+04	5.965663e+03	2.216948e+03	0	8.934748e-04
3.000000e+08	1.378330e+13	0.000000e+00	4.422112e-01	2.249373e+14	1.494432e+15	4.760900e+14	1.197963e+04	5.947839e+03	2.210324e+03	0	8.895492e-04
3.100000e+08	1.360441e+13	0.000000e+00	4.422112e-01	2.225843e+14	1.464206e+15	4.736066e+14	1.196511e+04	5.930591e+03	2.203914e+03	0	8.856841e-04
3.200000e+08	1.342975e+13	0.000000e+00	4.422112e-01	2.202861e+14	1.435311e+15	4.711412e+14	1.195074e+04	5.913891e+03	2.197708e+03	0	8.818774e-04
3.300000e+08	1.325916e+13	0.000000e+00	4.422112e-01	2.180407e+14	1.407663e+15	4.686938e+14	1.193651e+04	5.897710e+03	2.191695e+03	0	8.781274e-04
3.400000e+08	1.309247e+13	0.000000e+00	4.422112e-01	2.158460e+14	1.381183e+15	4.662641e+14	1.192243e+04	5.882025e+03	2.185866e+03	0	8.744322e-04
3.500000e+08	1.292956e+13	0.000000e+00	4.422112e-01	2.137002e+14	1.355800e+15	4.638520e+14	1.190849e+04	5.866812e+03	2.180213e+03	0	8.707901e-04
3.600000e+08	1.277028e+13	0.000000e+00	4.422112e-01	2.116016e+14	1.331448e+15	4.614575e+14	1.189469e+04	5.852048e+03	2.174726e+03	0	8.671996e-04
3.700000e+08	1.261450e+13	0.000000e+00	4.422112e-01	2.095484e+14	1.308066e+15	4.590803e+14	1.188103e+04	5.837713e+03	2.169399e+03	0	8.636589e-04
3.800000e+08	1.246209e+13	0.000000e+00	4.422112e-01	2.075391e+14	1.285599e+15	4.567203e+14	1.186749e+04	5.823787e+03	2.164224e+03	0	8.601666e-04
3.900000e+08	1.231295e+13	0.000000e+00	4.422112e-01	2.055720e+14	1.263993e+15	4.543773e+14	1.185409e+04	5.810252e+03	2.159194e+03	0	8.567213e-04
4.000000e+08	1.216694e+13	0.000000e+00	4.422112e-01	2.036458e+14	1.243201e+15	4.520513e+14	1.184081e+04	5.797092e+03	2.154303e+03	0	8.533216e-04
4.100000e+08	1.202398e+13	0.000000e+00	4.422112e-01	2.017591e+14	1.223177e+15	4.497420e+14	1.182766e+04	5.784289e+03	2.149546e+03	0	8.499661e-04
4.200000e+08	1.188394e+13	0.000000e+00	4.422112e-01	1.999105e+14	1.203880e+15	4.474494e+14	1.181463e+04	5.771828e+03	2.144915e+03	0	8.466537e-04
4.300000e+08	1.174675e+13	0.000000e+00	4.422112e-01	1.980987e+14	1.185271e+15	4.451733e+14	1.180172e+04	5.759695e+03	2.140406e+03	0	8.433830e-04
4.400000e+08	1.161230e+13	0.000000e+00	4.422112e-01	1.963227e+14	1.167314e+15	4.429135e+14	1.178892e+04	5.747876e+03	2.136014e+03	0	8.401529e-04
4.500000e+08	1.148050e+13	0.000000e+00	4.422112e-01	1.945811e+14	1.149975e+15	4.406700e+14	1.177624e+04	5.736359e+03	2.131734e+03	0	8.369623e-04
4.600000e+08	1.135127e+13	0.000000e+00	4.422112e-01	1.928729e+14	1.133222e+15	4.384427e+14	1.176367e+04	5.725131e+03	2.127562e+03	0	8.338100e-04
4.700000e+08	1.122453e+13	0.000000e+00	4.422112e-01	1.911971e+14	1.117026e+15	4.362313e+14	1.175121e+04	5.714181e+03	2.123492e+03	0	8.306952e-04
4.800000e+08	1.110020e+13	0.000000e+00	4.422112e-01	1.895526e+14	1.101360e+15	4.340357e+14	1.173886e+04	5.703497e+03	2.119522e+03	0	8.276167e-04
4.900000e+08	1.097821e+13	0.000000e+00	4.422112e-01	1.879385e+14	1.086198e+15	4.318558e+14	1.172662e+04	5.693069e+03	2.115647e+03	0	8.245736e-04
5.000000e+08	1.085848e+13	0.000000e+00	4.422112e-01	1.863539e+14	1.071515e+15	4.296916e+14	1.171448e+04	5.682888e+03	2.111863e+03	0	8.215649e-04
5.100000e+08	1.074094e+13	0.000000e+00	4.422112e-01	1.847978e+14	1.057288e+15	4.275428e+14	1.170244e+04	5.672944e+03	2.108168e+03	0	8.185898e-04
5.200000e+08	1.062553e+13	0.000000e+00	4.422112e-01	1.832695e+14	1.043498e+15	4.254093e+14	1.169050e+04	5.663228e+03	2.104557e+03	0	8.156475e-04
5.300000e+08	1.051220e+13	0.000000e+00	4.422112e-01	1.817681e+14	1.030122e+15	4.232911e+14	1.167866e+04	5.653732e+03	2.101028e+03	0	8.127370e-04
5.400000e+08	1.040086e+13	0.000000e+00	4.422112e-01	1.802928e+14	1.017143e+15	4.211879e+14	1.166691e+04	5.644448e+03	2.097578e+03	0	8.098577e-04
5.500000e+08	1.029148e+13	0.000000e+00	4.422112e-01	1.788429e+14	1.004543e+15	4.190997e+14	1.165527e+04	5.635367e+03	2.094204e+03	0	8.070086e-04
5.600000e+08	1.018399e+13	0.000000e+00	4.422112e-01	1.774176e+14	9.923046e+14	4.170264e+14	1.164371e+04	5.626483e+03	2.090902e+03	0	8.041892e-04
5.700000e+08	1.007834e+13	0.000000e+00	4.422112e-01	1.760164e+14	9.804125e+14	4.149677e+14	1.163225e+04	5.617789e+03	2.087671e+03	0	8.013986e-04
5.800000e+08	9.974480e+12	0.000000e+00	4.422112e-01	1.746384e+14	9.688517e+14	4.129237e+14	1.162088e+04	5.609278e+03	2.084508e+03	0	7.986362e-04
5.900000e+08	9.872360e+12	0.000000e+00	4.422112e-01	1.732831e+14	9.576082e+14	4.108942e+14	1.160959e+04	5.600943e+03	2.081411e+03	0	7.959013e-04
6.000000e+08	9.771932e+12	0.000000e+00	4.422112e-01	1.719499e+14	9.466686e+14	4.088790e+14	1.159840e+04	5.592779e+03	2.078377e+03	0	7.931933e-04
6.100000e+08	9.673150e+12	0.000000e+00	4.422112e-01	1.706381e+14	9.360204e+14	4.068781e+14	1.158729e+04	5.584781e+03	2.075405e+03	0	7.905116e-04
6.200000e+08	9.575972e+12	0.000000e+00	4.422112e-01	1.693473e+14	9.256517e+14	4.048913e+14	1.157626e+04	5.576941e+03	2.072492e+03	0	7.878554e-04
6.300000e+08	9.480354e+12	0.000000e+00	4.422112e-01	1.680768e+14	9.155511e+14	4.029186e+14	1.156532e+04	5.569256e+03	2.069635e+03	0	7.852244e-04
6.400000e+08	9.386256e+12	0.000000e+00	4.422112e-01	1.668261e+14	9.057080e+14	4.009598e+14	1.155446e+04	5.561719e+03	2.066835e+03	0	7.826178e-04
6.500000e+08	9.293640e+12	0.000000e+00	4.422112e-01	1.655947e+14	8.961123e+14	3.990147e+14	1.154368e+04	5.554327e+03	2.064088e+03	0	7.800352e-04
6.600000e+08	9.202466e+12	0.000000e+00	4.422112e-01	1.643822e+14	8.867544e+14	3.970834e+14	1.153298e+04	5.547074e+03	2.061393e+03	0	7.774760e-04
6.700000e+08	9.112699e+12	0.000000e+00	4.422112e-01	1.631881e+14	8.776250e+14	3.951656e+14	1.152235e+04	5.539957e+03	2.058748e+03	0	7.749397e-04
6.800000e+08	9.024304e+12	0.000000e+00	4.422112e-01	1.620118e+14	8.687155e+14	3.932613e+14	1.151181e+04	5.532970e+03	2.056151e+03	0	7.724259e-04
6.900000e+08	8.937246e+12	0.000000e+00	4.422112e-01	1.608530e+14	8.600178e+14	3.913704e+14	1.150134e+04	5.526110e+03	2.053602e+03	0	7.699340e-04
7.000000e+08	8.851493e+12	0.000000e+00	4.422112e-01	1.597112e+14	8.515239e+14	3.894927e+14	1.149094e+04	5.519373e+03	2.051098e+03	0	7.674635e-04
7.100000e+08	8.767013e+12	0.000000e+00	4.422112e-01	1.585861e+14	8.432263e+14	3.876281e+14	1.148062e+04	5.512755e+03	2.048639e+03	0	7.650141e-04
7.200000e+08	8.683775e+12	0.000000e+00	4.422112e-01	1.574772e+14	8.351180e+14	3.857766e+14	1.147037e+04	5.506253e+03	2.046223e+03	0	7.625853e-04
7.300000e+08	8.601751e+12	0.000000e+00	4.422112e-01	1.563842e+14	8.271922e+14	3.839381e+14	1.146020e+04	5.499862e+03	2.043848e+03	0	7.601767e-04
7.400000e+08	8.520912e+12	0.000000e+00	4.422112e-01	1.553066e+14	8.194424e+14	3.821123e+14	1.145009e+04	5.493581e+03	2.041513e+03	0	7.577878e-04
7.500000e+08	8.441229e+12	0.000000e+00	4.422112e-01	1.542441e+14	8.118624e+14	3.802993e+14	1.144005e+04	5.487405e+03	2.039218e+03	0	7.554183e-04
7.600000e+08	8.362677e+12	0.000000e+00	4.422112e-01	1.531965e+14	8.044465e+14	3.784990e+14	1.143008e+04	5.481331e+03	2.036961e+03	0	7.530677e-04
7.700000e+08	8.285229e+12	0.000000e+00	4.422112e-01	1.521632e+14	7.971889e+14	3.767111e+14	1.142018e+04	5.475356e+03	2.034741e+03	0	7.507357e-04
7.800000e+08	8.208861e+12	0.000000e+00	4.422112e-01	1.511441e+14	7.900843e+14	3.749357e+14	1.141035e+04	5.469479e+03	2.032557e+03	0	7.484220e-04
7.900000e+08	8.133548e+12	0.000000e+00	4.422112e-01	1.501388e+14	7.831277e+14	3.731726e+14	1.140058e+04	5.463695e+03	2.030407e+03	0	7.461262e-04
8.000000e+08	8.059267e+12	0.000000e+00	4.422112e-01	1.491469e+14	7.763140e+14	3.714218e+14	1.139087e+04	5.458002e+03	2.028292e+03	0	7.438478e-04
8.100000e+08	7.985995e+12	0.000000e+00	4.422112e-01	1.481683e+14	7.696386e+14	3.696830e+14	1.138123e+04	5.452398e+03	2.026209e+03	0	7.415867e-04
8.200000e+08	7.913710e+12	0.000000e+00	4.422112e-01	1.472026e+14	7.630970e+14	3.679563e+14	1.137166e+04	5.446880e+03	2.024159e+03	0	7.393424e-04
8.300000e+08	7.842391e+12	0.000000e+00	4.422112e-01	1.462495e+14	7.566850e+14	3.662416e+14	1.136214e+04	5.441447e+03	2.022139e+03	0	7.371147e-04
8.400000e+08	7.772017e+12	0.000000e+00	4.422112e-01	1.453088e+14	7.503984e+14	3.645387e+14	1.135269e+04	5.436094e+03	2.020150e+03	0	7.349033e-04
8.500000e+08	7.702569e+12	0.000000e+00	4.422112e-01	1.443802e+14	7.442333e+14	3.628475e+14	1.134330e+04	5.430821e+03	2.018191e+03	0	7.327077e-04
8.600000e+08	7.634025e+12	0.000000e+00	4.422112e-01	1.434635e+14	7.381859e+14	3.611680e+14	1.133397e+04	5.425626e+03	2.016260e+03	0	7.305279e-04
8.700000e+08	7.566369e+12	0.000000e+00	4.422112e-01	1.425584e+14	7.322526e+14	3.595000e+14	1.132469e+04	5.420505e+03	2.014357e+03	0	7.283633e-04
8.800000e+08	7.499581e+12	0.000000e+00	4.422112e-01	1.416646e+14	7.264299e+14	3.578436e+14	1.131548e+04	5.415458e+03	2.012482e+03	0	7.262139e-04
8.900000e+08	7.433643e+12	0.000000e+00	4.422112e-01	1.407820e+14	7.207145e+14	3.561985e+14	1.130632e+04	5.410482e+03	2.010632e+03	0	7.240793e-04
9.000000e+08	7.368539e+12	0.000000e+00	4.422112e-01	1.399103e+14	7.151032e+14	3.545647e+14	1.129722e+04	5.405576e+03	2.008809e+03	0	7.219593e-04
9.100000e+08	7.304251e+12	0.000000e+00	4.422112e-01	1.390494e+14	7.095929e+14	3.529421e+14	1.128818e+04	5.400738e+03	2.007011e+03	0	7.198535e-04
9.200000e+08	7.240764e+12	0.000000e+00	4.422112e-01	1.381989e+14	7.041806e+14	3.513306e+14	1.127919e+04	5.395965e+03	2.005238e+03	0	7.177619e-04
9.300000e+08	7.178061e+12	0.000000e+00	4.422112e-01	1.373586e+14	6.988636e+14	3.497301e+14	1.127025e+04	5.391257e+03	2.003488e+03	0	7.156840e-04
9.400000e+08	7.116127e+12	0.000000e+00	4.422112e-01	1.365285e+14	6.936391e+14	3.481406e+14	1.126137e+04	5.386611e+03	2.001762e+03	0	7.136197e-04
9.500000e+08	7.054947e+12	0.000000e+00	4.422112e-01	1.357083e+14	6.885045e+14	3.465619e+14	1.125255e+04	5.382027e+03	2.000058e+03	0	7.115687e-04
9.600000e+08	6.994506e+12	0.000000e+00	4.422112e-01	1.348977e+14	6.834573e+14	3.449940e+14	1.124377e+04	5.377502e+03	1.998377e+03	0	7.095308e-04
9.700000e+08	6.934791e+12	0.000000e+00	4.422112e-01	1.340967e+14	6.784949e+14	3.434368e+14	1.123505e+04	5.373036e+03	1.996717e+03	0	7.075058e-04
9.800000e+08	6.875787e+12	0.000000e+00	4.422112e-01	1.333050e+14	6.736152e+14	3.418901e+14	1.122638e+04	5.368627e+03	1.995078e+03	0	7.054935e-04
9.900000e+08	6.817481e+12	0.000000e+00	4.422112e-01	1.325224e+14	6.688157e+14	3.403540e+14	1.121777e+04	5.364272e+03	1.993460e+03	0	7.034937e-04
1.000000e+09	6.759860e+12	0.000000e+00	4.422112e-01	1.317489e+14	6.640945e+14	3.388283e+14	1.120920e+04	5.359973e+03	1.991862e+03	0	7.015061e-04
1.010000e+09	6.702911e+12	0.000000e+00	4.422112e-01	1.309841e+14	6.594493e+14	3.373130e+14	1.120068e+04	5.355725e+03	1.990284e+03	0	6.995306e-04
1.020000e+09	6.646623e+12	0.000000e+00	4.422112e-01	1.302281e+14	6.548781e+14	3.358079e+14	1.119221e+04	5.351530e+03	1.988725e+03	0	6.975670e-04
1.030000e+09	6.590982e+12	0.000000e+00	4.422112e-01	1.294805e+14	6.503791e+14	3.343130e+14	1.118379e+04	5.347385e+03	1.987184e+03	0	6.956150e-04
1.040000e+09	6.535977e+12	0.000000e+00	4.422112e-01	1.287413e+14	6.459503e+14	3.328282e+14	1.117542e+04	5.343289e+03	1.985662e+03	0	6.936745e-04
1.050000e+09	6.481597e+12	0.000000e+00	4.422112e-01	1.280103e+14	6.415899e+14	3.313534e+14	1.116710e+04	5.339242e+03	1.984158e+03	0	6.917454e-04
1.060000e+09	6.427831e+12	0.000000e+00	4.422112e-01	1.272874e+14	6.372962e+14	3.298886e+14	1.115882e+04	5.335241e+03	1.982671e+03	0	6.898273e-04
1.070000e+09	6.374667e+12	0.000000e+00	4.422112e-01	1.265723e+14	6.330675e+14	3.284336e+14	1.115059e+04	5.331287e+03	1.981202e+03	0	6.879202e-04
1.080000e+09	6.322095e+12	0.000000e+00	4.422112e-01	1.258651e+14	6.289022e+14	3.269885e+14	1.114241e+04	5.327377e+03	1.979749e+03	0	6.860239e-04
1.090000e+09	6.270104e+12	0.000000e+00	4.422112e-01	1.251655e+14	6.247986e+14	3.255530e+14	1.113427e+04	5.323511e+03	1.978312e+03	0	6.841382e-04
1.100000e+09	6.218686e+12	0.000000e+00	4.422112e-01	1.244734e+14	6.207554e+14	3.241272e+14	1.112618e+04	5.319689e+03	1.976892e+03	0	6.822629e-04
1.110000e+09	6.167828e+12	0.000000e+00	4.422112e-01	1.237887e+14	6.167709e+14	3.227110e+14	1.111813e+04	5.315908e+03	1.975487e+03	0	6.803980e-04
1.120000e+09	6.117524e+12	0.000000e+00	4.422112e-01	1.231113e+14	6.128438e+14	3.213042e+14	1.111013e+04	5.312169e+03	1.974097e+03	0	6.785431e-04
1.130000e+09	6.067761e+12	0.000000e+00	4.422112e-01	1.224410e+14	6.089727e+14	3.199069e+14	1.110217e+04	5.308469e+03	1.972723e+03	0	6.766983e-04
1.140000e+09	6.018533e+12	0.000000e+00	4.422112e-01	1.217777e+14	6.051562e+14	3.185189e+14	1.109425e+04	5.304810e+03	1.971363e+03	0	6.748633e-04
1.150000e+09	5.969829e+12	0.000000e+00	4.422112e-01	1.211213e+14	6.013932e+14	3.171401e+14	1.108638e+04	5.301188e+03	1.970017e+03	0	6.730379e-04
1.160000e+09	5.921641e+12	0.000000e+00	4.422112e-01	1.204717e+14	5.976823e+14	3.157706e+14	1.107855e+04	5.297605e+03	1.968685e+03	0	6.712221e-04
1.170000e+09	5.873961e+12	0.000000e+00	4.422112e-01	1.198288e+14	5.940223e+14	3.144102e+14	1.107076e+04	5.294059e+03	1.967367e+03	0	6.694158e-04
1.180000e+09	5.826780e+12	0.000000e+00	4.422112e-01	1.191924e+14	5.904122e+14	3.130588e+14	1.106301e+04	5.290548e+03	1.966063e+03	0	6.676186e-04
1.190000e+09	5.780089e+12	0.000000e+00	4.422112e-01	1.185625e+14	5.868506e+14	3.117164e+14	1.105530e+04	5.287073e+03	1.964772e+03	0	6.658306e-04
1.200000e+09	5.733882e+12	0.000000e+00	4.422112e-01	1.179390e+14	5.833366e+14	3.103829e+14	1.104763e+04	5.283633e+03	1.963493e+03	0	6.640516e-04
1.210000e+09	5.688150e+12	0.000000e+00	4.422112e-01	1.173218e+14	5.798691e+14	3.090583e+14	1.104001e+04	5.280227e+03	1.962227e+03	0	6.622815e-04
1.220000e+09	5.642886e+12	0.000000e+00	4.422112e-01	1.167107e+14	5.764471e+14	3.077425e+14	1.103242e+04	5.276855e+03	1.960974e+03	0	6.605201e-04
1.230000e+09	5.598082e+12	0.000000e+00	4.422112e-01	1.161056e+14	5.730695e+14	3.064353e+14	1.102487e+04	5.273515e+03	1.959733e+03	0	6.587673e-04
1.240000e+09	5.553732e+12	0.000000e+00	4.422112e-01	1.155065e+14	5.697354e+14	3.051368e+14	1.101737e+04	5.270207e+03	1.958504e+03	0	6.570230e-04
1.250000e+09	5.509827e+12	0.000000e+00	4.422112e-01	1.149133e+14	5.664439e+14	3.038469e+14	1.100990e+04	5.266930e+03	1.957286e+03	0	6.552870e-04
1.260000e+09	5.466361e+12	0.000000e+00	4.422112e-01	1.143259e+14	5.631940e+14	3.025654e+14	1.100247e+04	5.263684e+03	1.956080e+03	0	6.535593e-04
1.270000e+09	5.423328e+12	0.000000e+00	4.422112e-01	1.137442e+14	5.599849e+14	3.012925e+14	1.099507e+04	5.260469e+03	1.954885e+03	0	6.518398e-04
1.280000e+09	5.380720e+12	0.000000e+00	4.422112e-01	1.131681e+14	5.568157e+14	3.000278e+14	1.098772e+04	5.257283e+03	1.953701e+03	0	6.501283e-04
1.290000e+09	5.338532e+12	0.000000e+00	4.422112e-01	1.125975e+14	5.536855e+14	2.987715e+14	1.098040e+04	5.254126e+03	1.952528e+03	0	6.484247e-04
1.300000e+09	5.296756e+12	0.000000e+00	4.422112e-01	1.120324e+14	5.505937e+14	2.975235e+14	1.097312e+04	5.250998e+03	1.951365e+03	0	6.467288e-04
1.310000e+09	5.255387e+12	0.000000e+00	4.422112e-01	1.114726e+14	5.475393e+14	2.962836e+14	1.096587e+04	5.247897e+03	1.950213e+03	0	6.450407e-04
1.320000e+09	5.214418e+12	0.000000e+00	4.422112e-01	1.109181e+14	5.445216e+14	2.950518e+14	1.095866e+04	5.244824e+03	1.949071e+03	0	6.433602e-04
1.330000e+09	5.173844e+12	0.000000e+00	4.422112e-01	1.103689e+14	5.415399e+14	2.938281e+14	1.095149e+04	5.241778e+03	1.947939e+03	0	6.416872e-04
1.340000e+09	5.133659e+12	0.000000e+00	4.422112e-01	1.098247e+14	5.385935e+14	2.926124e+14	1.094435e+04	5.238759e+03	1.946817e+03	0	6.400215e-04
1.350000e+09	5.093857e+12	0.000000e+00	4.422112e-01	1.092856e+14	5.356817e+14	2.914047e+14	1.093725e+04	5.235765e+03	1.945704e+03	0	6.383632e-04
1.360000e+09	5.054432e+12	0.000000e+00	4.422112e-01	1.087515e+14	5.328037e+14	2.902048e+14	1.093018e+04	5.232797e+03	1.944601e+03	0	6.367120e-04
