#t		Qconv[W]	Ri[Rp]		R*[Rp]		Qc[W]		Qm[W]		Qr[W]		Tcmb[K]		Tl[K]		Tup[K]		RiFlag		Bs[T]
0.000000e+00	5.952519e+13	0.000000e+00	4.371858e-01	7.720129e+14	4.354557e+15	8.835460e+14	1.778428e+04	9.653880e+03	2.837060e+03	0	1.438348e-03
1.000000e+07	5.861006e+13	0.000000e+00	4.371858e-01	7.628051e+14	4.235145e+15	8.786505e+14	1.775613e+04	9.613490e+03	2.825190e+03	0	1.430938e-03
2.000000e+07	5.771687e+13	0.000000e+00	4.371858e-01	7.538143e+14	4.122340e+15	8.737916e+14	1.772832e+04	9.574659e+03	2.813778e+03	0	1.423632e-03
3.000000e+07	5.684491e+13	0.000000e+00	4.371858e-01	7.450336e+14	4.015628e+15	8.689691e+14	1.770083e+04	9.537295e+03	2.802798e+03	0	1.416427e-03
4.000000e+07	5.599350e+13	0.000000e+00	4.371858e-01	7.364564e+14	3.914543e+15	8.641825e+14	1.767366e+04	9.501312e+03	2.792223e+03	0	1.409319e-03
5.000000e+07	5.516198e+13	0.000000e+00	4.371858e-01	7.280759e+14	3.818665e+15	8.594316e+14	1.764680e+04	9.466630e+03	2.782031e+03	0	1.402308e-03
6.000000e+07	5.434968e+13	0.000000e+00	4.371858e-01	7.198858e+14	3.727614e+15	8.547162e+14	1.762024e+04	9.433177e+03	2.772200e+03	0	1.395391e-03
7.000000e+07	5.355599e+13	0.000000e+00	4.371858e-01	7.118799e+14	3.641043e+15	8.500358e+14	1.759399e+04	9.400885e+03	2.762710e+03	0	1.388565e-03
8.000000e+07	5.278029e+13	0.000000e+00	4.371858e-01	7.040522e+14	3.558640e+15	8.453903e+14	1.756802e+04	9.369690e+03	2.753543e+03	0	1.381829e-03
9.000000e+07	5.202200e+13	0.000000e+00	4.371858e-01	6.963969e+14	3.480116e+15	8.407793e+14	1.754234e+04	9.339536e+03	2.744681e+03	0	1.375179e-03
1.000000e+08	5.128055e+13	0.000000e+00	4.371858e-01	6.889084e+14	3.405211e+15	8.362026e+14	1.751694e+04	9.310367e+03	2.736109e+03	0	1.368614e-03
1.100000e+08	5.055538e+13	0.000000e+00	4.371858e-01	6.815814e+14	3.333686e+15	8.316598e+14	1.749181e+04	9.282133e+03	2.727811e+03	0	1.362133e-03
1.200000e+08	4.984598e+13	0.000000e+00	4.371858e-01	6.744105e+14	3.265322e+15	8.271507e+14	1.746695e+04	9.254787e+03	2.719775e+03	0	1.355731e-03
1.300000e+08	4.915184e+13	0.000000e+00	4.371858e-01	6.673910e+14	3.199916e+15	8.226750e+14	1.744234e+04	9.228286e+03	2.711987e+03	0	1.349409e-03
1.400000e+08	4.847246e+13	0.000000e+00	4.371858e-01	6.605179e+14	3.137285e+15	8.182323e+14	1.741799e+04	9.202588e+03	2.704435e+03	0	1.343163e-03
1.500000e+08	4.780739e+13	0.000000e+00	4.371858e-01	6.537866e+14	3.077259e+15	8.138226e+14	1.739390e+04	9.177654e+03	2.697108e+03	0	1.336991e-03
1.600000e+08	4.715617e+13	0.000000e+00	4.371858e-01	6.471927e+14	3.019679e+15	8.094454e+14	1.737004e+04	9.153450e+03	2.689995e+03	0	1.330893e-03
1.700000e+08	4.651836e+13	0.000000e+00	4.371858e-01	6.407319e+14	2.964403e+15	8.051005e+14	1.734643e+04	9.129941e+03	2.683086e+03	0	1.324865e-03
1.800000e+08	4.589356e+13	0.000000e+00	4.371858e-01	6.344002e+14	2.911295e+15	8.007877e+14	1.732305e+04	9.107096e+03	2.676372e+03	0	1.318907e-03
1.900000e+08	4.528135e+13	0.000000e+00	4.371858e-01	6.281935e+14	2.860231e+15	7.965066e+14	1.729990e+04	9.084884e+03	2.669845e+03	0	1.313016e-03
2.000000e+08	4.468136e+13	0.000000e+00	4.371858e-01	6.221081e+14	2.811098e+15	7.922570e+14	1.727698e+04	9.063279e+03	2.663495e+03	0	1.307191e-03
2.100000e+08	4.409322e+13	0.000000e+00	4.371858e-01	6.161404e+14	2.763787e+15	7.880386e+14	1.725428e+04	9.042253e+03	2.657316e+03	0	1.301430e-03
2.200000e+08	4.351657e+13	0.000000e+00	4.371858e-01	6.102868e+14	2.718200e+15	7.838513e+14	1.723180e+04	9.021781e+03	2.651300e+03	0	1.295732e-03
2.300000e+08	4.295106e+13	0.000000e+00	4.371858e-01	6.045439e+14	2.674244e+15	7.796946e+14	1.720952e+04	9.001841e+03	2.645440e+03	0	1.290095e-03
2.400000e+08	4.239638e+13	0.000000e+00	4.371858e-01	5.989086e+14	2.631834e+15	7.755685e+14	1.718746e+04	8.982410e+03	2.639730e+03	0	1.284517e-03
2.500000e+08	4.185221e+13	0.000000e+00	4.371858e-01	5.933777e+14	2.590889e+15	7.714726e+14	1.716561e+04	8.963467e+03	2.634163e+03	0	1.278997e-03
2.600000e+08	4.131823e+13	0.000000e+00	4.371858e-01	5.879483e+14	2.551334e+15	7.674066e+14	1.714395e+04	8.944993e+03	2.628734e+03	0	1.273535e-03
2.700000e+08	4.079416e+13	0.000000e+00	4.371858e-01	5.826173e+14	2.513101e+15	7.633704e+14	1.712249e+04	8.926968e+03	2.623437e+03	0	1.268127e-03
2.800000e+08	4.027972e+13	0.000000e+00	4.371858e-01	5.773822e+14	2.476122e+15	7.593636e+14	1.710123e+04	8.909376e+03	2.618266e+03	0	1.262774e-03
2.900000e+08	3.977464e+13	0.000000e+00	4.371858e-01	5.722401e+14	2.440337e+15	7.553861e+14	1.708015e+04	8.892198e+03	2.613218e+03	0	1.257474e-03
3.000000e+08	3.927865e+13	0.000000e+00	4.371858e-01	5.671885e+14	2.405689e+15	7.514376e+14	1.705927e+04	8.875420e+03	2.608288e+03	0	1.252225e-03
3.100000e+08	3.879151e+13	0.000000e+00	4.371858e-01	5.622250e+14	2.372123e+15	7.475178e+14	1.703857e+04	8.859026e+03	2.603470e+03	0	1.247027e-03
3.200000e+08	3.831297e+13	0.000000e+00	4.371858e-01	5.573471e+14	2.339590e+15	7.436266e+14	1.701804e+04	8.843001e+03	2.598761e+03	0	1.241878e-03
3.300000e+08	3.784281e+13	0.000000e+00	4.371858e-01	5.525526e+14	2.308041e+15	7.397637e+14	1.699770e+04	8.827333e+03	2.594156e+03	0	1.236777e-03
3.400000e+08	3.738078e+13	0.000000e+00	4.371858e-01	5.478392e+14	2.277431e+15	7.359288e+14	1.697753e+04	8.812008e+03	2.589652e+03	0	1.231723e-03
3.500000e+08	3.692669e+13	0.000000e+00	4.371858e-01	5.432048e+14	2.247720e+15	7.321217e+14	1.695753e+04	8.797013e+03	2.585246e+03	0	1.226715e-03
3.600000e+08	3.648032e+13	0.000000e+00	4.371858e-01	5.386474e+14	2.218866e+15	7.283423e+14	1.693770e+04	8.782337e+03	2.580933e+03	0	1.221752e-03
3.700000e+08	3.604146e+13	0.000000e+00	4.371858e-01	5.341649e+14	2.190833e+15	7.245902e+14	1.691804e+04	8.767969e+03	2.576710e+03	0	1.216833e-03
3.800000e+08	3.560993e+13	0.000000e+00	4.371858e-01	5.297554e+14	2.163585e+15	7.208653e+14	1.689854e+04	8.753898e+03	2.572575e+03	0	1.211957e-03
3.900000e+08	3.518554e+13	0.000000e+00	4.371858e-01	5.254170e+14	2.137090e+15	7.171672e+14	1.687920e+04	8.740113e+03	2.568524e+03	0	1.207123e-03
4.000000e+08	3.476810e+13	0.000000e+00	4.371858e-01	5.211481e+14	2.111314e+15	7.134959e+14	1.686002e+04	8.726606e+03	2.564555e+03	0	1.202331e-03
4.100000e+08	3.435745e+13	0.000000e+00	4.371858e-01	5.169468e+14	2.086230e+15	7.098511e+14	1.684099e+04	8.713366e+03	2.560664e+03	0	1.197578e-03
4.200000e+08	3.395340e+13	0.000000e+00	4.371858e-01	5.128115e+14	2.061808e+15	7.062326e+14	1.682212e+04	8.700385e+03	2.556849e+03	0	1.192865e-03
4.300000e+08	3.355580e+13	0.000000e+00	4.371858e-01	5.087405e+14	2.038022e+15	7.026401e+14	1.680340e+04	8.687654e+03	2.553107e+03	0	1.188191e-03
4.400000e+08	3.316450e+13	0.000000e+00	4.371858e-01	5.047324e+14	2.014846e+15	6.990734e+14	1.678482e+04	8.675165e+03	2.549437e+03	0	1.183554e-03
4.500000e+08	3.277933e+13	0.000000e+00	4.371858e-01	5.007856e+14	1.992256e+15	6.955324e+14	1.676639e+04	8.662910e+03	2.545836e+03	0	1.178954e-03
4.600000e+08	3.240016e+13	0.000000e+00	4.371858e-01	4.968985e+14	1.970231e+15	6.920168e+14	1.674811e+04	8.650882e+03	2.542301e+03	0	1.174391e-03
4.700000e+08	3.202683e+13	0.000000e+00	4.371858e-01	4.930700e+14	1.948747e+15	6.885264e+14	1.672996e+04	8.639074e+03	2.538831e+03	0	1.169863e-03
4.800000e+08	3.165921e+13	0.000000e+00	4.371858e-01	4.892984e+14	1.927786e+15	6.850610e+14	1.671196e+04	8.627478e+03	2.535423e+03	0	1.165369e-03
4.900000e+08	3.129716e+13	0.000000e+00	4.371858e-01	4.855826e+14	1.907326e+15	6.816205e+14	1.669409e+04	8.616089e+03	2.532076e+03	0	1.160910e-03
5.000000e+08	3.094057e+13	0.000000e+00	4.371858e-01	4.819213e+14	1.887349e+15	6.782045e+14	1.667636e+04	8.604899e+03	2.528788e+03	0	1.156484e-03
5.100000e+08	3.058929e+13	0.000000e+00	4.371858e-01	4.783132e+14	1.867839e+15	6.748129e+14	1.665877e+04	8.593904e+03	2.525556e+03	0	1.152091e-03
5.200000e+08	3.024322e+13	0.000000e+00	4.371858e-01	4.747571e+14	1.848777e+15	6.714456e+14	1.664130e+04	8.583096e+03	2.522380e+03	0	1.147730e-03
5.300000e+08	2.990223e+13	0.000000e+00	4.371858e-01	4.712518e+14	1.830149e+15	6.681022e+14	1.662396e+04	8.572471e+03	2.519258e+03	0	1.143400e-03
5.400000e+08	2.956620e+13	0.000000e+00	4.371858e-01	4.677962e+14	1.811937e+15	6.647827e+14	1.660675e+04	8.562023e+03	2.516187e+03	0	1.139101e-03
5.500000e+08	2.923503e+13	0.000000e+00	4.371858e-01	4.643893e+14	1.794130e+15	6.614868e+14	1.658967e+04	8.551747e+03	2.513167e+03	0	1.134832e-03
5.600000e+08	2.890862e+13	0.000000e+00	4.371858e-01	4.610299e+14	1.776711e+15	6.582143e+14	1.657271e+04	8.541638e+03	2.510197e+03	0	1.130592e-03
5.700000e+08	2.858685e+13	0.000000e+00	4.371858e-01	4.577171e+14	1.759668e+15	6.549651e+14	1.655588e+04	8.531692e+03	2.507274e+03	0	1.126382e-03
5.800000e+08	2.826963e+13	0.000000e+00	4.371858e-01	4.544498e+14	1.742988e+15	6.517389e+14	1.653916e+04	8.521903e+03	2.504397e+03	0	1.122200e-03
5.900000e+08	2.795685e+13	0.000000e+00	4.371858e-01	4.512270e+14	1.726659e+15	6.485356e+14	1.652256e+04	8.512267e+03	2.501565e+03	0	1.118046e-03
6.000000e+08	2.764843e+13	0.000000e+00	4.371858e-01	4.480479e+14	1.710670e+15	6.453550e+14	1.650608e+04	8.502780e+03	2.498777e+03	0	1.113919e-03
6.100000e+08	2.734427e+13	0.000000e+00	4.371858e-01	4.449115e+14	1.695009e+15	6.421968e+14	1.648972e+04	8.493438e+03	2.496032e+03	0	1.109819e-03
6.200000e+08	2.704428e+13	0.000000e+00	4.371858e-01	4.418169e+14	1.679666e+15	6.390610e+14	1.647347e+04	8.484237e+03	2.493328e+03	0	1.105746e-03
6.300000e+08	2.674837e+13	0.000000e+00	4.371858e-01	4.387632e+14	1.664631e+15	6.359473e+14	1.645733e+04	8.475173e+03	2.490664e+03	0	1.101698e-03
6.400000e+08	2.645646e+13	0.000000e+00	4.371858e-01	4.357497e+14	1.649894e+15	6.328556e+14	1.644131e+04	8.466243e+03	2.488040e+03	0	1.097676e-03
6.500000e+08	2.616847e+13	0.000000e+00	4.371858e-01	4.327755e+14	1.635445e+15	6.297856e+14	1.642539e+04	8.457442e+03	2.485453e+03	0	1.093679e-03
6.600000e+08	2.588432e+13	0.000000e+00	4.371858e-01	4.298398e+14	1.621275e+15	6.267373e+14	1.640959e+04	8.448769e+03	2.482904e+03	0	1.089706e-03
6.700000e+08	2.560393e+13	0.000000e+00	4.371858e-01	4.269418e+14	1.607377e+15	6.237104e+14	1.639389e+04	8.440218e+03	2.480392e+03	0	1.085757e-03
6.800000e+08	2.532723e+13	0.000000e+00	4.371858e-01	4.240808e+14	1.593742e+15	6.207047e+14	1.637829e+04	8.431787e+03	2.477914e+03	0	1.081831e-03
6.900000e+08	2.505414e+13	0.000000e+00	4.371858e-01	4.212561e+14	1.580361e+15	6.177201e+14	1.636280e+04	8.423474e+03	2.475471e+03	0	1.077929e-03
7.000000e+08	2.478458e+13	0.000000e+00	4.371858e-01	4.184669e+14	1.567228e+15	6.147565e+14	1.634741e+04	8.415274e+03	2.473061e+03	0	1.074049e-03
7.100000e+08	2.451850e+13	0.000000e+00	4.371858e-01	4.157127e+14	1.554335e+15	6.118136e+14	1.633213e+04	8.407186e+03	2.470684e+03	0	1.070192e-03
7.200000e+08	2.425582e+13	0.000000e+00	4.371858e-01	4.129926e+14	1.541676e+15	6.088913e+14	1.631694e+04	8.399206e+03	2.468339e+03	0	1.066356e-03
7.300000e+08	2.399648e+13	0.000000e+00	4.371858e-01	4.103060e+14	1.529242e+15	6.059894e+14	1.630186e+04	8.391332e+03	2.466025e+03	0	1.062542e-03
7.400000e+08	2.374041e+13	0.000000e+00	4.371858e-01	4.076524e+14	1.517029e+15	6.031077e+14	1.628687e+04	8.383561e+03	2.463741e+03	0	1.058749e-03
7.500000e+08	2.348756e+13	0.000000e+00	4.371858e-01	4.050310e+14	1.505029e+15	6.002462e+14	1.627198e+04	8.375891e+03	2.461487e+03	0	1.054977e-03
7.600000e+08	2.323785e+13	0.000000e+00	4.371858e-01	4.024413e+14	1.493237e+15	5.974046e+14	1.625718e+04	8.368318e+03	2.459262e+03	0	1.051225e-03
7.700000e+08	2.299123e+13	0.000000e+00	4.371858e-01	3.998828e+14	1.481647e+15	5.945827e+14	1.624248e+04	8.360842e+03	2.457065e+03	0	1.047493e-03
7.800000e+08	2.274765e+13	0.000000e+00	4.371858e-01	3.973547e+14	1.470253e+15	5.917805e+14	1.622787e+04	8.353459e+03	2.454895e+03	0	1.043780e-03
7.900000e+08	2.250705e+13	0.000000e+00	4.371858e-01	3.948566e+14	1.459051e+15	5.889977e+14	1.621336e+04	8.346168e+03	2.452752e+03	0	1.040087e-03
8.000000e+08	2.226937e+13	0.000000e+00	4.371858e-01	3.923880e+14	1.448034e+15	5.862342e+14	1.619893e+04	8.338966e+03	2.450636e+03	0	1.036413e-03
8.100000e+08	2.203456e+13	0.000000e+00	4.371858e-01	3.899482e+14	1.437198e+15	5.834899e+14	1.618460e+04	8.331851e+03	2.448545e+03	0	1.032757e-03
8.200000e+08	2.180256e+13	0.000000e+00	4.371858e-01	3.875368e+14	1.426539e+15	5.807646e+14	1.617035e+04	8.324822e+03	2.446479e+03	0	1.029120e-03
8.300000e+08	2.157333e+13	0.000000e+00	4.371858e-01	3.851533e+14	1.416051e+15	5.780581e+14	1.615619e+04	8.317875e+03	2.444438e+03	0	1.025501e-03
8.400000e+08	2.134682e+13	0.000000e+00	4.371858e-01	3.827971e+14	1.405730e+15	5.753703e+14	1.614212e+04	8.311010e+03	2.442420e+03	0	1.021899e-03
8.500000e+08	2.112298e+13	0.000000e+00	4.371858e-01	3.804678e+14	1.395572e+15	5.727010e+14	1.612814e+04	8.304225e+03	2.440426e+03	0	1.018315e-03
8.600000e+08	2.090176e+13	0.000000e+00	4.371858e-01	3.781650e+14	1.385573e+15	5.700502e+14	1.611424e+04	8.297517e+03	2.438455e+03	0	1.014747e-03
8.700000e+08	2.068312e+13	0.000000e+00	4.371858e-01	3.758881e+14	1.375729e+15	5.674176e+14	1.610042e+04	8.290886e+03	2.436506e+03	0	1.011197e-03
8.800000e+08	2.046700e+13	0.000000e+00	4.371858e-01	3.736368e+14	1.366035e+15	5.648031e+14	1.608669e+04	8.284329e+03	2.434579e+03	0	1.007662e-03
8.900000e+08	2.025338e+13	0.000000e+00	4.371858e-01	3.714105e+14	1.356488e+15	5.622065e+14	1.607304e+04	8.277845e+03	2.432674e+03	0	1.004144e-03
9.000000e+08	2.004220e+13	0.000000e+00	4.371858e-01	3.692089e+14	1.347085e+15	5.596278e+14	1.605947e+04	8.271432e+03	2.430789e+03	0	1.000642e-03
9.100000e+08	1.983342e+13	0.000000e+00	4.371858e-01	3.670315e+14	1.337822e+15	5.570668e+14	1.604598e+04	8.265089e+03	2.428925e+03	0	9.971552e-04
9.200000e+08	1.962700e+13	0.000000e+00	4.371858e-01	3.648780e+14	1.328696e+15	5.545233e+14	1.603257e+04	8.258814e+03	2.427081e+03	0	9.936838e-04
9.300000e+08	1.942290e+13	0.000000e+00	4.371858e-01	3.627479e+14	1.319703e+15	5.519972e+14	1.601923e+04	8.252606e+03	2.425257e+03	0	9.902274e-04
9.400000e+08	1.922109e+13	0.000000e+00	4.371858e-01	3.606409e+14	1.310840e+15	5.494884e+14	1.600598e+04	8.246463e+03	2.423451e+03	0	9.867858e-04
9.500000e+08	1.902152e+13	0.000000e+00	4.371858e-01	3.585565e+14	1.302104e+15	5.469967e+14	1.599280e+04	8.240385e+03	2.421665e+03	0	9.833588e-04
9.600000e+08	1.882416e+13	0.000000e+00	4.371858e-01	3.564945e+14	1.293492e+15	5.445219e+14	1.597970e+04	8.234369e+03	2.419897e+03	0	9.799460e-04
9.700000e+08	1.862897e+13	0.000000e+00	4.371858e-01	3.544544e+14	1.285002e+15	5.420641e+14	1.596668e+04	8.228415e+03	2.418147e+03	0	9.765471e-04
9.800000e+08	1.843592e+13	0.000000e+00	4.371858e-01	3.524358e+14	1.276630e+15	5.396229e+14	1.595372e+04	8.222521e+03	2.416415e+03	0	9.731621e-04
9.900000e+08	1.824497e+13	0.000000e+00	4.371858e-01	3.504385e+14	1.268374e+15	5.371984e+14	1.594085e+04	8.216687e+03	2.414701e+03	0	9.697906e-04
1.000000e+09	1.805609e+13	0.000000e+00	4.371858e-01	3.484621e+14	1.260231e+15	5.347903e+14	1.592804e+04	8.210910e+03	2.413003e+03	0	9.664323e-04
1.010000e+09	1.786924e+13	0.000000e+00	4.371858e-01	3.465063e+14	1.252199e+15	5.323986e+14	1.591531e+04	8.205190e+03	2.411322e+03	0	9.630871e-04
1.020000e+09	1.768439e+13	0.000000e+00	4.371858e-01	3.445707e+14	1.244275e+15	5.300230e+14	1.590265e+04	8.199525e+03	2.409657e+03	0	9.597547e-04
1.030000e+09	1.750151e+13	0.000000e+00	4.371858e-01	3.426551e+14	1.236457e+15	5.276635e+14	1.589006e+04	8.193915e+03	2.408009e+03	0	9.564349e-04
1.040000e+09	1.732057e+13	0.000000e+00	4.371858e-01	3.407590e+14	1.228743e+15	5.253200e+14	1.587753e+04	8.188359e+03	2.406376e+03	0	9.531274e-04
1.050000e+09	1.714154e+13	0.000000e+00	4.371858e-01	3.388823e+14	1.221130e+15	5.229923e+14	1.586508e+04	8.182855e+03	2.404758e+03	0	9.498321e-04
1.060000e+09	1.696439e+13	0.000000e+00	4.371858e-01	3.370246e+14	1.213616e+15	5.206803e+14	1.585270e+04	8.177402e+03	2.403156e+03	0	9.465487e-04
1.070000e+09	1.678908e+13	0.000000e+00	4.371858e-01	3.351856e+14	1.206200e+15	5.183839e+14	1.584038e+04	8.172000e+03	2.401568e+03	0	9.432769e-04
1.080000e+09	1.661560e+13	0.000000e+00	4.371858e-01	3.333651e+14	1.198878e+15	5.161029e+14	1.582813e+04	8.166648e+03	2.399995e+03	0	9.400167e-04
1.090000e+09	1.644391e+13	0.000000e+00	4.371858e-01	3.315627e+14	1.191649e+15	5.138372e+14	1.581595e+04	8.161344e+03	2.398437e+03	0	9.367677e-04
1.100000e+09	1.627399e+13	0.000000e+00	4.371858e-01	3.297783e+14	1.184512e+15	5.115868e+14	1.580383e+04	8.156088e+03	2.396892e+03	0	9.335298e-04
1.110000e+09	1.610580e+13	0.000000e+00	4.371858e-01	3.280114e+14	1.177464e+15	5.093515e+14	1.579178e+04	8.150879e+03	2.395361e+03	0	9.303028e-04
1.120000e+09	1.593933e+13	0.000000e+00	4.371858e-01	3.262619e+14	1.170503e+15	5.071311e+14	1.577980e+04	8.145716e+03	2.393844e+03	0	9.270864e-04
1.130000e+09	1.577454e+13	0.000000e+00	4.371858e-01	3.245295e+14	1.163628e+15	5.049256e+14	1.576787e+04	8.140598e+03	2.392340e+03	0	9.238805e-04
1.140000e+09	1.561142e+13	0.000000e+00	4.371858e-01	3.228139e+14	1.156837e+15	5.027348e+14	1.575601e+04	8.135524e+03	2.390849e+03	0	9.206849e-04
1.150000e+09	1.544993e+13	0.000000e+00	4.371858e-01	3.211150e+14	1.150128e+15	5.005587e+14	1.574421e+04	8.130494e+03	2.389371e+03	0	9.174993e-04
1.160000e+09	1.529006e+13	0.000000e+00	4.371858e-01	3.194324e+14	1.143500e+15	4.983971e+14	1.573248e+04	8.125507e+03	2.387905e+03	0	9.143236e-04
1.170000e+09	1.513177e+13	0.000000e+00	4.371858e-01	3.177660e+14	1.136951e+15	4.962499e+14	1.572080e+04	8.120562e+03	2.386452e+03	0	9.111576e-04
1.180000e+09	1.497505e+13	0.000000e+00	4.371858e-01	3.161154e+14	1.130479e+15	4.941169e+14	1.570919e+04	8.115658e+03	2.385011e+03	0	9.080011e-04
1.190000e+09	1.481988e+13	0.000000e+00	4.371858e-01	3.144805e+14	1.124083e+15	4.919982e+14	1.569764e+04	8.110795e+03	2.383582e+03	0	9.048539e-04
1.200000e+09	1.466622e+13	0.000000e+00	4.371858e-01	3.128611e+14	1.117763e+15	4.898935e+14	1.568614e+04	8.105972e+03	2.382164e+03	0	9.017158e-04
1.210000e+09	1.451407e+13	0.000000e+00	4.371858e-01	3.112569e+14	1.111515e+15	4.878028e+14	1.567471e+04	8.101188e+03	2.380758e+03	0	8.985866e-04
1.220000e+09	1.436339e+13	0.000000e+00	4.371858e-01	3.096676e+14	1.105339e+15	4.857259e+14	1.566333e+04	8.096443e+03	2.379364e+03	0	8.954663e-04
1.230000e+09	1.421417e+13	0.000000e+00	4.371858e-01	3.080932e+14	1.099234e+15	4.836627e+14	1.565202e+04	8.091736e+03	2.377980e+03	0	8.923545e-04
1.240000e+09	1.406639e+13	0.000000e+00	4.371858e-01	3.065334e+14	1.093197e+15	4.816132e+14	1.564076e+04	8.087066e+03	2.376608e+03	0	8.892511e-04
1.250000e+09	1.392002e+13	0.000000e+00	4.371858e-01	3.049880e+14	1.087229e+15	4.795773e+14	1.562955e+04	8.082433e+03	2.375246e+03	0	8.861560e-04
1.260000e+09	1.377505e+13	0.000000e+00	4.371858e-01	3.034568e+14	1.081327e+15	4.775547e+14	1.561840e+04	8.077835e+03	2.373895e+03	0	8.830689e-04
1.270000e+09	1.363145e+13	0.000000e+00	4.371858e-01	3.019395e+14	1.075491e+15	4.755455e+14	1.560731e+04	8.073274e+03	2.372555e+03	0	8.799897e-04
1.280000e+09	1.348921e+13	0.000000e+00	4.371858e-01	3.004361e+14	1.069719e+15	4.735495e+14	1.559628e+04	8.068747e+03	2.371224e+03	0	8.769182e-04
1.290000e+09	1.334831e+13	0.000000e+00	4.371858e-01	2.989463e+14	1.064010e+15	4.715666e+14	1.558530e+04	8.064254e+03	2.369904e+03	0	8.738543e-04
1.300000e+09	1.320873e+13	0.000000e+00	4.371858e-01	2.974699e+14	1.058363e+15	4.695967e+14	1.557437e+04	8.059796e+03	2.368594e+03	0	8.707977e-04
1.310000e+09	1.307046e+13	0.000000e+00	4.371858e-01	2.960068e+14	1.052777e+15	4.676398e+14	1.556350e+04	8.055371e+03	2.367293e+03	0	8.677484e-04
1.320000e+09	1.293347e+13	0.000000e+00	4.371858e-01	2.945568e+14	1.047251e+15	4.656956e+14	1.555268e+04	8.050978e+03	2.366003e+03	0	8.647061e-04
1.330000e+09	1.279774e+13	0.000000e+00	4.371858e-01	2.931196e+14	1.041783e+15	4.637642e+14	1.554191e+04	8.046618e+03	2.364721e+03	0	8.616707e-04
1.340000e+09	1.266327e+13	0.000000e+00	4.371858e-01	2.916952e+14	1.036373e+15	4.618454e+14	1.553120e+04	8.042289e+03	2.363449e+03	0	8.586420e-04
1.350000e+09	1.253003e+13	0.000000e+00	4.371858e-01	2.902834e+14	1.031021e+15	4.599391e+14	1.552053e+04	8.037992e+03	2.362186e+03	0	8.556199e-04
1.360000e+09	1.239800e+13	0.000000e+00	4.371858e-01	2.888839e+14	1.025723e+15	4.580452e+14	1.550992e+04	8.033726e+03	2.360932e+03	0	8.526042e-04
