#t		Qconv[W]	Ri[Rp]		R*[Rp]		Qc[W]		Qm[W]		Qr[W]		Tcmb[K]		Tl[K]		Tup[K]		RiFlag		Bs[T]
0.000000e+00	6.864123e+13	0.000000e+00	4.371859e-01	8.806338e+14	4.290984e+15	9.571936e+14	1.885523e+04	1.019909e+04	2.877418e+03	0	1.503683e-03
1.000000e+07	6.763489e+13	0.000000e+00	4.371859e-01	8.709407e+14	4.192610e+15	9.518900e+14	1.882650e+04	1.016469e+04	2.867712e+03	0	1.496299e-03
2.000000e+07	6.665068e+13	0.000000e+00	4.371859e-01	8.614566e+14	4.098914e+15	9.466261e+14	1.879809e+04	1.013145e+04	2.858334e+03	0	1.489005e-03
3.000000e+07	6.568792e+13	0.000000e+00	4.371859e-01	8.521750e+14	4.009577e+15	9.414016e+14	1.876998e+04	1.009930e+04	2.849265e+03	0	1.481801e-03
4.000000e+07	6.474593e+13	0.000000e+00	4.371859e-01	8.430899e+14	3.924309e+15	9.362160e+14	1.874218e+04	1.006820e+04	2.840490e+03	0	1.474684e-03
5.000000e+07	6.382408e+13	0.000000e+00	4.371859e-01	8.341950e+14	3.842844e+15	9.310691e+14	1.871467e+04	1.003808e+04	2.831994e+03	0	1.467651e-03
6.000000e+07	6.292174e+13	0.000000e+00	4.371859e-01	8.254846e+14	3.764936e+15	9.259606e+14	1.868745e+04	1.000891e+04	2.823762e+03	0	1.460702e-03
7.000000e+07	6.203832e+13	0.000000e+00	4.371859e-01	8.169531e+14	3.690363e+15	9.208902e+14	1.866052e+04	9.980621e+03	2.815782e+03	0	1.453834e-03
8.000000e+07	6.117324e+13	0.000000e+00	4.371859e-01	8.085950e+14	3.618918e+15	9.158574e+14	1.863386e+04	9.953186e+03	2.808042e+03	0	1.447044e-03
9.000000e+07	6.032593e+13	0.000000e+00	4.371859e-01	8.004051e+14	3.550410e+15	9.108621e+14	1.860747e+04	9.926559e+03	2.800530e+03	0	1.440332e-03
1.000000e+08	5.949587e+13	0.000000e+00	4.371859e-01	7.923784e+14	3.484665e+15	9.059038e+14	1.858135e+04	9.900705e+03	2.793236e+03	0	1.433696e-03
1.100000e+08	5.868252e+13	0.000000e+00	4.371859e-01	7.845099e+14	3.421520e+15	9.009824e+14	1.855550e+04	9.875586e+03	2.786149e+03	0	1.427133e-03
1.200000e+08	5.788540e+13	0.000000e+00	4.371859e-01	7.767949e+14	3.360825e+15	8.960974e+14	1.852989e+04	9.851169e+03	2.779261e+03	0	1.420641e-03
1.300000e+08	5.710403e+13	0.000000e+00	4.371859e-01	7.692290e+14	3.302442e+15	8.912486e+14	1.850454e+04	9.827424e+03	2.772562e+03	0	1.414220e-03
1.400000e+08	5.633793e+13	0.000000e+00	4.371859e-01	7.618078e+14	3.246241e+15	8.864357e+14	1.847944e+04	9.804321e+03	2.766044e+03	0	1.407867e-03
1.500000e+08	5.558666e+13	0.000000e+00	4.371859e-01	7.545271e+14	3.192104e+15	8.816584e+14	1.845457e+04	9.781831e+03	2.759699e+03	0	1.401581e-03
1.600000e+08	5.484979e+13	0.000000e+00	4.371859e-01	7.473829e+14	3.139918e+15	8.769163e+14	1.842994e+04	9.759929e+03	2.753520e+03	0	1.395360e-03
1.700000e+08	5.412690e+13	0.000000e+00	4.371859e-01	7.403711e+14	3.089580e+15	8.722093e+14	1.840555e+04	9.738591e+03	2.747500e+03	0	1.389203e-03
1.800000e+08	5.341761e+13	0.000000e+00	4.371859e-01	7.334882e+14	3.040994e+15	8.675369e+14	1.838138e+04	9.717792e+03	2.741632e+03	0	1.383108e-03
1.900000e+08	5.272151e+13	0.000000e+00	4.371859e-01	7.267305e+14	2.994069e+15	8.628990e+14	1.835744e+04	9.697511e+03	2.735910e+03	0	1.377074e-03
2.000000e+08	5.203825e+13	0.000000e+00	4.371859e-01	7.200944e+14	2.948721e+15	8.582952e+14	1.833372e+04	9.677726e+03	2.730328e+03	0	1.371099e-03
2.100000e+08	5.136746e+13	0.000000e+00	4.371859e-01	7.135767e+14	2.904873e+15	8.537252e+14	1.831021e+04	9.658419e+03	2.724881e+03	0	1.365183e-03
2.200000e+08	5.070880e+13	0.000000e+00	4.371859e-01	7.071741e+14	2.862449e+15	8.491888e+14	1.828692e+04	9.639570e+03	2.719564e+03	0	1.359322e-03
2.300000e+08	5.006194e+13	0.000000e+00	4.371859e-01	7.008834e+14	2.821381e+15	8.446857e+14	1.826383e+04	9.621162e+03	2.714370e+03	0	1.353518e-03
2.400000e+08	4.942656e+13	0.000000e+00	4.371859e-01	6.947018e+14	2.781604e+15	8.402156e+14	1.824095e+04	9.603177e+03	2.709296e+03	0	1.347767e-03
2.500000e+08	4.880235e+13	0.000000e+00	4.371859e-01	6.886261e+14	2.743057e+15	8.357783e+14	1.821827e+04	9.585600e+03	2.704337e+03	0	1.342069e-03
2.600000e+08	4.818901e+13	0.000000e+00	4.371859e-01	6.826538e+14	2.705685e+15	8.313734e+14	1.819579e+04	9.568416e+03	2.699489e+03	0	1.336423e-03
2.700000e+08	4.758625e+13	0.000000e+00	4.371859e-01	6.767820e+14	2.669432e+15	8.270007e+14	1.817350e+04	9.551610e+03	2.694748e+03	0	1.330828e-03
2.800000e+08	4.699380e+13	0.000000e+00	4.371859e-01	6.710081e+14	2.634248e+15	8.226600e+14	1.815140e+04	9.535168e+03	2.690109e+03	0	1.325282e-03
2.900000e+08	4.641140e+13	0.000000e+00	4.371859e-01	6.653297e+14	2.600086e+15	8.183510e+14	1.812950e+04	9.519078e+03	2.685570e+03	0	1.319784e-03
3.000000e+08	4.583877e+13	0.000000e+00	4.371859e-01	6.597442e+14	2.566901e+15	8.140733e+14	1.810777e+04	9.503326e+03	2.681126e+03	0	1.314334e-03
3.100000e+08	4.527568e+13	0.000000e+00	4.371859e-01	6.542494e+14	2.534651e+15	8.098268e+14	1.808623e+04	9.487902e+03	2.676774e+03	0	1.308930e-03
3.200000e+08	4.472187e+13	0.000000e+00	4.371859e-01	6.488430e+14	2.503296e+15	8.056113e+14	1.806487e+04	9.472792e+03	2.672511e+03	0	1.303571e-03
3.300000e+08	4.417713e+13	0.000000e+00	4.371859e-01	6.435228e+14	2.472798e+15	8.014263e+14	1.804368e+04	9.457988e+03	2.668335e+03	0	1.298257e-03
3.400000e+08	4.364122e+13	0.000000e+00	4.371859e-01	6.382866e+14	2.443121e+15	7.972718e+14	1.802267e+04	9.443478e+03	2.664241e+03	0	1.292986e-03
3.500000e+08	4.311393e+13	0.000000e+00	4.371859e-01	6.331324e+14	2.414232e+15	7.931474e+14	1.800182e+04	9.429253e+03	2.660228e+03	0	1.287757e-03
3.600000e+08	4.259504e+13	0.000000e+00	4.371859e-01	6.280583e+14	2.386099e+15	7.890529e+14	1.798115e+04	9.415302e+03	2.656292e+03	0	1.282570e-03
3.700000e+08	4.208436e+13	0.000000e+00	4.371859e-01	6.230623e+14	2.358692e+15	7.849881e+14	1.796064e+04	9.401618e+03	2.652431e+03	0	1.277424e-03
3.800000e+08	4.158168e+13	0.000000e+00	4.371859e-01	6.181425e+14	2.331982e+15	7.809526e+14	1.794029e+04	9.388192e+03	2.648643e+03	0	1.272317e-03
3.900000e+08	4.108682e+13	0.000000e+00	4.371859e-01	6.132972e+14	2.305941e+15	7.769464e+14	1.792011e+04	9.375014e+03	2.644926e+03	0	1.267250e-03
4.000000e+08	4.059958e+13	0.000000e+00	4.371859e-01	6.085246e+14	2.280544e+15	7.729691e+14	1.790008e+04	9.362078e+03	2.641276e+03	0	1.262221e-03
4.100000e+08	4.011980e+13	0.000000e+00	4.371859e-01	6.038231e+14	2.255767e+15	7.690204e+14	1.788020e+04	9.349376e+03	2.637692e+03	0	1.257229e-03
4.200000e+08	3.964730e+13	0.000000e+00	4.371859e-01	5.991910e+14	2.231586e+15	7.651002e+14	1.786048e+04	9.336900e+03	2.634173e+03	0	1.252274e-03
4.300000e+08	3.918191e+13	0.000000e+00	4.371859e-01	5.946267e+14	2.207978e+15	7.612083e+14	1.784091e+04	9.324644e+03	2.630715e+03	0	1.247355e-03
4.400000e+08	3.872348e+13	0.000000e+00	4.371859e-01	5.901287e+14	2.184924e+15	7.573443e+14	1.782149e+04	9.312600e+03	2.627317e+03	0	1.242471e-03
4.500000e+08	3.827183e+13	0.000000e+00	4.371859e-01	5.856955e+14	2.162402e+15	7.535082e+14	1.780222e+04	9.300763e+03	2.623978e+03	0	1.237621e-03
4.600000e+08	3.782682e+13	0.000000e+00	4.371859e-01	5.813256e+14	2.140394e+15	7.496995e+14	1.778309e+04	9.289126e+03	2.620695e+03	0	1.232806e-03
4.700000e+08	3.738831e+13	0.000000e+00	4.371859e-01	5.770178e+14	2.118882e+15	7.459182e+14	1.776410e+04	9.277684e+03	2.617466e+03	0	1.228023e-03
4.800000e+08	3.695615e+13	0.000000e+00	4.371859e-01	5.727706e+14	2.097848e+15	7.421640e+14	1.774525e+04	9.266430e+03	2.614291e+03	0	1.223274e-03
4.900000e+08	3.653020e+13	0.000000e+00	4.371859e-01	5.685827e+14	2.077275e+15	7.384366e+14	1.772655e+04	9.255359e+03	2.611168e+03	0	1.218556e-03
5.000000e+08	3.611032e+13	0.000000e+00	4.371859e-01	5.644528e+14	2.057148e+15	7.347359e+14	1.770797e+04	9.244467e+03	2.608095e+03	0	1.213869e-03
5.100000e+08	3.569639e+13	0.000000e+00	4.371859e-01	5.603798e+14	2.037452e+15	7.310617e+14	1.768954e+04	9.233747e+03	2.605071e+03	0	1.209213e-03
5.200000e+08	3.528827e+13	0.000000e+00	4.371859e-01	5.563623e+14	2.018171e+15	7.274136e+14	1.767123e+04	9.223195e+03	2.602094e+03	0	1.204587e-03
5.300000e+08	3.488585e+13	0.000000e+00	4.371859e-01	5.523993e+14	1.999294e+15	7.237916e+14	1.765306e+04	9.212807e+03	2.599163e+03	0	1.199991e-03
5.400000e+08	3.448900e+13	0.000000e+00	4.371859e-01	5.484896e+14	1.980805e+15	7.201954e+14	1.763501e+04	9.202577e+03	2.596277e+03	0	1.195423e-03
5.500000e+08	3.409761e+13	0.000000e+00	4.371859e-01	5.446321e+14	1.962693e+15	7.166247e+14	1.761709e+04	9.192502e+03	2.593434e+03	0	1.190884e-03
5.600000e+08	3.371157e+13	0.000000e+00	4.371859e-01	5.408257e+14	1.944945e+15	7.130795e+14	1.759930e+04	9.182577e+03	2.590634e+03	0	1.186372e-03
5.700000e+08	3.333076e+13	0.000000e+00	4.371859e-01	5.370694e+14	1.927551e+15	7.095594e+14	1.758164e+04	9.172799e+03	2.587876e+03	0	1.181888e-03
5.800000e+08	3.295508e+13	0.000000e+00	4.371859e-01	5.333622e+14	1.910498e+15	7.060643e+14	1.756409e+04	9.163163e+03	2.585157e+03	0	1.177431e-03
5.900000e+08	3.258442e+13	0.000000e+00	4.371859e-01	5.297031e+14	1.893777e+15	7.025940e+14	1.754667e+04	9.153665e+03	2.582478e+03	0	1.173000e-03
6.000000e+08	3.221869e+13	0.000000e+00	4.371859e-01	5.260911e+14	1.877376e+15	6.991482e+14	1.752936e+04	9.144303e+03	2.579836e+03	0	1.168595e-03
6.100000e+08	3.185778e+13	0.000000e+00	4.371859e-01	5.225254e+14	1.861287e+15	6.957268e+14	1.751217e+04	9.135072e+03	2.577232e+03	0	1.164215e-03
6.200000e+08	3.150160e+13	0.000000e+00	4.371859e-01	5.190049e+14	1.845500e+15	6.923296e+14	1.749510e+04	9.125969e+03	2.574664e+03	0	1.159860e-03
6.300000e+08	3.115005e+13	0.000000e+00	4.371859e-01	5.155289e+14	1.830005e+15	6.889564e+14	1.747815e+04	9.116991e+03	2.572131e+03	0	1.155529e-03
6.400000e+08	3.080305e+13	0.000000e+00	4.371859e-01	5.120965e+14	1.814795e+15	6.856070e+14	1.746130e+04	9.108134e+03	2.569632e+03	0	1.151223e-03
6.500000e+08	3.046051e+13	0.000000e+00	4.371859e-01	5.087068e+14	1.799861e+15	6.822811e+14	1.744457e+04	9.099397e+03	2.567167e+03	0	1.146939e-03
6.600000e+08	3.012234e+13	0.000000e+00	4.371859e-01	5.053590e+14	1.785195e+15	6.789787e+14	1.742795e+04	9.090775e+03	2.564735e+03	0	1.142679e-03
6.700000e+08	2.978846e+13	0.000000e+00	4.371859e-01	5.020524e+14	1.770789e+15	6.756994e+14	1.741144e+04	9.082266e+03	2.562334e+03	0	1.138442e-03
6.800000e+08	2.945879e+13	0.000000e+00	4.371859e-01	4.987861e+14	1.756636e+15	6.724433e+14	1.739504e+04	9.073867e+03	2.559965e+03	0	1.134226e-03
6.900000e+08	2.913325e+13	0.000000e+00	4.371859e-01	4.955594e+14	1.742729e+15	6.692099e+14	1.737874e+04	9.065576e+03	2.557625e+03	0	1.130033e-03
7.000000e+08	2.881175e+13	0.000000e+00	4.371859e-01	4.923716e+14	1.729060e+15	6.659992e+14	1.736255e+04	9.057390e+03	2.555316e+03	0	1.125861e-03
7.100000e+08	2.849423e+13	0.000000e+00	4.371859e-01	4.892220e+14	1.715625e+15	6.628110e+14	1.734646e+04	9.049306e+03	2.553035e+03	0	1.121709e-03
7.200000e+08	2.818061e+13	0.000000e+00	4.371859e-01	4.861098e+14	1.702415e+15	6.596451e+14	1.733047e+04	9.041322e+03	2.550783e+03	0	1.117579e-03
7.300000e+08	2.787082e+13	0.000000e+00	4.371859e-01	4.830345e+14	1.689425e+15	6.565013e+14	1.731459e+04	9.033436e+03	2.548558e+03	0	1.113469e-03
7.400000e+08	2.756480e+13	0.000000e+00	4.371859e-01	4.799952e+14	1.676650e+15	6.533795e+14	1.729881e+04	9.025645e+03	2.546360e+03	0	1.109378e-03
7.500000e+08	2.726246e+13	0.000000e+00	4.371859e-01	4.769915e+14	1.664083e+15	6.502794e+14	1.728312e+04	9.017947e+03	2.544188e+03	0	1.105307e-03
7.600000e+08	2.696375e+13	0.000000e+00	4.371859e-01	4.740226e+14	1.651718e+15	6.472009e+14	1.726754e+04	9.010341e+03	2.542042e+03	0	1.101256e-03
7.700000e+08	2.666860e+13	0.000000e+00	4.371859e-01	4.710879e+14	1.639552e+15	6.441439e+14	1.725205e+04	9.002823e+03	2.539921e+03	0	1.097223e-03
7.800000e+08	2.637695e+13	0.000000e+00	4.371859e-01	4.681869e+14	1.627578e+15	6.411080e+14	1.723665e+04	8.995393e+03	2.537825e+03	0	1.093208e-03
7.900000e+08	2.608874e+13	0.000000e+00	4.371859e-01	4.653189e+14	1.615792e+15	6.380933e+14	1.722135e+04	8.988047e+03	2.535753e+03	0	1.089212e-03
8.000000e+08	2.580391e+13	0.000000e+00	4.371859e-01	4.624835e+14	1.604188e+15	6.350995e+14	1.720615e+04	8.980785e+03	2.533704e+03	0	1.085234e-03
8.100000e+08	2.552239e+13	0.000000e+00	4.371859e-01	4.596799e+14	1.592763e+15	6.321264e+14	1.719103e+04	8.973605e+03	2.531678e+03	0	1.081272e-03
8.200000e+08	2.524413e+13	0.000000e+00	4.371859e-01	4.569077e+14	1.581512e+15	6.291739e+14	1.717601e+04	8.966504e+03	2.529675e+03	0	1.077329e-03
8.300000e+08	2.496908e+13	0.000000e+00	4.371859e-01	4.541664e+14	1.570431e+15	6.262418e+14	1.716108e+04	8.959481e+03	2.527693e+03	0	1.073402e-03
8.400000e+08	2.469717e+13	0.000000e+00	4.371859e-01	4.514555e+14	1.559515e+15	6.233300e+14	1.714624e+04	8.952534e+03	2.525733e+03	0	1.069491e-03
8.500000e+08	2.442837e+13	0.000000e+00	4.371859e-01	4.487743e+14	1.548760e+15	6.204382e+14	1.713148e+04	8.945662e+03	2.523795e+03	0	1.065597e-03
8.600000e+08	2.416260e+13	0.000000e+00	4.371859e-01	4.461225e+14	1.538164e+15	6.175664e+14	1.711682e+04	8.938863e+03	2.521876e+03	0	1.061718e-03
8.700000e+08	2.389983e+13	0.000000e+00	4.371859e-01	4.434995e+14	1.527721e+15	6.147144e+14	1.710224e+04	8.932135e+03	2.519978e+03	0	1.057855e-03
8.800000e+08	2.364001e+13	0.000000e+00	4.371859e-01	4.409049e+14	1.517428e+15	6.118820e+14	1.708774e+04	8.925478e+03	2.518100e+03	0	1.054008e-03
8.900000e+08	2.338307e+13	0.000000e+00	4.371859e-01	4.383382e+14	1.507282e+15	6.090690e+14	1.707333e+04	8.918889e+03	2.516241e+03	0	1.050176e-03
9.000000e+08	2.312899e+13	0.000000e+00	4.371859e-01	4.357990e+14	1.497280e+15	6.062753e+14	1.705901e+04	8.912368e+03	2.514402e+03	0	1.046358e-03
9.100000e+08	2.287771e+13	0.000000e+00	4.371859e-01	4.332867e+14	1.487417e+15	6.035008e+14	1.704476e+04	8.905912e+03	2.512580e+03	0	1.042555e-03
9.200000e+08	2.262918e+13	0.000000e+00	4.371859e-01	4.308011e+14	1.477692e+15	6.007453e+14	1.703060e+04	8.899521e+03	2.510777e+03	0	1.038766e-03
9.300000e+08	2.238336e+13	0.000000e+00	4.371859e-01	4.283416e+14	1.468100e+15	5.980087e+14	1.701652e+04	8.893193e+03	2.508992e+03	0	1.034991e-03
9.400000e+08	2.214021e+13	0.000000e+00	4.371859e-01	4.259078e+14	1.458640e+15	5.952907e+14	1.700252e+04	8.886928e+03	2.507224e+03	0	1.031229e-03
9.500000e+08	2.189968e+13	0.000000e+00	4.371859e-01	4.234994e+14	1.449307e+15	5.925913e+14	1.698860e+04	8.880723e+03	2.505474e+03	0	1.027481e-03
9.600000e+08	2.166173e+13	0.000000e+00	4.371859e-01	4.211159e+14	1.440099e+15	5.899103e+14	1.697476e+04	8.874578e+03	2.503740e+03	0	1.023747e-03
9.700000e+08	2.142633e+13	0.000000e+00	4.371859e-01	4.187570e+14	1.431014e+15	5.872476e+14	1.696100e+04	8.868491e+03	2.502023e+03	0	1.020025e-03
9.800000e+08	2.119343e+13	0.000000e+00	4.371859e-01	4.164222e+14	1.422048e+15	5.846030e+14	1.694731e+04	8.862462e+03	2.500322e+03	0	1.016315e-03
9.900000e+08	2.096299e+13	0.000000e+00	4.371859e-01	4.141113e+14	1.413200e+15	5.819763e+14	1.693370e+04	8.856489e+03	2.498637e+03	0	1.012618e-03
1.000000e+09	2.073498e+13	0.000000e+00	4.371859e-01	4.118238e+14	1.404467e+15	5.793675e+14	1.692016e+04	8.850571e+03	2.496967e+03	0	1.008934e-03
1.010000e+09	2.050935e+13	0.000000e+00	4.371859e-01	4.095593e+14	1.395845e+15	5.767764e+14	1.690670e+04	8.844707e+03	2.495313e+03	0	1.005261e-03
1.020000e+09	2.028608e+13	0.000000e+00	4.371859e-01	4.073176e+14	1.387334e+15	5.742028e+14	1.689331e+04	8.838897e+03	2.493674e+03	0	1.001599e-03
1.030000e+09	2.006512e+13	0.000000e+00	4.371859e-01	4.050983e+14	1.378930e+15	5.716467e+14	1.688000e+04	8.833138e+03	2.492049e+03	0	9.979496e-04
1.040000e+09	1.984644e+13	0.000000e+00	4.371859e-01	4.029010e+14	1.370632e+15	5.691078e+14	1.686676e+04	8.827431e+03	2.490439e+03	0	9.943110e-04
1.050000e+09	1.963000e+13	0.000000e+00	4.371859e-01	4.007255e+14	1.362437e+15	5.665861e+14	1.685359e+04	8.821774e+03	2.488843e+03	0	9.906833e-04
1.060000e+09	1.941578e+13	0.000000e+00	4.371859e-01	3.985713e+14	1.354343e+15	5.640813e+14	1.684049e+04	8.816167e+03	2.487261e+03	0	9.870663e-04
1.070000e+09	1.920374e+13	0.000000e+00	4.371859e-01	3.964383e+14	1.346349e+15	5.615935e+14	1.682746e+04	8.810608e+03	2.485693e+03	0	9.834598e-04
1.080000e+09	1.899384e+13	0.000000e+00	4.371859e-01	3.943260e+14	1.338452e+15	5.591224e+14	1.681450e+04	8.805097e+03	2.484138e+03	0	9.798636e-04
1.090000e+09	1.878605e+13	0.000000e+00	4.371859e-01	3.922342e+14	1.330650e+15	5.566679e+14	1.680161e+04	8.799633e+03	2.482596e+03	0	9.762774e-04
1.100000e+09	1.858035e+13	0.000000e+00	4.371859e-01	3.901626e+14	1.322941e+15	5.542299e+14	1.678879e+04	8.794214e+03	2.481068e+03	0	9.727010e-04
1.110000e+09	1.837670e+13	0.000000e+00	4.371859e-01	3.881109e+14	1.315324e+15	5.518082e+14	1.677604e+04	8.788841e+03	2.479552e+03	0	9.691342e-04
1.120000e+09	1.817508e+13	0.000000e+00	4.371859e-01	3.860788e+14	1.307797e+15	5.494028e+14	1.676335e+04	8.783512e+03	2.478048e+03	0	9.655767e-04
1.130000e+09	1.797545e+13	0.000000e+00	4.371859e-01	3.840660e+14	1.300358e+15	5.470134e+14	1.675073e+04	8.778227e+03	2.476557e+03	0	9.620285e-04
1.140000e+09	1.777778e+13	0.000000e+00	4.371859e-01	3.820722e+14	1.293006e+15	5.446401e+14	1.673817e+04	8.772985e+03	2.475078e+03	0	9.584892e-04
1.150000e+09	1.758205e+13	0.000000e+00	4.371859e-01	3.800973e+14	1.285738e+15	5.422825e+14	1.672568e+04	8.767785e+03	2.473611e+03	0	9.549586e-04
1.160000e+09	1.738823e+13	0.000000e+00	4.371859e-01	3.781408e+14	1.278553e+15	5.399407e+14	1.671326e+04	8.762627e+03	2.472156e+03	0	9.514365e-04
1.170000e+09	1.719629e+13	0.000000e+00	4.371859e-01	3.762027e+14	1.271451e+15	5.376145e+14	1.670090e+04	8.757509e+03	2.470712e+03	0	9.479228e-04
1.180000e+09	1.700621e+13	0.000000e+00	4.371859e-01	3.742825e+14	1.264428e+15	5.353038e+14	1.668860e+04	8.752431e+03	2.469280e+03	0	9.444172e-04
1.190000e+09	1.681796e+13	0.000000e+00	4.371859e-01	3.723801e+14	1.257484e+15	5.330084e+14	1.667636e+04	8.747393e+03	2.467858e+03	0	9.409194e-04
1.200000e+09	1.663151e+13	0.000000e+00	4.371859e-01	3.704952e+14	1.250617e+15	5.307283e+14	1.666419e+04	8.742394e+03	2.466448e+03	0	9.374294e-04
1.210000e+09	1.644684e+13	0.000000e+00	4.371859e-01	3.686276e+14	1.243827e+15	5.284633e+14	1.665207e+04	8.737433e+03	2.465048e+03	0	9.339469e-04
1.220000e+09	1.626392e+13	0.000000e+00	4.371859e-01	3.667770e+14	1.237110e+15	5.262133e+14	1.664002e+04	8.732509e+03	2.463659e+03	0	9.304716e-04
1.230000e+09	1.608274e+13	0.000000e+00	4.371859e-01	3.649432e+14	1.230467e+15	5.239782e+14	1.662803e+04	8.727623e+03	2.462280e+03	0	9.270035e-04
1.240000e+09	1.590326e+13	0.000000e+00	4.371859e-01	3.631260e+14	1.223896e+15	5.217579e+14	1.661610e+04	8.722772e+03	2.460912e+03	0	9.235422e-04
1.250000e+09	1.572546e+13	0.000000e+00	4.371859e-01	3.613252e+14	1.217396e+15	5.195522e+14	1.660423e+04	8.717958e+03	2.459554e+03	0	9.200876e-04
1.260000e+09	1.554933e+13	0.000000e+00	4.371859e-01	3.595405e+14	1.210965e+15	5.173611e+14	1.659242e+04	8.713179e+03	2.458205e+03	0	9.166395e-04
1.270000e+09	1.537483e+13	0.000000e+00	4.371859e-01	3.577718e+14	1.204602e+15	5.151844e+14	1.658066e+04	8.708435e+03	2.456867e+03	0	9.131977e-04
1.280000e+09	1.520195e+13	0.000000e+00	4.371859e-01	3.560187e+14	1.198307e+15	5.130220e+14	1.656896e+04	8.703724e+03	2.455538e+03	0	9.097620e-04
1.290000e+09	1.503066e+13	0.000000e+00	4.371859e-01	3.542812e+14	1.192077e+15	5.108738e+14	1.655732e+04	8.699048e+03	2.454219e+03	0	9.063322e-04
1.300000e+09	1.486095e+13	0.000000e+00	4.371859e-01	3.525589e+14	1.185912e+15	5.087398e+14	1.654574e+04	8.694405e+03	2.452909e+03	0	9.029081e-04
1.310000e+09	1.469279e+13	0.000000e+00	4.371859e-01	3.508518e+14	1.179811e+15	5.066197e+14	1.653421e+04	8.689794e+03	2.451608e+03	0	8.994895e-04
1.320000e+09	1.452616e+13	0.000000e+00	4.371859e-01	3.491596e+14	1.173772e+15	5.045135e+14	1.652274e+04	8.685215e+03	2.450316e+03	0	8.960762e-04
1.330000e+09	1.436104e+13	0.000000e+00	4.371859e-01	3.474821e+14	1.167795e+15	5.024210e+14	1.651133e+04	8.680668e+03	2.449033e+03	0	8.926680e-04
1.340000e+09	1.419741e+13	0.000000e+00	4.371859e-01	3.458191e+14	1.161879e+15	5.003423e+14	1.649997e+04	8.676153e+03	2.447759e+03	0	8.892648e-04
1.350000e+09	1.403526e+13	0.000000e+00	4.371859e-01	3.441705e+14	1.156022e+15	4.982771e+14	1.648866e+04	8.671668e+03	2.446494e+03	0	8.858663e-04
1.360000e+09	1.387456e+13	0.000000e+00	4.371859e-01	3.425360e+14	1.150224e+15	4.962254e+14	1.647741e+04	8.667213e+03	2.445237e+03	0	8.824723e-04
