#t		Qconv[W]	Ri[Rp]		R*[Rp]		Qc[W]		Qm[W]		Qr[W]		Tcmb[K]		Tl[K]		Tup[K]		RiFlag		Bs[T]
0.000000e+00	7.794968e+13	0.000000e+00	4.371859e-01	1.000865e+15	4.163780e+15	1.029367e+15	2.003876e+04	1.079948e+04	2.918596e+03	0	1.566539e-03
1.000000e+07	7.685626e+13	0.000000e+00	4.371859e-01	9.907129e+14	4.086241e+15	1.023664e+15	2.000938e+04	1.077118e+04	2.910949e+03	0	1.559180e-03
2.000000e+07	7.578470e+13	0.000000e+00	4.371859e-01	9.807595e+14	4.011786e+15	1.018003e+15	1.998030e+04	1.074370e+04	2.903521e+03	0	1.551900e-03
3.000000e+07	7.473437e+13	0.000000e+00	4.371859e-01	9.709988e+14	3.940234e+15	1.012385e+15	1.995152e+04	1.071699e+04	2.896302e+03	0	1.544697e-03
4.000000e+07	7.370465e+13	0.000000e+00	4.371859e-01	9.614254e+14	3.871421e+15	1.006808e+15	1.992301e+04	1.069102e+04	2.889283e+03	0	1.537569e-03
5.000000e+07	7.269495e+13	0.000000e+00	4.371859e-01	9.520339e+14	3.805192e+15	1.001273e+15	1.989479e+04	1.066575e+04	2.882455e+03	0	1.530516e-03
6.000000e+07	7.170469e+13	0.000000e+00	4.371859e-01	9.428191e+14	3.741406e+15	9.957794e+14	1.986684e+04	1.064116e+04	2.875810e+03	0	1.523535e-03
7.000000e+07	7.073333e+13	0.000000e+00	4.371859e-01	9.337760e+14	3.679929e+15	9.903266e+14	1.983916e+04	1.061722e+04	2.869340e+03	0	1.516624e-03
8.000000e+07	6.978032e+13	0.000000e+00	4.371859e-01	9.248998e+14	3.620638e+15	9.849144e+14	1.981175e+04	1.059390e+04	2.863037e+03	0	1.509781e-03
9.000000e+07	6.884516e+13	0.000000e+00	4.371859e-01	9.161860e+14	3.563418e+15	9.795424e+14	1.978459e+04	1.057117e+04	2.856894e+03	0	1.503007e-03
1.000000e+08	6.792736e+13	0.000000e+00	4.371859e-01	9.076300e+14	3.508162e+15	9.742103e+14	1.975769e+04	1.054901e+04	2.850905e+03	0	1.496298e-03
1.100000e+08	6.702642e+13	0.000000e+00	4.371859e-01	8.992275e+14	3.454771e+15	9.689177e+14	1.973104e+04	1.052739e+04	2.845064e+03	0	1.489653e-03
1.200000e+08	6.614190e+13	0.000000e+00	4.371859e-01	8.909743e+14	3.403149e+15	9.636644e+14	1.970464e+04	1.050630e+04	2.839364e+03	0	1.483071e-03
1.300000e+08	6.527334e+13	0.000000e+00	4.371859e-01	8.828665e+14	3.353211e+15	9.584500e+14	1.967848e+04	1.048572e+04	2.833800e+03	0	1.476551e-03
1.400000e+08	6.442031e+13	0.000000e+00	4.371859e-01	8.749001e+14	3.304873e+15	9.532742e+14	1.965256e+04	1.046561e+04	2.828367e+03	0	1.470090e-03
1.500000e+08	6.358240e+13	0.000000e+00	4.371859e-01	8.670714e+14	3.258060e+15	9.481367e+14	1.962686e+04	1.044597e+04	2.823059e+03	0	1.463689e-03
1.600000e+08	6.275921e+13	0.000000e+00	4.371859e-01	8.593769e+14	3.212699e+15	9.430371e+14	1.960140e+04	1.042678e+04	2.817872e+03	0	1.457345e-03
1.700000e+08	6.195036e+13	0.000000e+00	4.371859e-01	8.518129e+14	3.168723e+15	9.379751e+14	1.957617e+04	1.040802e+04	2.812802e+03	0	1.451057e-03
1.800000e+08	6.115546e+13	0.000000e+00	4.371859e-01	8.443761e+14	3.126067e+15	9.329504e+14	1.955115e+04	1.038967e+04	2.807843e+03	0	1.444824e-03
1.900000e+08	6.037416e+13	0.000000e+00	4.371859e-01	8.370633e+14	3.084672e+15	9.279628e+14	1.952635e+04	1.037172e+04	2.802992e+03	0	1.438644e-03
2.000000e+08	5.960610e+13	0.000000e+00	4.371859e-01	8.298713e+14	3.044482e+15	9.230118e+14	1.950177e+04	1.035416e+04	2.798246e+03	0	1.432518e-03
2.100000e+08	5.885096e+13	0.000000e+00	4.371859e-01	8.227971e+14	3.005444e+15	9.180973e+14	1.947740e+04	1.033696e+04	2.793599e+03	0	1.426443e-03
2.200000e+08	5.810841e+13	0.000000e+00	4.371859e-01	8.158378e+14	2.967508e+15	9.132189e+14	1.945323e+04	1.032013e+04	2.789049e+03	0	1.420418e-03
2.300000e+08	5.737812e+13	0.000000e+00	4.371859e-01	8.089904e+14	2.930625e+15	9.083762e+14	1.942927e+04	1.030364e+04	2.784593e+03	0	1.414442e-03
2.400000e+08	5.665981e+13	0.000000e+00	4.371859e-01	8.022522e+14	2.894753e+15	9.035691e+14	1.940551e+04	1.028748e+04	2.780226e+03	0	1.408515e-03
2.500000e+08	5.595316e+13	0.000000e+00	4.371859e-01	7.956207e+14	2.859848e+15	8.987971e+14	1.938195e+04	1.027164e+04	2.775946e+03	0	1.402635e-03
2.600000e+08	5.525791e+13	0.000000e+00	4.371859e-01	7.890931e+14	2.825871e+15	8.940601e+14	1.935858e+04	1.025612e+04	2.771751e+03	0	1.396801e-03
2.700000e+08	5.457376e+13	0.000000e+00	4.371859e-01	7.826671e+14	2.792784e+15	8.893578e+14	1.933540e+04	1.024090e+04	2.767637e+03	0	1.391013e-03
2.800000e+08	5.390047e+13	0.000000e+00	4.371859e-01	7.763402e+14	2.760552e+15	8.846897e+14	1.931241e+04	1.022596e+04	2.763601e+03	0	1.385268e-03
2.900000e+08	5.323776e+13	0.000000e+00	4.371859e-01	7.701100e+14	2.729139e+15	8.800558e+14	1.928961e+04	1.021131e+04	2.759641e+03	0	1.379568e-03
3.000000e+08	5.258539e+13	0.000000e+00	4.371859e-01	7.639744e+14	2.698515e+15	8.754556e+14	1.926699e+04	1.019693e+04	2.755755e+03	0	1.373910e-03
3.100000e+08	5.194311e+13	0.000000e+00	4.371859e-01	7.579310e+14	2.668649e+15	8.708889e+14	1.924454e+04	1.018281e+04	2.751940e+03	0	1.368293e-03
3.200000e+08	5.131070e+13	0.000000e+00	4.371859e-01	7.519779e+14	2.639512e+15	8.663555e+14	1.922228e+04	1.016895e+04	2.748194e+03	0	1.362717e-03
3.300000e+08	5.068792e+13	0.000000e+00	4.371859e-01	7.461130e+14	2.611076e+15	8.618550e+14	1.920019e+04	1.015534e+04	2.744515e+03	0	1.357182e-03
3.400000e+08	5.007456e+13	0.000000e+00	4.371859e-01	7.403342e+14	2.583315e+15	8.573872e+14	1.917827e+04	1.014196e+04	2.740900e+03	0	1.351685e-03
3.500000e+08	4.947040e+13	0.000000e+00	4.371859e-01	7.346396e+14	2.556204e+15	8.529518e+14	1.915652e+04	1.012882e+04	2.737348e+03	0	1.346227e-03
3.600000e+08	4.887523e+13	0.000000e+00	4.371859e-01	7.290274e+14	2.529720e+15	8.485486e+14	1.913494e+04	1.011590e+04	2.733857e+03	0	1.340806e-03
3.700000e+08	4.828886e+13	0.000000e+00	4.371859e-01	7.234957e+14	2.503841e+15	8.441773e+14	1.911352e+04	1.010321e+04	2.730425e+03	0	1.335423e-03
3.800000e+08	4.771108e+13	0.000000e+00	4.371859e-01	7.180429e+14	2.478544e+15	8.398376e+14	1.909226e+04	1.009072e+04	2.727051e+03	0	1.330075e-03
3.900000e+08	4.714172e+13	0.000000e+00	4.371859e-01	7.126670e+14	2.453809e+15	8.355292e+14	1.907117e+04	1.007844e+04	2.723732e+03	0	1.324763e-03
4.000000e+08	4.658059e+13	0.000000e+00	4.371859e-01	7.073666e+14	2.429616e+15	8.312520e+14	1.905023e+04	1.006635e+04	2.720466e+03	0	1.319486e-03
4.100000e+08	4.602750e+13	0.000000e+00	4.371859e-01	7.021400e+14	2.405948e+15	8.270056e+14	1.902945e+04	1.005447e+04	2.717253e+03	0	1.314243e-03
4.200000e+08	4.548230e+13	0.000000e+00	4.371859e-01	6.969856e+14	2.382786e+15	8.227899e+14	1.900882e+04	1.004277e+04	2.714091e+03	0	1.309033e-03
4.300000e+08	4.494480e+13	0.000000e+00	4.371859e-01	6.919020e+14	2.360113e+15	8.186045e+14	1.898834e+04	1.003125e+04	2.710979e+03	0	1.303856e-03
4.400000e+08	4.441485e+13	0.000000e+00	4.371859e-01	6.868875e+14	2.337913e+15	8.144492e+14	1.896801e+04	1.001991e+04	2.707914e+03	0	1.298711e-03
4.500000e+08	4.389229e+13	0.000000e+00	4.371859e-01	6.819409e+14	2.316171e+15	8.103237e+14	1.894783e+04	1.000874e+04	2.704897e+03	0	1.293598e-03
4.600000e+08	4.337696e+13	0.000000e+00	4.371859e-01	6.770607e+14	2.294871e+15	8.062279e+14	1.892779e+04	9.997745e+03	2.701924e+03	0	1.288515e-03
4.700000e+08	4.286872e+13	0.000000e+00	4.371859e-01	6.722455e+14	2.274000e+15	8.021615e+14	1.890789e+04	9.986910e+03	2.698996e+03	0	1.283463e-03
4.800000e+08	4.236742e+13	0.000000e+00	4.371859e-01	6.674941e+14	2.253543e+15	7.981242e+14	1.888814e+04	9.976235e+03	2.696111e+03	0	1.278440e-03
4.900000e+08	4.187291e+13	0.000000e+00	4.371859e-01	6.628052e+14	2.233488e+15	7.941158e+14	1.886852e+04	9.965714e+03	2.693268e+03	0	1.273447e-03
5.000000e+08	4.138507e+13	0.000000e+00	4.371859e-01	6.581774e+14	2.213822e+15	7.901360e+14	1.884905e+04	9.955345e+03	2.690466e+03	0	1.268482e-03
5.100000e+08	4.090376e+13	0.000000e+00	4.371859e-01	6.536097e+14	2.194533e+15	7.861847e+14	1.882971e+04	9.945122e+03	2.687703e+03	0	1.263545e-03
5.200000e+08	4.042885e+13	0.000000e+00	4.371859e-01	6.491007e+14	2.175610e+15	7.822616e+14	1.881050e+04	9.935042e+03	2.684979e+03	0	1.258636e-03
5.300000e+08	3.996020e+13	0.000000e+00	4.371859e-01	6.446495e+14	2.157042e+15	7.783665e+14	1.879142e+04	9.925102e+03	2.682292e+03	0	1.253754e-03
5.400000e+08	3.949771e+13	0.000000e+00	4.371859e-01	6.402548e+14	2.138818e+15	7.744991e+14	1.877248e+04	9.915297e+03	2.679643e+03	0	1.248898e-03
5.500000e+08	3.904125e+13	0.000000e+00	4.371859e-01	6.359155e+14	2.120928e+15	7.706592e+14	1.875366e+04	9.905624e+03	2.677029e+03	0	1.244069e-03
5.600000e+08	3.859070e+13	0.000000e+00	4.371859e-01	6.316307e+14	2.103362e+15	7.668467e+14	1.873497e+04	9.896081e+03	2.674449e+03	0	1.239264e-03
5.700000e+08	3.814594e+13	0.000000e+00	4.371859e-01	6.273992e+14	2.086111e+15	7.630612e+14	1.871641e+04	9.886663e+03	2.671904e+03	0	1.234485e-03
5.800000e+08	3.770688e+13	0.000000e+00	4.371859e-01	6.232201e+14	2.069165e+15	7.593025e+14	1.869797e+04	9.877368e+03	2.669392e+03	0	1.229731e-03
5.900000e+08	3.727339e+13	0.000000e+00	4.371859e-01	6.190924e+14	2.052517e+15	7.555706e+14	1.867966e+04	9.868193e+03	2.666913e+03	0	1.225000e-03
6.000000e+08	3.684539e+13	0.000000e+00	4.371859e-01	6.150151e+14	2.036158e+15	7.518650e+14	1.866146e+04	9.859135e+03	2.664465e+03	0	1.220293e-03
6.100000e+08	3.642275e+13	0.000000e+00	4.371859e-01	6.109873e+14	2.020079e+15	7.481856e+14	1.864339e+04	9.850190e+03	2.662047e+03	0	1.215609e-03
6.200000e+08	3.600539e+13	0.000000e+00	4.371859e-01	6.070082e+14	2.004274e+15	7.445323e+14	1.862543e+04	9.841357e+03	2.659660e+03	0	1.210948e-03
6.300000e+08	3.559320e+13	0.000000e+00	4.371859e-01	6.030767e+14	1.988734e+15	7.409047e+14	1.860759e+04	9.832633e+03	2.657302e+03	0	1.206310e-03
6.400000e+08	3.518609e+13	0.000000e+00	4.371859e-01	5.991921e+14	1.973452e+15	7.373027e+14	1.858986e+04	9.824014e+03	2.654973e+03	0	1.201693e-03
6.500000e+08	3.478398e+13	0.000000e+00	4.371859e-01	5.953535e+14	1.958422e+15	7.337261e+14	1.857225e+04	9.815500e+03	2.652672e+03	0	1.197097e-03
6.600000e+08	3.438676e+13	0.000000e+00	4.371859e-01	5.915600e+14	1.943637e+15	7.301746e+14	1.855475e+04	9.807086e+03	2.650398e+03	0	1.192523e-03
6.700000e+08	3.399435e+13	0.000000e+00	4.371859e-01	5.878110e+14	1.929090e+15	7.266481e+14	1.853736e+04	9.798772e+03	2.648151e+03	0	1.187970e-03
6.800000e+08	3.360666e+13	0.000000e+00	4.371859e-01	5.841055e+14	1.914775e+15	7.231464e+14	1.852009e+04	9.790554e+03	2.645930e+03	0	1.183436e-03
6.900000e+08	3.322362e+13	0.000000e+00	4.371859e-01	5.804429e+14	1.900687e+15	7.196693e+14	1.850292e+04	9.782431e+03	2.643735e+03	0	1.178923e-03
7.000000e+08	3.284513e+13	0.000000e+00	4.371859e-01	5.768224e+14	1.886819e+15	7.162165e+14	1.848585e+04	9.774400e+03	2.641565e+03	0	1.174429e-03
7.100000e+08	3.247113e+13	0.000000e+00	4.371859e-01	5.732433e+14	1.873166e+15	7.127879e+14	1.846890e+04	9.766459e+03	2.639419e+03	0	1.169954e-03
7.200000e+08	3.210152e+13	0.000000e+00	4.371859e-01	5.697048e+14	1.859723e+15	7.093833e+14	1.845205e+04	9.758607e+03	2.637297e+03	0	1.165498e-03
7.300000e+08	3.173624e+13	0.000000e+00	4.371859e-01	5.662063e+14	1.846484e+15	7.060025e+14	1.843530e+04	9.750842e+03	2.635198e+03	0	1.161061e-03
7.400000e+08	3.137522e+13	0.000000e+00	4.371859e-01	5.627470e+14	1.833444e+15	7.026452e+14	1.841866e+04	9.743161e+03	2.633122e+03	0	1.156641e-03
7.500000e+08	3.101837e+13	0.000000e+00	4.371859e-01	5.593264e+14	1.820599e+15	6.993114e+14	1.840212e+04	9.735562e+03	2.631069e+03	0	1.152239e-03
7.600000e+08	3.066562e+13	0.000000e+00	4.371859e-01	5.559438e+14	1.807943e+15	6.960008e+14	1.838567e+04	9.728045e+03	2.629037e+03	0	1.147855e-03
7.700000e+08	3.031691e+13	0.000000e+00	4.371859e-01	5.525985e+14	1.795473e+15	6.927132e+14	1.836933e+04	9.720608e+03	2.627027e+03	0	1.143488e-03
7.800000e+08	2.997218e+13	0.000000e+00	4.371859e-01	5.492899e+14	1.783184e+15	6.894485e+14	1.835309e+04	9.713247e+03	2.625038e+03	0	1.139137e-03
7.900000e+08	2.963135e+13	0.000000e+00	4.371859e-01	5.460175e+14	1.771071e+15	6.862065e+14	1.833694e+04	9.705963e+03	2.623070e+03	0	1.134802e-03
8.000000e+08	2.929435e+13	0.000000e+00	4.371859e-01	5.427806e+14	1.759131e+15	6.829869e+14	1.832089e+04	9.698754e+03	2.621121e+03	0	1.130484e-03
8.100000e+08	2.896114e+13	0.000000e+00	4.371859e-01	5.395787e+14	1.747359e+15	6.797896e+14	1.830493e+04	9.691618e+03	2.619192e+03	0	1.126181e-03
8.200000e+08	2.863163e+13	0.000000e+00	4.371859e-01	5.364111e+14	1.735752e+15	6.766145e+14	1.828907e+04	9.684553e+03	2.617283e+03	0	1.121894e-03
8.300000e+08	2.830578e+13	0.000000e+00	4.371859e-01	5.332774e+14	1.724305e+15	6.734613e+14	1.827330e+04	9.677558e+03	2.615393e+03	0	1.117622e-03
8.400000e+08	2.798353e+13	0.000000e+00	4.371859e-01	5.301770e+14	1.713016e+15	6.703299e+14	1.825762e+04	9.670632e+03	2.613521e+03	0	1.113364e-03
8.500000e+08	2.766481e+13	0.000000e+00	4.371859e-01	5.271094e+14	1.701881e+15	6.672202e+14	1.824203e+04	9.663773e+03	2.611667e+03	0	1.109121e-03
8.600000e+08	2.734957e+13	0.000000e+00	4.371859e-01	5.240740e+14	1.690896e+15	6.641318e+14	1.822653e+04	9.656980e+03	2.609832e+03	0	1.104892e-03
8.700000e+08	2.703775e+13	0.000000e+00	4.371859e-01	5.210703e+14	1.680059e+15	6.610647e+14	1.821113e+04	9.650252e+03	2.608013e+03	0	1.100677e-03
8.800000e+08	2.672931e+13	0.000000e+00	4.371859e-01	5.180979e+14	1.669365e+15	6.580187e+14	1.819581e+04	9.643587e+03	2.606212e+03	0	1.096476e-03
8.900000e+08	2.642418e+13	0.000000e+00	4.371859e-01	5.151563e+14	1.658812e+15	6.549937e+14	1.818057e+04	9.636985e+03	2.604428e+03	0	1.092287e-03
9.000000e+08	2.612232e+13	0.000000e+00	4.371859e-01	5.122450e+14	1.648397e+15	6.519894e+14	1.816543e+04	9.630444e+03	2.602660e+03	0	1.088112e-03
9.100000e+08	2.582367e+13	0.000000e+00	4.371859e-01	5.093635e+14	1.638116e+15	6.490056e+14	1.815037e+04	9.623963e+03	2.600909e+03	0	1.083950e-03
9.200000e+08	2.552818e+13	0.000000e+00	4.371859e-01	5.065114e+14	1.627968e+15	6.460424e+14	1.813539e+04	9.617540e+03	2.599173e+03	0	1.079799e-03
9.300000e+08	2.523582e+13	0.000000e+00	4.371859e-01	5.036882e+14	1.617949e+15	6.430994e+14	1.812050e+04	9.611176e+03	2.597453e+03	0	1.075661e-03
9.400000e+08	2.494651e+13	0.000000e+00	4.371859e-01	5.008935e+14	1.608056e+15	6.401765e+14	1.810569e+04	9.604868e+03	2.595748e+03	0	1.071535e-03
9.500000e+08	2.466024e+13	0.000000e+00	4.371859e-01	4.981269e+14	1.598288e+15	6.372735e+14	1.809096e+04	9.598615e+03	2.594058e+03	0	1.067420e-03
9.600000e+08	2.437693e+13	0.000000e+00	4.371859e-01	4.953879e+14	1.588641e+15	6.343904e+14	1.807631e+04	9.592417e+03	2.592383e+03	0	1.063317e-03
9.700000e+08	2.409656e+13	0.000000e+00	4.371859e-01	4.926761e+14	1.579113e+15	6.315269e+14	1.806175e+04	9.586273e+03	2.590723e+03	0	1.059225e-03
9.800000e+08	2.381907e+13	0.000000e+00	4.371859e-01	4.899912e+14	1.569702e+15	6.286829e+14	1.804726e+04	9.580182e+03	2.589077e+03	0	1.055143e-03
9.900000e+08	2.354443e+13	0.000000e+00	4.371859e-01	4.873327e+14	1.560405e+15	6.258582e+14	1.803285e+04	9.574142e+03	2.587444e+03	0	1.051072e-03
1.000000e+09	2.327259e+13	0.000000e+00	4.371859e-01	4.847003e+14	1.551220e+15	6.230526e+14	1.801852e+04	9.568153e+03	2.585826e+03	0	1.047011e-03
1.010000e+09	2.300351e+13	0.000000e+00	4.371859e-01	4.820935e+14	1.542145e+15	6.202661e+14	1.800427e+04	9.562214e+03	2.584221e+03	0	1.042960e-03
1.020000e+09	2.273715e+13	0.000000e+00	4.371859e-01	4.795121e+14	1.533178e+15	6.174985e+14	1.799010e+04	9.556324e+03	2.582629e+03	0	1.038919e-03
1.030000e+09	2.247347e+13	0.000000e+00	4.371859e-01	4.769556e+14	1.524316e+15	6.147496e+14	1.797600e+04	9.550483e+03	2.581050e+03	0	1.034888e-03
1.040000e+09	2.221243e+13	0.000000e+00	4.371859e-01	4.744237e+14	1.515558e+15	6.120193e+14	1.796197e+04	9.544688e+03	2.579484e+03	0	1.030865e-03
1.050000e+09	2.195399e+13	0.000000e+00	4.371859e-01	4.719160e+14	1.506902e+15	6.093075e+14	1.794802e+04	9.538941e+03	2.577931e+03	0	1.026851e-03
1.060000e+09	2.169812e+13	0.000000e+00	4.371859e-01	4.694321e+14	1.498346e+15	6.066139e+14	1.793414e+04	9.533239e+03	2.576390e+03	0	1.022846e-03
1.070000e+09	2.144477e+13	0.000000e+00	4.371859e-01	4.669719e+14	1.489887e+15	6.039384e+14	1.792034e+04	9.527582e+03	2.574861e+03	0	1.018850e-03
1.080000e+09	2.119392e+13	0.000000e+00	4.371859e-01	4.645349e+14	1.481525e+15	6.012810e+14	1.790661e+04	9.521970e+03	2.573345e+03	0	1.014862e-03
1.090000e+09	2.094553e+13	0.000000e+00	4.371859e-01	4.621207e+14	1.473257e+15	5.986414e+14	1.789295e+04	9.516401e+03	2.571840e+03	0	1.010881e-03
1.100000e+09	2.069956e+13	0.000000e+00	4.371859e-01	4.597292e+14	1.465082e+15	5.960196e+14	1.787936e+04	9.510875e+03	2.570346e+03	0	1.006909e-03
1.110000e+09	2.045597e+13	0.000000e+00	4.371859e-01	4.573599e+14	1.456997e+15	5.934153e+14	1.786584e+04	9.505391e+03	2.568864e+03	0	1.002944e-03
1.120000e+09	2.021474e+13	0.000000e+00	4.371859e-01	4.550126e+14	1.449002e+15	5.908285e+14	1.785239e+04	9.499949e+03	2.567393e+03	0	9.989855e-04
1.130000e+09	1.997584e+13	0.000000e+00	4.371859e-01	4.526869e+14	1.441095e+15	5.882590e+14	1.783901e+04	9.494547e+03	2.565934e+03	0	9.950344e-04
1.140000e+09	1.973922e+13	0.000000e+00	4.371859e-01	4.503826e+14	1.433273e+15	5.857067e+14	1.782569e+04	9.489186e+03	2.564485e+03	0	9.910900e-04
1.150000e+09	1.950486e+13	0.000000e+00	4.371859e-01	4.480994e+14	1.425537e+15	5.831714e+14	1.781245e+04	9.483864e+03	2.563046e+03	0	9.871521e-04
1.160000e+09	1.927273e+13	0.000000e+00	4.371859e-01	4.458369e+14	1.417884e+15	5.806530e+14	1.779927e+04	9.478581e+03	2.561619e+03	0	9.832203e-04
1.170000e+09	1.904280e+13	0.000000e+00	4.371859e-01	4.435950e+14	1.410312e+15	5.781514e+14	1.778616e+04	9.473337e+03	2.560201e+03	0	9.792946e-04
1.180000e+09	1.881503e+13	0.000000e+00	4.371859e-01	4.413734e+14	1.402821e+15	5.756665e+14	1.777311e+04	9.468130e+03	2.558794e+03	0	9.753746e-04
1.190000e+09	1.858940e+13	0.000000e+00	4.371859e-01	4.391717e+14	1.395408e+15	5.731980e+14	1.776013e+04	9.462960e+03	2.557397e+03	0	9.714600e-04
1.200000e+09	1.836588e+13	0.000000e+00	4.371859e-01	4.369897e+14	1.388074e+15	5.707460e+14	1.774722e+04	9.457827e+03	2.556010e+03	0	9.675507e-04
1.210000e+09	1.814445e+13	0.000000e+00	4.371859e-01	4.348271e+14	1.380815e+15	5.683102e+14	1.773436e+04	9.452730e+03	2.554632e+03	0	9.636463e-04
1.220000e+09	1.792506e+13	0.000000e+00	4.371859e-01	4.326837e+14	1.373632e+15	5.658906e+14	1.772158e+04	9.447668e+03	2.553264e+03	0	9.597468e-04
1.230000e+09	1.770770e+13	0.000000e+00	4.371859e-01	4.305593e+14	1.366522e+15	5.634869e+14	1.770885e+04	9.442642e+03	2.551906e+03	0	9.558517e-04
1.240000e+09	1.749234e+13	0.000000e+00	4.371859e-01	4.284536e+14	1.359485e+15	5.610992e+14	1.769619e+04	9.437650e+03	2.550557e+03	0	9.519609e-04
1.250000e+09	1.727896e+13	0.000000e+00	4.371859e-01	4.263663e+14	1.352520e+15	5.587272e+14	1.768359e+04	9.432692e+03	2.549217e+03	0	9.480741e-04
1.260000e+09	1.706752e+13	0.000000e+00	4.371859e-01	4.242973e+14	1.345624e+15	5.563708e+14	1.767105e+04	9.427767e+03	2.547886e+03	0	9.441911e-04
1.270000e+09	1.685800e+13	0.000000e+00	4.371859e-01	4.222462e+14	1.338798e+15	5.540300e+14	1.765857e+04	9.422875e+03	2.546564e+03	0	9.403116e-04
1.280000e+09	1.665038e+13	0.000000e+00	4.371859e-01	4.202129e+14	1.332039e+15	5.517046e+14	1.764615e+04	9.418016e+03	2.545251e+03	0	9.364353e-04
1.290000e+09	1.644463e+13	0.000000e+00	4.371859e-01	4.181971e+14	1.325348e+15	5.493944e+14	1.763379e+04	9.413188e+03	2.543946e+03	0	9.325621e-04
1.300000e+09	1.624073e+13	0.000000e+00	4.371859e-01	4.161986e+14	1.318722e+15	5.470994e+14	1.762149e+04	9.408393e+03	2.542650e+03	0	9.286917e-04
1.310000e+09	1.603865e+13	0.000000e+00	4.371859e-01	4.142172e+14	1.312162e+15	5.448195e+14	1.760925e+04	9.403628e+03	2.541362e+03	0	9.248239e-04
1.320000e+09	1.583837e+13	0.000000e+00	4.371859e-01	4.122527e+14	1.305665e+15	5.425545e+14	1.759706e+04	9.398894e+03	2.540083e+03	0	9.209583e-04
1.330000e+09	1.563987e+13	0.000000e+00	4.371859e-01	4.103048e+14	1.299231e+15	5.403043e+14	1.758494e+04	9.394191e+03	2.538812e+03	0	9.170947e-04
1.340000e+09	1.544313e+13	0.000000e+00	4.371859e-01	4.083734e+14	1.292858e+15	5.380688e+14	1.757287e+04	9.389517e+03	2.537549e+03	0	9.132329e-04
1.350000e+09	1.524812e+13	0.000000e+00	4.371859e-01	4.064582e+14	1.286547e+15	5.358479e+14	1.756086e+04	9.384873e+03	2.536294e+03	0	9.093727e-04
1.360000e+09	1.505483e+13	0.000000e+00	4.371859e-01	4.045591e+14	1.280295e+15	5.336415e+14	1.754890e+04	9.380258e+03	2.535046e+03	0	9.055137e-04
