#t		Qconv[W]	Ri[Rp]		R*[Rp]		Qc[W]		Qm[W]		Qr[W]		Tcmb[K]		Tl[K]		Tup[K]		RiFlag		Bs[T]
0.000000e+00	1.058674e+14	0.000000e+00	4.371860e-01	1.510859e+15	3.505900e+15	1.319137e+15	2.474907e+04	1.320521e+04	3.062972e+03	0	1.727851e-03
1.000000e+07	1.045334e+14	0.000000e+00	4.371860e-01	1.499717e+15	3.485277e+15	1.311828e+15	2.471848e+04	1.319779e+04	3.061251e+03	0	1.720563e-03
2.000000e+07	1.032167e+14	0.000000e+00	4.371860e-01	1.488713e+15	3.464834e+15	1.304573e+15	2.468811e+04	1.319039e+04	3.059535e+03	0	1.713308e-03
3.000000e+07	1.019170e+14	0.000000e+00	4.371860e-01	1.477847e+15	3.444568e+15	1.297373e+15	2.465797e+04	1.318302e+04	3.057825e+03	0	1.706086e-03
4.000000e+07	1.006339e+14	0.000000e+00	4.371860e-01	1.467114e+15	3.424479e+15	1.290227e+15	2.462805e+04	1.317567e+04	3.056120e+03	0	1.698896e-03
5.000000e+07	9.936712e+13	0.000000e+00	4.371860e-01	1.456515e+15	3.404564e+15	1.283134e+15	2.459834e+04	1.316835e+04	3.054421e+03	0	1.691738e-03
6.000000e+07	9.811646e+13	0.000000e+00	4.371860e-01	1.446045e+15	3.384822e+15	1.276094e+15	2.456885e+04	1.316104e+04	3.052728e+03	0	1.684611e-03
7.000000e+07	9.688160e+13	0.000000e+00	4.371860e-01	1.435703e+15	3.365252e+15	1.269106e+15	2.453957e+04	1.315377e+04	3.051040e+03	0	1.677513e-03
8.000000e+07	9.566227e+13	0.000000e+00	4.371860e-01	1.425486e+15	3.345851e+15	1.262170e+15	2.451049e+04	1.314652e+04	3.049358e+03	0	1.670446e-03
9.000000e+07	9.445821e+13	0.000000e+00	4.371860e-01	1.415393e+15	3.326618e+15	1.255286e+15	2.448163e+04	1.313929e+04	3.047681e+03	0	1.663408e-03
1.000000e+08	9.326915e+13	0.000000e+00	4.371860e-01	1.405422e+15	3.307552e+15	1.248453e+15	2.445296e+04	1.313208e+04	3.046010e+03	0	1.656399e-03
1.100000e+08	9.209485e+13	0.000000e+00	4.371860e-01	1.395569e+15	3.288650e+15	1.241670e+15	2.442450e+04	1.312491e+04	3.044345e+03	0	1.649418e-03
1.200000e+08	9.093504e+13	0.000000e+00	4.371860e-01	1.385835e+15	3.269912e+15	1.234938e+15	2.439624e+04	1.311775e+04	3.042686e+03	0	1.642464e-03
1.300000e+08	8.978950e+13	0.000000e+00	4.371860e-01	1.376215e+15	3.251336e+15	1.228256e+15	2.436818e+04	1.311062e+04	3.041032e+03	0	1.635538e-03
1.400000e+08	8.865797e+13	0.000000e+00	4.371860e-01	1.366709e+15	3.232919e+15	1.221623e+15	2.434031e+04	1.310352e+04	3.039384e+03	0	1.628639e-03
1.500000e+08	8.754023e+13	0.000000e+00	4.371860e-01	1.357315e+15	3.214661e+15	1.215039e+15	2.431263e+04	1.309644e+04	3.037742e+03	0	1.621766e-03
1.600000e+08	8.643605e+13	0.000000e+00	4.371860e-01	1.348031e+15	3.196560e+15	1.208504e+15	2.428514e+04	1.308938e+04	3.036106e+03	0	1.614918e-03
1.700000e+08	8.534520e+13	0.000000e+00	4.371860e-01	1.338854e+15	3.178615e+15	1.202017e+15	2.425784e+04	1.308235e+04	3.034475e+03	0	1.608096e-03
1.800000e+08	8.426747e+13	0.000000e+00	4.371860e-01	1.329785e+15	3.160823e+15	1.195578e+15	2.423072e+04	1.307535e+04	3.032850e+03	0	1.601298e-03
1.900000e+08	8.320264e+13	0.000000e+00	4.371860e-01	1.320819e+15	3.143184e+15	1.189186e+15	2.420379e+04	1.306837e+04	3.031231e+03	0	1.594525e-03
2.000000e+08	8.215049e+13	0.000000e+00	4.371860e-01	1.311957e+15	3.125695e+15	1.182842e+15	2.417704e+04	1.306141e+04	3.029618e+03	0	1.587775e-03
2.100000e+08	8.111084e+13	0.000000e+00	4.371860e-01	1.303196e+15	3.108356e+15	1.176544e+15	2.415047e+04	1.305448e+04	3.028011e+03	0	1.581048e-03
2.200000e+08	8.008346e+13	0.000000e+00	4.371860e-01	1.294534e+15	3.091164e+15	1.170292e+15	2.412407e+04	1.304758e+04	3.026409e+03	0	1.574345e-03
2.300000e+08	7.906817e+13	0.000000e+00	4.371860e-01	1.285971e+15	3.074119e+15	1.164086e+15	2.409785e+04	1.304070e+04	3.024813e+03	0	1.567663e-03
2.400000e+08	7.806478e+13	0.000000e+00	4.371860e-01	1.277504e+15	3.057218e+15	1.157926e+15	2.407180e+04	1.303384e+04	3.023223e+03	0	1.561004e-03
2.500000e+08	7.707308e+13	0.000000e+00	4.371860e-01	1.269132e+15	3.040461e+15	1.151811e+15	2.404593e+04	1.302701e+04	3.021638e+03	0	1.554365e-03
2.600000e+08	7.609290e+13	0.000000e+00	4.371860e-01	1.260854e+15	3.023846e+15	1.145740e+15	2.402022e+04	1.302020e+04	3.020059e+03	0	1.547748e-03
2.700000e+08	7.512406e+13	0.000000e+00	4.371860e-01	1.252667e+15	3.007371e+15	1.139714e+15	2.399468e+04	1.301342e+04	3.018486e+03	0	1.541151e-03
2.800000e+08	7.416637e+13	0.000000e+00	4.371860e-01	1.244572e+15	2.991035e+15	1.133732e+15	2.396931e+04	1.300667e+04	3.016919e+03	0	1.534574e-03
2.900000e+08	7.321966e+13	0.000000e+00	4.371860e-01	1.236566e+15	2.974836e+15	1.127794e+15	2.394410e+04	1.299993e+04	3.015357e+03	0	1.528017e-03
3.000000e+08	7.228377e+13	0.000000e+00	4.371860e-01	1.228647e+15	2.958774e+15	1.121898e+15	2.391905e+04	1.299323e+04	3.013802e+03	0	1.521478e-03
3.100000e+08	7.135851e+13	0.000000e+00	4.371860e-01	1.220815e+15	2.942847e+15	1.116046e+15	2.389416e+04	1.298654e+04	3.012251e+03	0	1.514959e-03
3.200000e+08	7.044373e+13	0.000000e+00	4.371860e-01	1.213069e+15	2.927052e+15	1.110237e+15	2.386943e+04	1.297988e+04	3.010707e+03	0	1.508457e-03
3.300000e+08	6.953926e+13	0.000000e+00	4.371860e-01	1.205406e+15	2.911390e+15	1.104469e+15	2.384485e+04	1.297325e+04	3.009168e+03	0	1.501973e-03
3.400000e+08	6.864496e+13	0.000000e+00	4.371860e-01	1.197826e+15	2.895859e+15	1.098744e+15	2.382043e+04	1.296664e+04	3.007635e+03	0	1.495507e-03
3.500000e+08	6.776065e+13	0.000000e+00	4.371860e-01	1.190327e+15	2.880457e+15	1.093060e+15	2.379617e+04	1.296005e+04	3.006107e+03	0	1.489057e-03
3.600000e+08	6.688619e+13	0.000000e+00	4.371860e-01	1.182908e+15	2.865182e+15	1.087417e+15	2.377205e+04	1.295349e+04	3.004585e+03	0	1.482624e-03
3.700000e+08	6.602143e+13	0.000000e+00	4.371860e-01	1.175569e+15	2.850035e+15	1.081815e+15	2.374809e+04	1.294695e+04	3.003069e+03	0	1.476207e-03
3.800000e+08	6.516623e+13	0.000000e+00	4.371860e-01	1.168307e+15	2.835013e+15	1.076254e+15	2.372427e+04	1.294044e+04	3.001558e+03	0	1.469805e-03
3.900000e+08	6.432043e+13	0.000000e+00	4.371860e-01	1.161122e+15	2.820114e+15	1.070733e+15	2.370061e+04	1.293395e+04	3.000053e+03	0	1.463418e-03
4.000000e+08	6.348391e+13	0.000000e+00	4.371860e-01	1.154013e+15	2.805339e+15	1.065251e+15	2.367708e+04	1.292749e+04	2.998553e+03	0	1.457047e-03
4.100000e+08	6.265651e+13	0.000000e+00	4.371860e-01	1.146977e+15	2.790685e+15	1.059810e+15	2.365370e+04	1.292104e+04	2.997059e+03	0	1.450689e-03
4.200000e+08	6.183811e+13	0.000000e+00	4.371860e-01	1.140016e+15	2.776151e+15	1.054407e+15	2.363046e+04	1.291463e+04	2.995571e+03	0	1.444345e-03
4.300000e+08	6.102856e+13	0.000000e+00	4.371860e-01	1.133126e+15	2.761737e+15	1.049044e+15	2.360737e+04	1.290823e+04	2.994088e+03	0	1.438015e-03
4.400000e+08	6.022775e+13	0.000000e+00	4.371860e-01	1.126308e+15	2.747440e+15	1.043719e+15	2.358441e+04	1.290186e+04	2.992610e+03	0	1.431697e-03
4.500000e+08	5.943554e+13	0.000000e+00	4.371860e-01	1.119560e+15	2.733260e+15	1.038432e+15	2.356159e+04	1.289552e+04	2.991138e+03	0	1.425392e-03
4.600000e+08	5.865181e+13	0.000000e+00	4.371860e-01	1.112881e+15	2.719195e+15	1.033183e+15	2.353891e+04	1.288919e+04	2.989671e+03	0	1.419099e-03
4.700000e+08	5.787643e+13	0.000000e+00	4.371860e-01	1.106270e+15	2.705244e+15	1.027972e+15	2.351636e+04	1.288289e+04	2.988210e+03	0	1.412818e-03
4.800000e+08	5.710928e+13	0.000000e+00	4.371860e-01	1.099726e+15	2.691407e+15	1.022798e+15	2.349394e+04	1.287662e+04	2.986754e+03	0	1.406548e-03
4.900000e+08	5.635024e+13	0.000000e+00	4.371860e-01	1.093249e+15	2.677681e+15	1.017661e+15	2.347166e+04	1.287036e+04	2.985303e+03	0	1.400288e-03
5.000000e+08	5.559920e+13	0.000000e+00	4.371860e-01	1.086837e+15	2.664066e+15	1.012561e+15	2.344951e+04	1.286413e+04	2.983858e+03	0	1.394039e-03
5.100000e+08	5.485604e+13	0.000000e+00	4.371860e-01	1.080490e+15	2.650561e+15	1.007498e+15	2.342749e+04	1.285792e+04	2.982418e+03	0	1.387801e-03
5.200000e+08	5.412065e+13	0.000000e+00	4.371860e-01	1.074206e+15	2.637164e+15	1.002470e+15	2.340559e+04	1.285174e+04	2.980984e+03	0	1.381571e-03
5.300000e+08	5.339292e+13	0.000000e+00	4.371860e-01	1.067984e+15	2.623874e+15	9.974785e+14	2.338383e+04	1.284558e+04	2.979554e+03	0	1.375351e-03
5.400000e+08	5.267273e+13	0.000000e+00	4.371860e-01	1.061824e+15	2.610691e+15	9.925224e+14	2.336219e+04	1.283944e+04	2.978130e+03	0	1.369139e-03
5.500000e+08	5.195999e+13	0.000000e+00	4.371860e-01	1.055726e+15	2.597612e+15	9.876016e+14	2.334067e+04	1.283332e+04	2.976712e+03	0	1.362935e-03
5.600000e+08	5.125458e+13	0.000000e+00	4.371860e-01	1.049687e+15	2.584638e+15	9.827158e+14	2.331928e+04	1.282723e+04	2.975298e+03	0	1.356739e-03
5.700000e+08	5.055641e+13	0.000000e+00	4.371860e-01	1.043707e+15	2.571767e+15	9.778647e+14	2.329801e+04	1.282116e+04	2.973890e+03	0	1.350551e-03
5.800000e+08	4.986537e+13	0.000000e+00	4.371860e-01	1.037786e+15	2.558998e+15	9.730480e+14	2.327686e+04	1.281511e+04	2.972486e+03	0	1.344369e-03
5.900000e+08	4.918137e+13	0.000000e+00	4.371860e-01	1.031922e+15	2.546330e+15	9.682654e+14	2.325583e+04	1.280908e+04	2.971088e+03	0	1.338194e-03
6.000000e+08	4.850430e+13	0.000000e+00	4.371860e-01	1.026115e+15	2.533762e+15	9.635167e+14	2.323492e+04	1.280307e+04	2.969696e+03	0	1.332025e-03
6.100000e+08	4.783408e+13	0.000000e+00	4.371860e-01	1.020365e+15	2.521293e+15	9.588016e+14	2.321412e+04	1.279709e+04	2.968308e+03	0	1.325861e-03
6.200000e+08	4.717060e+13	0.000000e+00	4.371860e-01	1.014669e+15	2.508921e+15	9.541198e+14	2.319345e+04	1.279113e+04	2.966925e+03	0	1.319702e-03
6.300000e+08	4.651378e+13	0.000000e+00	4.371860e-01	1.009028e+15	2.496647e+15	9.494711e+14	2.317288e+04	1.278519e+04	2.965547e+03	0	1.313548e-03
6.400000e+08	4.586352e+13	0.000000e+00	4.371860e-01	1.003441e+15	2.484468e+15	9.448551e+14	2.315244e+04	1.277927e+04	2.964175e+03	0	1.307399e-03
6.500000e+08	4.521973e+13	0.000000e+00	4.371860e-01	9.979069e+14	2.472385e+15	9.402717e+14	2.313210e+04	1.277338e+04	2.962807e+03	0	1.301252e-03
6.600000e+08	4.458233e+13	0.000000e+00	4.371860e-01	9.924252e+14	2.460395e+15	9.357205e+14	2.311188e+04	1.276750e+04	2.961444e+03	0	1.295109e-03
6.700000e+08	4.395123e+13	0.000000e+00	4.371860e-01	9.869951e+14	2.448499e+15	9.312013e+14	2.309176e+04	1.276165e+04	2.960087e+03	0	1.288969e-03
6.800000e+08	4.332635e+13	0.000000e+00	4.371860e-01	9.816161e+14	2.436694e+15	9.267138e+14	2.307176e+04	1.275582e+04	2.958734e+03	0	1.282831e-03
6.900000e+08	4.270759e+13	0.000000e+00	4.371860e-01	9.762874e+14	2.424981e+15	9.222579e+14	2.305187e+04	1.275001e+04	2.957386e+03	0	1.276695e-03
7.000000e+08	4.209489e+13	0.000000e+00	4.371860e-01	9.710084e+14	2.413358e+15	9.178331e+14	2.303208e+04	1.274422e+04	2.956043e+03	0	1.270561e-03
7.100000e+08	4.148816e+13	0.000000e+00	4.371860e-01	9.657784e+14	2.401825e+15	9.134394e+14	2.301240e+04	1.273845e+04	2.954705e+03	0	1.264427e-03
7.200000e+08	4.088732e+13	0.000000e+00	4.371860e-01	9.605968e+14	2.390380e+15	9.090763e+14	2.299283e+04	1.273270e+04	2.953372e+03	0	1.258293e-03
7.300000e+08	4.029229e+13	0.000000e+00	4.371860e-01	9.554629e+14	2.379023e+15	9.047438e+14	2.297336e+04	1.272697e+04	2.952044e+03	0	1.252159e-03
7.400000e+08	3.970299e+13	0.000000e+00	4.371860e-01	9.503761e+14	2.367752e+15	9.004415e+14	2.295400e+04	1.272127e+04	2.950720e+03	0	1.246025e-03
7.500000e+08	3.911936e+13	0.000000e+00	4.371860e-01	9.453359e+14	2.356567e+15	8.961692e+14	2.293473e+04	1.271558e+04	2.949401e+03	0	1.239889e-03
7.600000e+08	3.854132e+13	0.000000e+00	4.371860e-01	9.403417e+14	2.345468e+15	8.919266e+14	2.291557e+04	1.270991e+04	2.948087e+03	0	1.233752e-03
7.700000e+08	3.796878e+13	0.000000e+00	4.371860e-01	9.353927e+14	2.334452e+15	8.877136e+14	2.289652e+04	1.270427e+04	2.946778e+03	0	1.227612e-03
7.800000e+08	3.740169e+13	0.000000e+00	4.371860e-01	9.304886e+14	2.323520e+15	8.835299e+14	2.287756e+04	1.269865e+04	2.945473e+03	0	1.221470e-03
7.900000e+08	3.683998e+13	0.000000e+00	4.371860e-01	9.256286e+14	2.312670e+15	8.793752e+14	2.285870e+04	1.269304e+04	2.944173e+03	0	1.215324e-03
8.000000e+08	3.628356e+13	0.000000e+00	4.371860e-01	9.208123e+14	2.301902e+15	8.752493e+14	2.283994e+04	1.268746e+04	2.942878e+03	0	1.209174e-03
8.100000e+08	3.573238e+13	0.000000e+00	4.371860e-01	9.160391e+14	2.291215e+15	8.711520e+14	2.282127e+04	1.268189e+04	2.941587e+03	0	1.203020e-03
8.200000e+08	3.518637e+13	0.000000e+00	4.371860e-01	9.113084e+14	2.280609e+15	8.670831e+14	2.280271e+04	1.267635e+04	2.940301e+03	0	1.196861e-03
8.300000e+08	3.464546e+13	0.000000e+00	4.371860e-01	9.066198e+14	2.270081e+15	8.630423e+14	2.278423e+04	1.267082e+04	2.939020e+03	0	1.190696e-03
8.400000e+08	3.410958e+13	0.000000e+00	4.371860e-01	9.019726e+14	2.259632e+15	8.590294e+14	2.276586e+04	1.266532e+04	2.937743e+03	0	1.184525e-03
8.500000e+08	3.357868e+13	0.000000e+00	4.371860e-01	8.973664e+14	2.249261e+15	8.550442e+14	2.274757e+04	1.265983e+04	2.936471e+03	0	1.178348e-03
8.600000e+08	3.305269e+13	0.000000e+00	4.371860e-01	8.928007e+14	2.238967e+15	8.510865e+14	2.272939e+04	1.265437e+04	2.935203e+03	0	1.172162e-03
8.700000e+08	3.253154e+13	0.000000e+00	4.371860e-01	8.882750e+14	2.228749e+15	8.471560e+14	2.271129e+04	1.264892e+04	2.933940e+03	0	1.165969e-03
8.800000e+08	3.201519e+13	0.000000e+00	4.371860e-01	8.837887e+14	2.218607e+15	8.432525e+14	2.269328e+04	1.264349e+04	2.932681e+03	0	1.159767e-03
8.900000e+08	3.150356e+13	0.000000e+00	4.371860e-01	8.793415e+14	2.208539e+15	8.393759e+14	2.267537e+04	1.263809e+04	2.931426e+03	0	1.153556e-03
9.000000e+08	3.099660e+13	0.000000e+00	4.371860e-01	8.749327e+14	2.198546e+15	8.355259e+14	2.265754e+04	1.263270e+04	2.930176e+03	0	1.147335e-03
9.100000e+08	3.049426e+13	0.000000e+00	4.371860e-01	8.705620e+14	2.188626e+15	8.317023e+14	2.263981e+04	1.262733e+04	2.928931e+03	0	1.141103e-03
9.200000e+08	2.999646e+13	0.000000e+00	4.371860e-01	8.662289e+14	2.178779e+15	8.279048e+14	2.262216e+04	1.262198e+04	2.927690e+03	0	1.134860e-03
9.300000e+08	2.950317e+13	0.000000e+00	4.371860e-01	8.619330e+14	2.169003e+15	8.241333e+14	2.260460e+04	1.261664e+04	2.926453e+03	0	1.128604e-03
9.400000e+08	2.901432e+13	0.000000e+00	4.371860e-01	8.576737e+14	2.159299e+15	8.203876e+14	2.258713e+04	1.261133e+04	2.925220e+03	0	1.122336e-03
9.500000e+08	2.852985e+13	0.000000e+00	4.371860e-01	8.534507e+14	2.149666e+15	8.166675e+14	2.256974e+04	1.260604e+04	2.923992e+03	0	1.116054e-03
9.600000e+08	2.804972e+13	0.000000e+00	4.371860e-01	8.492635e+14	2.140102e+15	8.129728e+14	2.255244e+04	1.260076e+04	2.922768e+03	0	1.109758e-03
9.700000e+08	2.757387e+13	0.000000e+00	4.371860e-01	8.451117e+14	2.130608e+15	8.093032e+14	2.253523e+04	1.259550e+04	2.921549e+03	0	1.103447e-03
9.800000e+08	2.710225e+13	0.000000e+00	4.371860e-01	8.409949e+14	2.121182e+15	8.056585e+14	2.251809e+04	1.259026e+04	2.920333e+03	0	1.097120e-03
9.900000e+08	2.663482e+13	0.000000e+00	4.371860e-01	8.369126e+14	2.111825e+15	8.020387e+14	2.250105e+04	1.258504e+04	2.919122e+03	0	1.090776e-03
1.000000e+09	2.617151e+13	0.000000e+00	4.371860e-01	8.328645e+14	2.102534e+15	7.984434e+14	2.248408e+04	1.257984e+04	2.917915e+03	0	1.084414e-03
1.010000e+09	2.571227e+13	0.000000e+00	4.371860e-01	8.288501e+14	2.093310e+15	7.948725e+14	2.246720e+04	1.257465e+04	2.916713e+03	0	1.078034e-03
1.020000e+09	2.525707e+13	0.000000e+00	4.371860e-01	8.248691e+14	2.084153e+15	7.913258e+14	2.245039e+04	1.256948e+04	2.915514e+03	0	1.071634e-03
1.030000e+09	2.480585e+13	0.000000e+00	4.371860e-01	8.209210e+14	2.075060e+15	7.878031e+14	2.243367e+04	1.256433e+04	2.914320e+03	0	1.065214e-03
1.040000e+09	2.435857e+13	0.000000e+00	4.371860e-01	8.170055e+14	2.066033e+15	7.843042e+14	2.241703e+04	1.255920e+04	2.913129e+03	0	1.058773e-03
1.050000e+09	2.391517e+13	0.000000e+00	4.371860e-01	8.131222e+14	2.057069e+15	7.808289e+14	2.240047e+04	1.255409e+04	2.911943e+03	0	1.052309e-03
1.060000e+09	2.347562e+13	0.000000e+00	4.371860e-01	8.092708e+14	2.048170e+15	7.773771e+14	2.238398e+04	1.254899e+04	2.910761e+03	0	1.045822e-03
1.070000e+09	2.303987e+13	0.000000e+00	4.371860e-01	8.054508e+14	2.039333e+15	7.739485e+14	2.236757e+04	1.254391e+04	2.909583e+03	0	1.039311e-03
1.080000e+09	2.260786e+13	0.000000e+00	4.371860e-01	8.016619e+14	2.030559e+15	7.705430e+14	2.235125e+04	1.253885e+04	2.908409e+03	0	1.032774e-03
1.090000e+09	2.217957e+13	0.000000e+00	4.371860e-01	7.979037e+14	2.021846e+15	7.671604e+14	2.233499e+04	1.253381e+04	2.907239e+03	0	1.026211e-03
1.100000e+09	2.175494e+13	0.000000e+00	4.371860e-01	7.941760e+14	2.013195e+15	7.638005e+14	2.231882e+04	1.252878e+04	2.906073e+03	0	1.019620e-03
1.110000e+09	2.133393e+13	0.000000e+00	4.371860e-01	7.904782e+14	2.004604e+15	7.604631e+14	2.230272e+04	1.252377e+04	2.904911e+03	0	1.012999e-03
1.120000e+09	2.091651e+13	0.000000e+00	4.371860e-01	7.868102e+14	1.996074e+15	7.571481e+14	2.228669e+04	1.251878e+04	2.903753e+03	0	1.006349e-03
1.130000e+09	2.050262e+13	0.000000e+00	4.371860e-01	7.831716e+14	1.987603e+15	7.538553e+14	2.227074e+04	1.251380e+04	2.902599e+03	0	9.996669e-04
1.140000e+09	2.009223e+13	0.000000e+00	4.371860e-01	7.795620e+14	1.979191e+15	7.505845e+14	2.225486e+04	1.250884e+04	2.901448e+03	0	9.929520e-04
1.150000e+09	1.968530e+13	0.000000e+00	4.371860e-01	7.759812e+14	1.970838e+15	7.473355e+14	2.223905e+04	1.250390e+04	2.900302e+03	0	9.862028e-04
1.160000e+09	1.928179e+13	0.000000e+00	4.371860e-01	7.724287e+14	1.962542e+15	7.441082e+14	2.222332e+04	1.249898e+04	2.899159e+03	0	9.794179e-04
1.170000e+09	1.888166e+13	0.000000e+00	4.371860e-01	7.689043e+14	1.954304e+15	7.409024e+14	2.220766e+04	1.249407e+04	2.898021e+03	0	9.725956e-04
1.180000e+09	1.848488e+13	0.000000e+00	4.371860e-01	7.654076e+14	1.946123e+15	7.377179e+14	2.219207e+04	1.248917e+04	2.896886e+03	0	9.657345e-04
1.190000e+09	1.809139e+13	0.000000e+00	4.371860e-01	7.619385e+14	1.937998e+15	7.345546e+14	2.217655e+04	1.248430e+04	2.895755e+03	0	9.588328e-04
1.200000e+09	1.770118e+13	0.000000e+00	4.371860e-01	7.584965e+14	1.929929e+15	7.314123e+14	2.216110e+04	1.247944e+04	2.894628e+03	0	9.518889e-04
1.210000e+09	1.731419e+13	0.000000e+00	4.371860e-01	7.550813e+14	1.921915e+15	7.282909e+14	2.214572e+04	1.247460e+04	2.893504e+03	0	9.449009e-04
1.220000e+09	1.693039e+13	0.000000e+00	4.371860e-01	7.516927e+14	1.913956e+15	7.251901e+14	2.213041e+04	1.246977e+04	2.892385e+03	0	9.378670e-04
1.230000e+09	1.654976e+13	0.000000e+00	4.371860e-01	7.483303e+14	1.906052e+15	7.221098e+14	2.211517e+04	1.246496e+04	2.891269e+03	0	9.307851e-04
1.240000e+09	1.617224e+13	0.000000e+00	4.371860e-01	7.449940e+14	1.898201e+15	7.190499e+14	2.210000e+04	1.246016e+04	2.890157e+03	0	9.236533e-04
1.250000e+09	1.579782e+13	0.000000e+00	4.371860e-01	7.416833e+14	1.890404e+15	7.160102e+14	2.208489e+04	1.245538e+04	2.889048e+03	0	9.164693e-04
1.260000e+09	1.542644e+13	0.000000e+00	4.371860e-01	7.383981e+14	1.882660e+15	7.129905e+14	2.206986e+04	1.245062e+04	2.887943e+03	0	9.092308e-04
1.270000e+09	1.505809e+13	0.000000e+00	4.371860e-01	7.351380e+14	1.874968e+15	7.099908e+14	2.205488e+04	1.244587e+04	2.886842e+03	0	9.019356e-04
1.280000e+09	1.469272e+13	0.000000e+00	4.371860e-01	7.319028e+14	1.867328e+15	7.070107e+14	2.203998e+04	1.244114e+04	2.885745e+03	0	8.945810e-04
1.290000e+09	1.433031e+13	0.000000e+00	4.371860e-01	7.286922e+14	1.859739e+15	7.040502e+14	2.202514e+04	1.243643e+04	2.884651e+03	0	8.871644e-04
1.300000e+09	1.397082e+13	0.000000e+00	4.371860e-01	7.255060e+14	1.852202e+15	7.011092e+14	2.201036e+04	1.243172e+04	2.883561e+03	0	8.796830e-04
1.310000e+09	1.361422e+13	0.000000e+00	4.371860e-01	7.223438e+14	1.844715e+15	6.981875e+14	2.199565e+04	1.242704e+04	2.882474e+03	0	8.721338e-04
1.320000e+09	1.326047e+13	0.000000e+00	4.371860e-01	7.192055e+14	1.837278e+15	6.952849e+14	2.198100e+04	1.242237e+04	2.881391e+03	0	8.645137e-04
1.330000e+09	1.290956e+13	0.000000e+00	4.371860e-01	7.160907e+14	1.829890e+15	6.924012e+14	2.196642e+04	1.241772e+04	2.880311e+03	0	8.568195e-04
1.340000e+09	1.256143e+13	0.000000e+00	4.371860e-01	7.129993e+14	1.822553e+15	6.895364e+14	2.195190e+04	1.241308e+04	2.879235e+03	0	8.490475e-04
1.350000e+09	1.221608e+13	0.000000e+00	4.371860e-01	7.099310e+14	1.815263e+15	6.866904e+14	2.193744e+04	1.240845e+04	2.878163e+03	0	8.411940e-04
1.360000e+09	1.187346e+13	0.000000e+00	4.371860e-01	7.068855e+14	1.808023e+15	6.838628e+14	2.192305e+04	1.240384e+04	2.877094e+03	0	8.332551e-04
