#t		Qconv[W]	Ri[Rp]		R*[Rp]		Qc[W]		Qm[W]		Qr[W]		Tcmb[K]		Tl[K]		Tup[K]		RiFlag		Bs[T]
0.000000e+00	1.500086e+12	0.000000e+00	8.571428e-01	3.607411e+13	2.153696e+14	1.696682e+13	5.201309e+03	2.457209e+03	2.177516e+03	0	3.352676e-04
1.000000e+07	1.461673e+12	0.000000e+00	8.571428e-01	3.523085e+13	1.826111e+14	1.687281e+13	5.194897e+03	2.387020e+03	2.115317e+03	0	3.323811e-04
2.000000e+07	1.427054e+12	0.000000e+00	8.571428e-01	3.447056e+13	1.585089e+14	1.677951e+13	5.188634e+03	2.329988e+03	2.064776e+03	0	3.297360e-04
3.000000e+07	1.395865e+12	0.000000e+00	8.571428e-01	3.378529e+13	1.401851e+14	1.668690e+13	5.182506e+03	2.282720e+03	2.022888e+03	0	3.273161e-04
4.000000e+07	1.367674e+12	0.000000e+00	8.571428e-01	3.316561e+13	1.258784e+14	1.659498e+13	5.176500e+03	2.242913e+03	1.987612e+03	0	3.250976e-04
5.000000e+07	1.342074e+12	0.000000e+00	8.571428e-01	3.260259e+13	1.144594e+14	1.650375e+13	5.170604e+03	2.208948e+03	1.957514e+03	0	3.230564e-04
6.000000e+07	1.318705e+12	0.000000e+00	8.571428e-01	3.208838e+13	1.051753e+14	1.641320e+13	5.164807e+03	2.179649e+03	1.931550e+03	0	3.211703e-04
7.000000e+07	1.297261e+12	0.000000e+00	8.571428e-01	3.161628e+13	9.750748e+13	1.632332e+13	5.159102e+03	2.154140e+03	1.908944e+03	0	3.194199e-04
8.000000e+07	1.277483e+12	0.000000e+00	8.571428e-01	3.118064e+13	9.108832e+13	1.623412e+13	5.153480e+03	2.131752e+03	1.889104e+03	0	3.177883e-04
9.000000e+07	1.259155e+12	0.000000e+00	8.571428e-01	3.077671e+13	8.565103e+13	1.614557e+13	5.147936e+03	2.111968e+03	1.871572e+03	0	3.162612e-04
1.000000e+08	1.242093e+12	0.000000e+00	8.571428e-01	3.040049e+13	8.099776e+13	1.605768e+13	5.142463e+03	2.094378e+03	1.855985e+03	0	3.148262e-04
1.100000e+08	1.226142e+12	0.000000e+00	8.571428e-01	3.004859e+13	7.697900e+13	1.597045e+13	5.137057e+03	2.078655e+03	1.842051e+03	0	3.134728e-04
1.200000e+08	1.211172e+12	0.000000e+00	8.571428e-01	2.971815e+13	7.347993e+13	1.588386e+13	5.131714e+03	2.064532e+03	1.829536e+03	0	3.121918e-04
1.300000e+08	1.197071e+12	0.000000e+00	8.571428e-01	2.940673e+13	7.041106e+13	1.579791e+13	5.126429e+03	2.051792e+03	1.818246e+03	0	3.109755e-04
1.400000e+08	1.183743e+12	0.000000e+00	8.571428e-01	2.911224e+13	6.770170e+13	1.571260e+13	5.121200e+03	2.040254e+03	1.808021e+03	0	3.098170e-04
1.500000e+08	1.171105e+12	0.000000e+00	8.571428e-01	2.883286e+13	6.529535e+13	1.562792e+13	5.116022e+03	2.029767e+03	1.798727e+03	0	3.087106e-04
1.600000e+08	1.159087e+12	0.000000e+00	8.571428e-01	2.856706e+13	6.314639e+13	1.554386e+13	5.110895e+03	2.020202e+03	1.790252e+03	0	3.076509e-04
1.700000e+08	1.147627e+12	0.000000e+00	8.571428e-01	2.831346e+13	6.121757e+13	1.546043e+13	5.105814e+03	2.011453e+03	1.782498e+03	0	3.066336e-04
1.800000e+08	1.136670e+12	0.000000e+00	8.571428e-01	2.807091e+13	5.947827e+13	1.537761e+13	5.100779e+03	2.003426e+03	1.775385e+03	0	3.056547e-04
1.900000e+08	1.126171e+12	0.000000e+00	8.571428e-01	2.783836e+13	5.790303e+13	1.529540e+13	5.095786e+03	1.996041e+03	1.768841e+03	0	3.047106e-04
2.000000e+08	1.116086e+12	0.000000e+00	8.571428e-01	2.761490e+13	5.647062e+13	1.521379e+13	5.090835e+03	1.989231e+03	1.762806e+03	0	3.037984e-04
2.100000e+08	1.106380e+12	0.000000e+00	8.571428e-01	2.739975e+13	5.516313e+13	1.513279e+13	5.085924e+03	1.982934e+03	1.757226e+03	0	3.029152e-04
2.200000e+08	1.097021e+12	0.000000e+00	8.571428e-01	2.719218e+13	5.396541e+13	1.505237e+13	5.081051e+03	1.977099e+03	1.752055e+03	0	3.020586e-04
2.300000e+08	1.087979e+12	0.000000e+00	8.571428e-01	2.699158e+13	5.286452e+13	1.497255e+13	5.076214e+03	1.971680e+03	1.747253e+03	0	3.012264e-04
2.400000e+08	1.079229e+12	0.000000e+00	8.571428e-01	2.679737e+13	5.184941e+13	1.489332e+13	5.071413e+03	1.966636e+03	1.742783e+03	0	3.004167e-04
2.500000e+08	1.070748e+12	0.000000e+00	8.571428e-01	2.660907e+13	5.091054e+13	1.481467e+13	5.066647e+03	1.961932e+03	1.738614e+03	0	2.996277e-04
2.600000e+08	1.062516e+12	0.000000e+00	8.571428e-01	2.642622e+13	5.003966e+13	1.473659e+13	5.061914e+03	1.957536e+03	1.734719e+03	0	2.988579e-04
2.700000e+08	1.054514e+12	0.000000e+00	8.571428e-01	2.624842e+13	4.922961e+13	1.465908e+13	5.057214e+03	1.953420e+03	1.731071e+03	0	2.981058e-04
2.800000e+08	1.046726e+12	0.000000e+00	8.571428e-01	2.607531e+13	4.847413e+13	1.458214e+13	5.052545e+03	1.949558e+03	1.727649e+03	0	2.973701e-04
2.900000e+08	1.039137e+12	0.000000e+00	8.571428e-01	2.590657e+13	4.776775e+13	1.450576e+13	5.047907e+03	1.945929e+03	1.724433e+03	0	2.966496e-04
3.000000e+08	1.031733e+12	0.000000e+00	8.571428e-01	2.574189e+13	4.710564e+13	1.442993e+13	5.043299e+03	1.942512e+03	1.721405e+03	0	2.959434e-04
3.100000e+08	1.024502e+12	0.000000e+00	8.571428e-01	2.558102e+13	4.648358e+13	1.435466e+13	5.038720e+03	1.939289e+03	1.718548e+03	0	2.952504e-04
3.200000e+08	1.017434e+12	0.000000e+00	8.571428e-01	2.542371e+13	4.589779e+13	1.427994e+13	5.034169e+03	1.936243e+03	1.715849e+03	0	2.945698e-04
3.300000e+08	1.010517e+12	0.000000e+00	8.571428e-01	2.526974e+13	4.534496e+13	1.420576e+13	5.029647e+03	1.933360e+03	1.713295e+03	0	2.939008e-04
3.400000e+08	1.003744e+12	0.000000e+00	8.571428e-01	2.511890e+13	4.482210e+13	1.413211e+13	5.025152e+03	1.930628e+03	1.710873e+03	0	2.932427e-04
3.500000e+08	9.971046e+11	0.000000e+00	8.571428e-01	2.497103e+13	4.432659e+13	1.405901e+13	5.020684e+03	1.928032e+03	1.708573e+03	0	2.925947e-04
3.600000e+08	9.905925e+11	0.000000e+00	8.571428e-01	2.482594e+13	4.385605e+13	1.398643e+13	5.016242e+03	1.925563e+03	1.706385e+03	0	2.919563e-04
3.700000e+08	9.842003e+11	0.000000e+00	8.571428e-01	2.468349e+13	4.340836e+13	1.391438e+13	5.011825e+03	1.923211e+03	1.704301e+03	0	2.913270e-04
3.800000e+08	9.779217e+11	0.000000e+00	8.571428e-01	2.454354e+13	4.298163e+13	1.384285e+13	5.007434e+03	1.920967e+03	1.702312e+03	0	2.907062e-04
3.900000e+08	9.717507e+11	0.000000e+00	8.571428e-01	2.440595e+13	4.257413e+13	1.377183e+13	5.003068e+03	1.918822e+03	1.700411e+03	0	2.900934e-04
4.000000e+08	9.656819e+11	0.000000e+00	8.571428e-01	2.427061e+13	4.218433e+13	1.370133e+13	4.998727e+03	1.916769e+03	1.698592e+03	0	2.894882e-04
4.100000e+08	9.597104e+11	0.000000e+00	8.571428e-01	2.413741e+13	4.181083e+13	1.363134e+13	4.994409e+03	1.914801e+03	1.696848e+03	0	2.888903e-04
4.200000e+08	9.538316e+11	0.000000e+00	8.571428e-01	2.400626e+13	4.145237e+13	1.356186e+13	4.990115e+03	1.912912e+03	1.695174e+03	0	2.882992e-04
4.300000e+08	9.480412e+11	0.000000e+00	8.571428e-01	2.387704e+13	4.110780e+13	1.349287e+13	4.985844e+03	1.911096e+03	1.693564e+03	0	2.877146e-04
4.400000e+08	9.423354e+11	0.000000e+00	8.571428e-01	2.374969e+13	4.077608e+13	1.342438e+13	4.981597e+03	1.909347e+03	1.692015e+03	0	2.871363e-04
4.500000e+08	9.367104e+11	0.000000e+00	8.571428e-01	2.362413e+13	4.045627e+13	1.335638e+13	4.977372e+03	1.907661e+03	1.690521e+03	0	2.865638e-04
4.600000e+08	9.311630e+11	0.000000e+00	8.571428e-01	2.350027e+13	4.014751e+13	1.328887e+13	4.973169e+03	1.906034e+03	1.689079e+03	0	2.859970e-04
4.700000e+08	9.256899e+11	0.000000e+00	8.571428e-01	2.337804e+13	3.984902e+13	1.322184e+13	4.968988e+03	1.904461e+03	1.687685e+03	0	2.854356e-04
4.800000e+08	9.202884e+11	0.000000e+00	8.571428e-01	2.325740e+13	3.956007e+13	1.315530e+13	4.964829e+03	1.902939e+03	1.686336e+03	0	2.848793e-04
4.900000e+08	9.149558e+11	0.000000e+00	8.571428e-01	2.313827e+13	3.928003e+13	1.308923e+13	4.960691e+03	1.901464e+03	1.685029e+03	0	2.843280e-04
5.000000e+08	9.096894e+11	0.000000e+00	8.571428e-01	2.302061e+13	3.900827e+13	1.302363e+13	4.956575e+03	1.900033e+03	1.683761e+03	0	2.837814e-04
5.100000e+08	9.044870e+11	0.000000e+00	8.571428e-01	2.290435e+13	3.874427e+13	1.295850e+13	4.952479e+03	1.898642e+03	1.682529e+03	0	2.832394e-04
5.200000e+08	8.993465e+11	0.000000e+00	8.571428e-01	2.278946e+13	3.848751e+13	1.289384e+13	4.948404e+03	1.897291e+03	1.681331e+03	0	2.827018e-04
5.300000e+08	8.942656e+11	0.000000e+00	8.571428e-01	2.267589e+13	3.823754e+13	1.282963e+13	4.944349e+03	1.895974e+03	1.680164e+03	0	2.821684e-04
5.400000e+08	8.892426e+11	0.000000e+00	8.571428e-01	2.256359e+13	3.799393e+13	1.276589e+13	4.940315e+03	1.894692e+03	1.679028e+03	0	2.816391e-04
5.500000e+08	8.842756e+11	0.000000e+00	8.571428e-01	2.245253e+13	3.775628e+13	1.270260e+13	4.936301e+03	1.893441e+03	1.677919e+03	0	2.811138e-04
5.600000e+08	8.793630e+11	0.000000e+00	8.571428e-01	2.234267e+13	3.752425e+13	1.263976e+13	4.932306e+03	1.892219e+03	1.676836e+03	0	2.805922e-04
5.700000e+08	8.745031e+11	0.000000e+00	8.571428e-01	2.223398e+13	3.729750e+13	1.257736e+13	4.928331e+03	1.891024e+03	1.675778e+03	0	2.800744e-04
5.800000e+08	8.696945e+11	0.000000e+00	8.571428e-01	2.212641e+13	3.707572e+13	1.251541e+13	4.924375e+03	1.889856e+03	1.674742e+03	0	2.795601e-04
5.900000e+08	8.649359e+11	0.000000e+00	8.571428e-01	2.201995e+13	3.685863e+13	1.245389e+13	4.920438e+03	1.888711e+03	1.673728e+03	0	2.790492e-04
6.000000e+08	8.602257e+11	0.000000e+00	8.571428e-01	2.191457e+13	3.664598e+13	1.239282e+13	4.916520e+03	1.887590e+03	1.672734e+03	0	2.785418e-04
6.100000e+08	8.555629e+11	0.000000e+00	8.571428e-01	2.181022e+13	3.643752e+13	1.233217e+13	4.912621e+03	1.886490e+03	1.671759e+03	0	2.780376e-04
6.200000e+08	8.509462e+11	0.000000e+00	8.571428e-01	2.170690e+13	3.623302e+13	1.227195e+13	4.908740e+03	1.885410e+03	1.670802e+03	0	2.775366e-04
6.300000e+08	8.463746e+11	0.000000e+00	8.571428e-01	2.160458e+13	3.603228e+13	1.221216e+13	4.904878e+03	1.884349e+03	1.669862e+03	0	2.770387e-04
6.400000e+08	8.418469e+11	0.000000e+00	8.571428e-01	2.150322e+13	3.583512e+13	1.215279e+13	4.901034e+03	1.883306e+03	1.668938e+03	0	2.765438e-04
6.500000e+08	8.373622e+11	0.000000e+00	8.571428e-01	2.140282e+13	3.564134e+13	1.209384e+13	4.897208e+03	1.882280e+03	1.668029e+03	0	2.760519e-04
6.600000e+08	8.329195e+11	0.000000e+00	8.571428e-01	2.130334e+13	3.545080e+13	1.203530e+13	4.893400e+03	1.881270e+03	1.667134e+03	0	2.755628e-04
6.700000e+08	8.285179e+11	0.000000e+00	8.571428e-01	2.120477e+13	3.526332e+13	1.197717e+13	4.889609e+03	1.880275e+03	1.666252e+03	0	2.750765e-04
6.800000e+08	8.241566e+11	0.000000e+00	8.571428e-01	2.110710e+13	3.507878e+13	1.191946e+13	4.885836e+03	1.879295e+03	1.665383e+03	0	2.745930e-04
6.900000e+08	8.198346e+11	0.000000e+00	8.571428e-01	2.101030e+13	3.489704e+13	1.186214e+13	4.882080e+03	1.878327e+03	1.664526e+03	0	2.741122e-04
7.000000e+08	8.155514e+11	0.000000e+00	8.571428e-01	2.091435e+13	3.471797e+13	1.180523e+13	4.878342e+03	1.877373e+03	1.663680e+03	0	2.736340e-04
7.100000e+08	8.113060e+11	0.000000e+00	8.571428e-01	2.081924e+13	3.454145e+13	1.174872e+13	4.874620e+03	1.876431e+03	1.662845e+03	0	2.731583e-04
7.200000e+08	8.070978e+11	0.000000e+00	8.571428e-01	2.072495e+13	3.436740e+13	1.169260e+13	4.870916e+03	1.875501e+03	1.662021e+03	0	2.726852e-04
7.300000e+08	8.029261e+11	0.000000e+00	8.571428e-01	2.063147e+13	3.419569e+13	1.163687e+13	4.867228e+03	1.874581e+03	1.661206e+03	0	2.722146e-04
7.400000e+08	7.987903e+11	0.000000e+00	8.571428e-01	2.053879e+13	3.402624e+13	1.158154e+13	4.863557e+03	1.873672e+03	1.660401e+03	0	2.717464e-04
7.500000e+08	7.946897e+11	0.000000e+00	8.571428e-01	2.044688e+13	3.385896e+13	1.152659e+13	4.859902e+03	1.872773e+03	1.659604e+03	0	2.712806e-04
7.600000e+08	7.906237e+11	0.000000e+00	8.571428e-01	2.035575e+13	3.369377e+13	1.147202e+13	4.856264e+03	1.871884e+03	1.658815e+03	0	2.708171e-04
7.700000e+08	7.865917e+11	0.000000e+00	8.571428e-01	2.026536e+13	3.353059e+13	1.141783e+13	4.852642e+03	1.871003e+03	1.658035e+03	0	2.703560e-04
7.800000e+08	7.825932e+11	0.000000e+00	8.571428e-01	2.017572e+13	3.336935e+13	1.136402e+13	4.849035e+03	1.870131e+03	1.657263e+03	0	2.698971e-04
7.900000e+08	7.786277e+11	0.000000e+00	8.571428e-01	2.008681e+13	3.320998e+13	1.131058e+13	4.845445e+03	1.869268e+03	1.656497e+03	0	2.694405e-04
8.000000e+08	7.746946e+11	0.000000e+00	8.571428e-01	1.999861e+13	3.305242e+13	1.125751e+13	4.841871e+03	1.868412e+03	1.655739e+03	0	2.689860e-04
8.100000e+08	7.707934e+11	0.000000e+00	8.571428e-01	1.991113e+13	3.289661e+13	1.120482e+13	4.838312e+03	1.867564e+03	1.654987e+03	0	2.685338e-04
8.200000e+08	7.669236e+11	0.000000e+00	8.571428e-01	1.982434e+13	3.274249e+13	1.115248e+13	4.834769e+03	1.866723e+03	1.654242e+03	0	2.680836e-04
8.300000e+08	7.630849e+11	0.000000e+00	8.571428e-01	1.973823e+13	3.259001e+13	1.110051e+13	4.831241e+03	1.865889e+03	1.653503e+03	0	2.676356e-04
8.400000e+08	7.592766e+11	0.000000e+00	8.571428e-01	1.965280e+13	3.243913e+13	1.104889e+13	4.827729e+03	1.865062e+03	1.652770e+03	0	2.671896e-04
8.500000e+08	7.554985e+11	0.000000e+00	8.571428e-01	1.956804e+13	3.228979e+13	1.099764e+13	4.824231e+03	1.864241e+03	1.652043e+03	0	2.667457e-04
8.600000e+08	7.517500e+11	0.000000e+00	8.571428e-01	1.948394e+13	3.214195e+13	1.094673e+13	4.820749e+03	1.863427e+03	1.651321e+03	0	2.663038e-04
8.700000e+08	7.480308e+11	0.000000e+00	8.571428e-01	1.940049e+13	3.199556e+13	1.089618e+13	4.817282e+03	1.862618e+03	1.650605e+03	0	2.658639e-04
8.800000e+08	7.443404e+11	0.000000e+00	8.571428e-01	1.931768e+13	3.185060e+13	1.084597e+13	4.813829e+03	1.861815e+03	1.649893e+03	0	2.654260e-04
8.900000e+08	7.406786e+11	0.000000e+00	8.571428e-01	1.923549e+13	3.170702e+13	1.079611e+13	4.810392e+03	1.861018e+03	1.649187e+03	0	2.649900e-04
9.000000e+08	7.370448e+11	0.000000e+00	8.571428e-01	1.915394e+13	3.156479e+13	1.074659e+13	4.806969e+03	1.860226e+03	1.648485e+03	0	2.645559e-04
9.100000e+08	7.334388e+11	0.000000e+00	8.571428e-01	1.907299e+13	3.142387e+13	1.069741e+13	4.803560e+03	1.859440e+03	1.647788e+03	0	2.641238e-04
9.200000e+08	7.298601e+11	0.000000e+00	8.571428e-01	1.899266e+13	3.128424e+13	1.064857e+13	4.800166e+03	1.858658e+03	1.647095e+03	0	2.636935e-04
9.300000e+08	7.263085e+11	0.000000e+00	8.571428e-01	1.891292e+13	3.114586e+13	1.060006e+13	4.796786e+03	1.857881e+03	1.646407e+03	0	2.632651e-04
9.400000e+08	7.227835e+11	0.000000e+00	8.571428e-01	1.883377e+13	3.100870e+13	1.055188e+13	4.793420e+03	1.857109e+03	1.645723e+03	0	2.628385e-04
9.500000e+08	7.192850e+11	0.000000e+00	8.571428e-01	1.875521e+13	3.087274e+13	1.050403e+13	4.790068e+03	1.856342e+03	1.645043e+03	0	2.624137e-04
9.600000e+08	7.158125e+11	0.000000e+00	8.571428e-01	1.867723e+13	3.073795e+13	1.045651e+13	4.786730e+03	1.855579e+03	1.644366e+03	0	2.619908e-04
9.700000e+08	7.123657e+11	0.000000e+00	8.571428e-01	1.859982e+13	3.060431e+13	1.040931e+13	4.783406e+03	1.854820e+03	1.643694e+03	0	2.615696e-04
9.800000e+08	7.089443e+11	0.000000e+00	8.571428e-01	1.852298e+13	3.047179e+13	1.036243e+13	4.780096e+03	1.854065e+03	1.643025e+03	0	2.611501e-04
9.900000e+08	7.055481e+11	0.000000e+00	8.571428e-01	1.844669e+13	3.034037e+13	1.031587e+13	4.776800e+03	1.853315e+03	1.642360e+03	0	2.607325e-04
1.000000e+09	7.021767e+11	0.000000e+00	8.571428e-01	1.837095e+13	3.021003e+13	1.026963e+13	4.773517e+03	1.852568e+03	1.641699e+03	0	2.603165e-04
1.010000e+09	6.988299e+11	0.000000e+00	8.571428e-01	1.829576e+13	3.008076e+13	1.022370e+13	4.770247e+03	1.851826e+03	1.641041e+03	0	2.599023e-04
1.020000e+09	6.955074e+11	0.000000e+00	8.571428e-01	1.822110e+13	2.995252e+13	1.017809e+13	4.766991e+03	1.851087e+03	1.640386e+03	0	2.594897e-04
1.030000e+09	6.922088e+11	0.000000e+00	8.571428e-01	1.814698e+13	2.982531e+13	1.013278e+13	4.763748e+03	1.850352e+03	1.639735e+03	0	2.590788e-04
1.040000e+09	6.889340e+11	0.000000e+00	8.571428e-01	1.807339e+13	2.969910e+13	1.008777e+13	4.760519e+03	1.849621e+03	1.639087e+03	0	2.586696e-04
1.050000e+09	6.856826e+11	0.000000e+00	8.571428e-01	1.800032e+13	2.957388e+13	1.004307e+13	4.757302e+03	1.848893e+03	1.638442e+03	0	2.582621e-04
1.060000e+09	6.824545e+11	0.000000e+00	8.571428e-01	1.792776e+13	2.944963e+13	9.998676e+12	4.754098e+03	1.848169e+03	1.637800e+03	0	2.578561e-04
1.070000e+09	6.792493e+11	0.000000e+00	8.571428e-01	1.785571e+13	2.932633e+13	9.954577e+12	4.750908e+03	1.847448e+03	1.637161e+03	0	2.574518e-04
1.080000e+09	6.760668e+11	0.000000e+00	8.571428e-01	1.778417e+13	2.920397e+13	9.910775e+12	4.747730e+03	1.846730e+03	1.636525e+03	0	2.570491e-04
1.090000e+09	6.729068e+11	0.000000e+00	8.571428e-01	1.771312e+13	2.908254e+13	9.867268e+12	4.744565e+03	1.846016e+03	1.635892e+03	0	2.566480e-04
1.100000e+09	6.697690e+11	0.000000e+00	8.571428e-01	1.764257e+13	2.896202e+13	9.824053e+12	4.741412e+03	1.845304e+03	1.635262e+03	0	2.562484e-04
1.110000e+09	6.666532e+11	0.000000e+00	8.571428e-01	1.757251e+13	2.884240e+13	9.781127e+12	4.738272e+03	1.844596e+03	1.634634e+03	0	2.558505e-04
1.120000e+09	6.635591e+11	0.000000e+00	8.571428e-01	1.750293e+13	2.872367e+13	9.738490e+12	4.735144e+03	1.843891e+03	1.634010e+03	0	2.554540e-04
1.130000e+09	6.604866e+11	0.000000e+00	8.571428e-01	1.743383e+13	2.860580e+13	9.696137e+12	4.732029e+03	1.843190e+03	1.633388e+03	0	2.550591e-04
1.140000e+09	6.574354e+11	0.000000e+00	8.571428e-01	1.736520e+13	2.848880e+13	9.654068e+12	4.728926e+03	1.842491e+03	1.632768e+03	0	2.546658e-04
1.150000e+09	6.544053e+11	0.000000e+00	8.571428e-01	1.729704e+13	2.837264e+13	9.612279e+12	4.725836e+03	1.841795e+03	1.632151e+03	0	2.542739e-04
1.160000e+09	6.513961e+11	0.000000e+00	8.571428e-01	1.722934e+13	2.825732e+13	9.570769e+12	4.722757e+03	1.841102e+03	1.631537e+03	0	2.538836e-04
1.170000e+09	6.484075e+11	0.000000e+00	8.571428e-01	1.716211e+13	2.814283e+13	9.529536e+12	4.719690e+03	1.840411e+03	1.630926e+03	0	2.534947e-04
1.180000e+09	6.454394e+11	0.000000e+00	8.571428e-01	1.709532e+13	2.802915e+13	9.488577e+12	4.716636e+03	1.839724e+03	1.630316e+03	0	2.531073e-04
1.190000e+09	6.424916e+11	0.000000e+00	8.571428e-01	1.702899e+13	2.791628e+13	9.447891e+12	4.713593e+03	1.839039e+03	1.629710e+03	0	2.527214e-04
1.200000e+09	6.395638e+11	0.000000e+00	8.571428e-01	1.696310e+13	2.780420e+13	9.407474e+12	4.710562e+03	1.838357e+03	1.629105e+03	0	2.523369e-04
1.210000e+09	6.366558e+11	0.000000e+00	8.571428e-01	1.689766e+13	2.769291e+13	9.367326e+12	4.707543e+03	1.837678e+03	1.628504e+03	0	2.519539e-04
1.220000e+09	6.337676e+11	0.000000e+00	8.571428e-01	1.683265e+13	2.758239e+13	9.327443e+12	4.704535e+03	1.837002e+03	1.627904e+03	0	2.515723e-04
1.230000e+09	6.308987e+11	0.000000e+00	8.571428e-01	1.676807e+13	2.747264e+13	9.287824e+12	4.701539e+03	1.836328e+03	1.627307e+03	0	2.511922e-04
1.240000e+09	6.280492e+11	0.000000e+00	8.571428e-01	1.670393e+13	2.736365e+13	9.248468e+12	4.698554e+03	1.835656e+03	1.626712e+03	0	2.508134e-04
1.250000e+09	6.252187e+11	0.000000e+00	8.571428e-01	1.664020e+13	2.725540e+13	9.209371e+12	4.695581e+03	1.834988e+03	1.626119e+03	0	2.504361e-04
1.260000e+09	6.224071e+11	0.000000e+00	8.571428e-01	1.657690e+13	2.714790e+13	9.170532e+12	4.692619e+03	1.834321e+03	1.625529e+03	0	2.500601e-04
1.270000e+09	6.196143e+11	0.000000e+00	8.571428e-01	1.651401e+13	2.704112e+13	9.131948e+12	4.689669e+03	1.833658e+03	1.624941e+03	0	2.496855e-04
1.280000e+09	6.168400e+11	0.000000e+00	8.571428e-01	1.645154e+13	2.693507e+13	9.093619e+12	4.686729e+03	1.832996e+03	1.624355e+03	0	2.493123e-04
1.290000e+09	6.140840e+11	0.000000e+00	8.571428e-01	1.638947e+13	2.682974e+13	9.055541e+12	4.683801e+03	1.832338e+03	1.623771e+03	0	2.489405e-04
1.300000e+09	6.113463e+11	0.000000e+00	8.571428e-01	1.632781e+13	2.672511e+13	9.017713e+12	4.680884e+03	1.831681e+03	1.623189e+03	0	2.485700e-04
1.310000e+09	6.086266e+11	0.000000e+00	8.571428e-01	1.626654e+13	2.662119e+13	8.980134e+12	4.677977e+03	1.831027e+03	1.622610e+03	0	2.482008e-04
1.320000e+09	6.059247e+11	0.000000e+00	8.571428e-01	1.620568e+13	2.651795e+13	8.942800e+12	4.675082e+03	1.830376e+03	1.622032e+03	0	2.478330e-04
1.330000e+09	6.032405e+11	0.000000e+00	8.571428e-01	1.614521e+13	2.641541e+13	8.905711e+12	4.672197e+03	1.829726e+03	1.621457e+03	0	2.474665e-04
1.340000e+09	6.005738e+11	0.000000e+00	8.571428e-01	1.608513e+13	2.631354e+13	8.868864e+12	4.669324e+03	1.829079e+03	1.620884e+03	0	2.471013e-04
1.350000e+09	5.979245e+11	0.000000e+00	8.571428e-01	1.602543e+13	2.621234e+13	8.832257e+12	4.666460e+03	1.828435e+03	1.620312e+03	0	2.467374e-04
1.360000e+09	5.952923e+11	0.000000e+00	8.571428e-01	1.596611e+13	2.611181e+13	8.795889e+12	4.663608e+03	1.827792e+03	1.619743e+03	0	2.463748e-04
