#t		Qconv[W]	Ri[Rp]		R*[Rp]		Qc[W]		Qm[W]		Qr[W]		Tcmb[K]		Tl[K]		Tup[K]		RiFlag		Bs[T]
0.000000e+00	6.328649e+11	0.000000e+00	8.469387e-01	1.787002e+13	2.462802e+14	2.696736e+13	4.911709e+03	2.562649e+03	2.314486e+03	0	2.475773e-04
1.000000e+07	6.118692e+11	0.000000e+00	8.469387e-01	1.750625e+13	2.163928e+14	2.681794e+13	4.909630e+03	2.506490e+03	2.263766e+03	0	2.448086e-04
2.000000e+07	5.925162e+11	0.000000e+00	8.469387e-01	1.717077e+13	1.926927e+14	2.666964e+13	4.907593e+03	2.458221e+03	2.220171e+03	0	2.421999e-04
3.000000e+07	5.747301e+11	0.000000e+00	8.469387e-01	1.686227e+13	1.735334e+14	2.652245e+13	4.905595e+03	2.416246e+03	2.182261e+03	0	2.397518e-04
4.000000e+07	5.583879e+11	0.000000e+00	8.469387e-01	1.657864e+13	1.577885e+14	2.637635e+13	4.903632e+03	2.379382e+03	2.148967e+03	0	2.374575e-04
5.000000e+07	5.433538e+11	0.000000e+00	8.469387e-01	1.631753e+13	1.446650e+14	2.623135e+13	4.901703e+03	2.346731e+03	2.119478e+03	0	2.353070e-04
6.000000e+07	5.294955e+11	0.000000e+00	8.469387e-01	1.607667e+13	1.335908e+14	2.608742e+13	4.899804e+03	2.317600e+03	2.093168e+03	0	2.332892e-04
7.000000e+07	5.166908e+11	0.000000e+00	8.469387e-01	1.585396e+13	1.241445e+14	2.594457e+13	4.897933e+03	2.291443e+03	2.069543e+03	0	2.313933e-04
8.000000e+07	5.048292e+11	0.000000e+00	8.469387e-01	1.564749e+13	1.160095e+14	2.580278e+13	4.896089e+03	2.267823e+03	2.048211e+03	0	2.296089e-04
9.000000e+07	4.938127e+11	0.000000e+00	8.469387e-01	1.545558e+13	1.089440e+14	2.566205e+13	4.894268e+03	2.246388e+03	2.028851e+03	0	2.279264e-04
1.000000e+08	4.835545e+11	0.000000e+00	8.469387e-01	1.527673e+13	1.027606e+14	2.552236e+13	4.892469e+03	2.226849e+03	2.011204e+03	0	2.263371e-04
1.100000e+08	4.739784e+11	0.000000e+00	8.469387e-01	1.510964e+13	9.731211e+13	2.538370e+13	4.890691e+03	2.208966e+03	1.995053e+03	0	2.248330e-04
1.200000e+08	4.650172e+11	0.000000e+00	8.469387e-01	1.495313e+13	9.248128e+13	2.524608e+13	4.888933e+03	2.192540e+03	1.980218e+03	0	2.234071e-04
1.300000e+08	4.566118e+11	0.000000e+00	8.469387e-01	1.480621e+13	8.817397e+13	2.510947e+13	4.887192e+03	2.177403e+03	1.966547e+03	0	2.220528e-04
1.400000e+08	4.487101e+11	0.000000e+00	8.469387e-01	1.466797e+13	8.431369e+13	2.497387e+13	4.885469e+03	2.163412e+03	1.953911e+03	0	2.207645e-04
1.500000e+08	4.412659e+11	0.000000e+00	8.469387e-01	1.453761e+13	8.083771e+13	2.483928e+13	4.883762e+03	2.150444e+03	1.942198e+03	0	2.195368e-04
1.600000e+08	4.342383e+11	0.000000e+00	8.469387e-01	1.441443e+13	7.769420e+13	2.470568e+13	4.882070e+03	2.138394e+03	1.931315e+03	0	2.183651e-04
1.700000e+08	4.275912e+11	0.000000e+00	8.469387e-01	1.429781e+13	7.483999e+13	2.457307e+13	4.880393e+03	2.127171e+03	1.921179e+03	0	2.172452e-04
1.800000e+08	4.212921e+11	0.000000e+00	8.469387e-01	1.418719e+13	7.223883e+13	2.444143e+13	4.878729e+03	2.116695e+03	1.911718e+03	0	2.161731e-04
1.900000e+08	4.153123e+11	0.000000e+00	8.469387e-01	1.408208e+13	6.986012e+13	2.431076e+13	4.877078e+03	2.106897e+03	1.902869e+03	0	2.151454e-04
2.000000e+08	4.096258e+11	0.000000e+00	8.469387e-01	1.398202e+13	6.767786e+13	2.418106e+13	4.875439e+03	2.097716e+03	1.894576e+03	0	2.141590e-04
2.100000e+08	4.042094e+11	0.000000e+00	8.469387e-01	1.388662e+13	6.566982e+13	2.405231e+13	4.873811e+03	2.089097e+03	1.886792e+03	0	2.132109e-04
2.200000e+08	3.990424e+11	0.000000e+00	8.469387e-01	1.379553e+13	6.381690e+13	2.392450e+13	4.872195e+03	2.080993e+03	1.879473e+03	0	2.122985e-04
2.300000e+08	3.941057e+11	0.000000e+00	8.469387e-01	1.370840e+13	6.210261e+13	2.379763e+13	4.870590e+03	2.073361e+03	1.872580e+03	0	2.114194e-04
2.400000e+08	3.893825e+11	0.000000e+00	8.469387e-01	1.362496e+13	6.051264e+13	2.367170e+13	4.868994e+03	2.066163e+03	1.866079e+03	0	2.105714e-04
2.500000e+08	3.848571e+11	0.000000e+00	8.469387e-01	1.354494e+13	5.903451e+13	2.354668e+13	4.867408e+03	2.059364e+03	1.859939e+03	0	2.097525e-04
2.600000e+08	3.805157e+11	0.000000e+00	8.469387e-01	1.346808e+13	5.765732e+13	2.342258e+13	4.865832e+03	2.052934e+03	1.854132e+03	0	2.089608e-04
2.700000e+08	3.763454e+11	0.000000e+00	8.469387e-01	1.339419e+13	5.637148e+13	2.329939e+13	4.864264e+03	2.046846e+03	1.848633e+03	0	2.081946e-04
2.800000e+08	3.723345e+11	0.000000e+00	8.469387e-01	1.332304e+13	5.516855e+13	2.317710e+13	4.862706e+03	2.041073e+03	1.843419e+03	0	2.074523e-04
2.900000e+08	3.684724e+11	0.000000e+00	8.469387e-01	1.325446e+13	5.404103e+13	2.305570e+13	4.861155e+03	2.035593e+03	1.838470e+03	0	2.067326e-04
3.000000e+08	3.647494e+11	0.000000e+00	8.469387e-01	1.318828e+13	5.298231e+13	2.293518e+13	4.859612e+03	2.030386e+03	1.833767e+03	0	2.060339e-04
3.100000e+08	3.611565e+11	0.000000e+00	8.469387e-01	1.312435e+13	5.198646e+13	2.281554e+13	4.858077e+03	2.025433e+03	1.829293e+03	0	2.053552e-04
3.200000e+08	3.576854e+11	0.000000e+00	8.469387e-01	1.306253e+13	5.104821e+13	2.269678e+13	4.856550e+03	2.020716e+03	1.825033e+03	0	2.046952e-04
3.300000e+08	3.543286e+11	0.000000e+00	8.469387e-01	1.300268e+13	5.016283e+13	2.257887e+13	4.855029e+03	2.016220e+03	1.820972e+03	0	2.040528e-04
3.400000e+08	3.510792e+11	0.000000e+00	8.469387e-01	1.294468e+13	4.932609e+13	2.246183e+13	4.853516e+03	2.011929e+03	1.817097e+03	0	2.034272e-04
3.500000e+08	3.479307e+11	0.000000e+00	8.469387e-01	1.288843e+13	4.853416e+13	2.234563e+13	4.852009e+03	2.007832e+03	1.813397e+03	0	2.028172e-04
3.600000e+08	3.448771e+11	0.000000e+00	8.469387e-01	1.283382e+13	4.778360e+13	2.223027e+13	4.850509e+03	2.003916e+03	1.809860e+03	0	2.022221e-04
3.700000e+08	3.419130e+11	0.000000e+00	8.469387e-01	1.278075e+13	4.707129e+13	2.211575e+13	4.849015e+03	2.000169e+03	1.806476e+03	0	2.016411e-04
3.800000e+08	3.390332e+11	0.000000e+00	8.469387e-01	1.272915e+13	4.639441e+13	2.200206e+13	4.847528e+03	1.996581e+03	1.803235e+03	0	2.010734e-04
3.900000e+08	3.362330e+11	0.000000e+00	8.469387e-01	1.267891e+13	4.575038e+13	2.188919e+13	4.846046e+03	1.993142e+03	1.800129e+03	0	2.005183e-04
4.000000e+08	3.335079e+11	0.000000e+00	8.469387e-01	1.262998e+13	4.513688e+13	2.177714e+13	4.844570e+03	1.989844e+03	1.797151e+03	0	1.999751e-04
4.100000e+08	3.308540e+11	0.000000e+00	8.469387e-01	1.258228e+13	4.455177e+13	2.166589e+13	4.843100e+03	1.986678e+03	1.794292e+03	0	1.994432e-04
4.200000e+08	3.282673e+11	0.000000e+00	8.469387e-01	1.253574e+13	4.399311e+13	2.155544e+13	4.841636e+03	1.983637e+03	1.791545e+03	0	1.989221e-04
4.300000e+08	3.257444e+11	0.000000e+00	8.469387e-01	1.249031e+13	4.345913e+13	2.144580e+13	4.840177e+03	1.980714e+03	1.788905e+03	0	1.984112e-04
4.400000e+08	3.232818e+11	0.000000e+00	8.469387e-01	1.244592e+13	4.294818e+13	2.133694e+13	4.838723e+03	1.977901e+03	1.786365e+03	0	1.979100e-04
4.500000e+08	3.208766e+11	0.000000e+00	8.469387e-01	1.240252e+13	4.245877e+13	2.122886e+13	4.837274e+03	1.975194e+03	1.783919e+03	0	1.974179e-04
4.600000e+08	3.185257e+11	0.000000e+00	8.469387e-01	1.236007e+13	4.198953e+13	2.112155e+13	4.835831e+03	1.972585e+03	1.781563e+03	0	1.969346e-04
4.700000e+08	3.162266e+11	0.000000e+00	8.469387e-01	1.231851e+13	4.153919e+13	2.101502e+13	4.834392e+03	1.970070e+03	1.779291e+03	0	1.964596e-04
4.800000e+08	3.139766e+11	0.000000e+00	8.469387e-01	1.227780e+13	4.110657e+13	2.090925e+13	4.832958e+03	1.967643e+03	1.777100e+03	0	1.959926e-04
4.900000e+08	3.117734e+11	0.000000e+00	8.469387e-01	1.223791e+13	4.069059e+13	2.080424e+13	4.831529e+03	1.965301e+03	1.774984e+03	0	1.955331e-04
5.000000e+08	3.096147e+11	0.000000e+00	8.469387e-01	1.219878e+13	4.029027e+13	2.069998e+13	4.830105e+03	1.963037e+03	1.772940e+03	0	1.950807e-04
5.100000e+08	3.074984e+11	0.000000e+00	8.469387e-01	1.216039e+13	3.990467e+13	2.059646e+13	4.828685e+03	1.960850e+03	1.770964e+03	0	1.946353e-04
5.200000e+08	3.054226e+11	0.000000e+00	8.469387e-01	1.212270e+13	3.953294e+13	2.049369e+13	4.827270e+03	1.958733e+03	1.769053e+03	0	1.941963e-04
5.300000e+08	3.033854e+11	0.000000e+00	8.469387e-01	1.208568e+13	3.917428e+13	2.039164e+13	4.825858e+03	1.956685e+03	1.767203e+03	0	1.937636e-04
5.400000e+08	3.013851e+11	0.000000e+00	8.469387e-01	1.204931e+13	3.882795e+13	2.029032e+13	4.824452e+03	1.954701e+03	1.765411e+03	0	1.933368e-04
5.500000e+08	2.994200e+11	0.000000e+00	8.469387e-01	1.201354e+13	3.849327e+13	2.018973e+13	4.823049e+03	1.952779e+03	1.763675e+03	0	1.929157e-04
5.600000e+08	2.974886e+11	0.000000e+00	8.469387e-01	1.197836e+13	3.816960e+13	2.008984e+13	4.821651e+03	1.950914e+03	1.761991e+03	0	1.925000e-04
5.700000e+08	2.955894e+11	0.000000e+00	8.469387e-01	1.194373e+13	3.785634e+13	1.999067e+13	4.820257e+03	1.949105e+03	1.760357e+03	0	1.920894e-04
5.800000e+08	2.937211e+11	0.000000e+00	8.469387e-01	1.190965e+13	3.755293e+13	1.989220e+13	4.818866e+03	1.947349e+03	1.758771e+03	0	1.916839e-04
5.900000e+08	2.918822e+11	0.000000e+00	8.469387e-01	1.187607e+13	3.725886e+13	1.979443e+13	4.817480e+03	1.945643e+03	1.757230e+03	0	1.912830e-04
6.000000e+08	2.900717e+11	0.000000e+00	8.469387e-01	1.184299e+13	3.697364e+13	1.969735e+13	4.816098e+03	1.943985e+03	1.755733e+03	0	1.908867e-04
6.100000e+08	2.882884e+11	0.000000e+00	8.469387e-01	1.181038e+13	3.669681e+13	1.960096e+13	4.814719e+03	1.942373e+03	1.754277e+03	0	1.904947e-04
6.200000e+08	2.865310e+11	0.000000e+00	8.469387e-01	1.177822e+13	3.642796e+13	1.950525e+13	4.813345e+03	1.940804e+03	1.752860e+03	0	1.901068e-04
6.300000e+08	2.847987e+11	0.000000e+00	8.469387e-01	1.174650e+13	3.616667e+13	1.941022e+13	4.811974e+03	1.939276e+03	1.751480e+03	0	1.897230e-04
6.400000e+08	2.830905e+11	0.000000e+00	8.469387e-01	1.171520e+13	3.591259e+13	1.931585e+13	4.810606e+03	1.937788e+03	1.750136e+03	0	1.893429e-04
6.500000e+08	2.814053e+11	0.000000e+00	8.469387e-01	1.168429e+13	3.566536e+13	1.922215e+13	4.809243e+03	1.936338e+03	1.748827e+03	0	1.889664e-04
6.600000e+08	2.797423e+11	0.000000e+00	8.469387e-01	1.165378e+13	3.542465e+13	1.912911e+13	4.807883e+03	1.934924e+03	1.747550e+03	0	1.885934e-04
6.700000e+08	2.781007e+11	0.000000e+00	8.469387e-01	1.162364e+13	3.519015e+13	1.903672e+13	4.806526e+03	1.933545e+03	1.746304e+03	0	1.882238e-04
6.800000e+08	2.764797e+11	0.000000e+00	8.469387e-01	1.159385e+13	3.496156e+13	1.894499e+13	4.805173e+03	1.932198e+03	1.745087e+03	0	1.878574e-04
6.900000e+08	2.748785e+11	0.000000e+00	8.469387e-01	1.156442e+13	3.473863e+13	1.885389e+13	4.803824e+03	1.930883e+03	1.743900e+03	0	1.874940e-04
7.000000e+08	2.732964e+11	0.000000e+00	8.469387e-01	1.153531e+13	3.452108e+13	1.876344e+13	4.802478e+03	1.929599e+03	1.742739e+03	0	1.871336e-04
7.100000e+08	2.717328e+11	0.000000e+00	8.469387e-01	1.150653e+13	3.430868e+13	1.867361e+13	4.801135e+03	1.928343e+03	1.741605e+03	0	1.867761e-04
7.200000e+08	2.701869e+11	0.000000e+00	8.469387e-01	1.147806e+13	3.410119e+13	1.858442e+13	4.799795e+03	1.927114e+03	1.740496e+03	0	1.864212e-04
7.300000e+08	2.686582e+11	0.000000e+00	8.469387e-01	1.144988e+13	3.389840e+13	1.849585e+13	4.798459e+03	1.925913e+03	1.739410e+03	0	1.860690e-04
7.400000e+08	2.671461e+11	0.000000e+00	8.469387e-01	1.142200e+13	3.370011e+13	1.840790e+13	4.797127e+03	1.924736e+03	1.738348e+03	0	1.857192e-04
7.500000e+08	2.656500e+11	0.000000e+00	8.469387e-01	1.139440e+13	3.350612e+13	1.832056e+13	4.795797e+03	1.923584e+03	1.737307e+03	0	1.853719e-04
7.600000e+08	2.641695e+11	0.000000e+00	8.469387e-01	1.136706e+13	3.331625e+13	1.823382e+13	4.794471e+03	1.922455e+03	1.736288e+03	0	1.850268e-04
7.700000e+08	2.627039e+11	0.000000e+00	8.469387e-01	1.133999e+13	3.313032e+13	1.814770e+13	4.793148e+03	1.921349e+03	1.735289e+03	0	1.846840e-04
7.800000e+08	2.612528e+11	0.000000e+00	8.469387e-01	1.131318e+13	3.294819e+13	1.806217e+13	4.791828e+03	1.920264e+03	1.734309e+03	0	1.843434e-04
7.900000e+08	2.598158e+11	0.000000e+00	8.469387e-01	1.128661e+13	3.276968e+13	1.797723e+13	4.790511e+03	1.919199e+03	1.733347e+03	0	1.840048e-04
8.000000e+08	2.583924e+11	0.000000e+00	8.469387e-01	1.126028e+13	3.259466e+13	1.789289e+13	4.789197e+03	1.918155e+03	1.732404e+03	0	1.836681e-04
8.100000e+08	2.569823e+11	0.000000e+00	8.469387e-01	1.123418e+13	3.242298e+13	1.780913e+13	4.787886e+03	1.917129e+03	1.731478e+03	0	1.833334e-04
8.200000e+08	2.555849e+11	0.000000e+00	8.469387e-01	1.120830e+13	3.225452e+13	1.772594e+13	4.786579e+03	1.916122e+03	1.730568e+03	0	1.830005e-04
8.300000e+08	2.542000e+11	0.000000e+00	8.469387e-01	1.118264e+13	3.208914e+13	1.764334e+13	4.785274e+03	1.915132e+03	1.729674e+03	0	1.826694e-04
8.400000e+08	2.528271e+11	0.000000e+00	8.469387e-01	1.115720e+13	3.192674e+13	1.756130e+13	4.783972e+03	1.914159e+03	1.728795e+03	0	1.823399e-04
8.500000e+08	2.514660e+11	0.000000e+00	8.469387e-01	1.113196e+13	3.176719e+13	1.747983e+13	4.782674e+03	1.913202e+03	1.727931e+03	0	1.820121e-04
8.600000e+08	2.501162e+11	0.000000e+00	8.469387e-01	1.110692e+13	3.161040e+13	1.739892e+13	4.781378e+03	1.912261e+03	1.727081e+03	0	1.816859e-04
8.700000e+08	2.487776e+11	0.000000e+00	8.469387e-01	1.108207e+13	3.145626e+13	1.731857e+13	4.780085e+03	1.911335e+03	1.726245e+03	0	1.813612e-04
8.800000e+08	2.474497e+11	0.000000e+00	8.469387e-01	1.105741e+13	3.130467e+13	1.723877e+13	4.778795e+03	1.910423e+03	1.725421e+03	0	1.810379e-04
8.900000e+08	2.461323e+11	0.000000e+00	8.469387e-01	1.103294e+13	3.115554e+13	1.715952e+13	4.777508e+03	1.909526e+03	1.724610e+03	0	1.807161e-04
9.000000e+08	2.448251e+11	0.000000e+00	8.469387e-01	1.100865e+13	3.100879e+13	1.708081e+13	4.776223e+03	1.908641e+03	1.723812e+03	0	1.803956e-04
9.100000e+08	2.435278e+11	0.000000e+00	8.469387e-01	1.098453e+13	3.086433e+13	1.700265e+13	4.774942e+03	1.907770e+03	1.723025e+03	0	1.800764e-04
9.200000e+08	2.422403e+11	0.000000e+00	8.469387e-01	1.096058e+13	3.072208e+13	1.692501e+13	4.773663e+03	1.906911e+03	1.722249e+03	0	1.797585e-04
9.300000e+08	2.409622e+11	0.000000e+00	8.469387e-01	1.093680e+13	3.058197e+13	1.684791e+13	4.772388e+03	1.906064e+03	1.721484e+03	0	1.794418e-04
9.400000e+08	2.396933e+11	0.000000e+00	8.469387e-01	1.091318e+13	3.044393e+13	1.677134e+13	4.771114e+03	1.905229e+03	1.720730e+03	0	1.791262e-04
9.500000e+08	2.384334e+11	0.000000e+00	8.469387e-01	1.088972e+13	3.030788e+13	1.669529e+13	4.769844e+03	1.904405e+03	1.719986e+03	0	1.788118e-04
9.600000e+08	2.371823e+11	0.000000e+00	8.469387e-01	1.086642e+13	3.017376e+13	1.661976e+13	4.768576e+03	1.903592e+03	1.719251e+03	0	1.784985e-04
9.700000e+08	2.359397e+11	0.000000e+00	8.469387e-01	1.084326e+13	3.004152e+13	1.654474e+13	4.767312e+03	1.902789e+03	1.718526e+03	0	1.781863e-04
9.800000e+08	2.347056e+11	0.000000e+00	8.469387e-01	1.082026e+13	2.991108e+13	1.647023e+13	4.766049e+03	1.901996e+03	1.717810e+03	0	1.778750e-04
9.900000e+08	2.334796e+11	0.000000e+00	8.469387e-01	1.079739e+13	2.978239e+13	1.639623e+13	4.764790e+03	1.901213e+03	1.717103e+03	0	1.775648e-04
1.000000e+09	2.322617e+11	0.000000e+00	8.469387e-01	1.077467e+13	2.965541e+13	1.632273e+13	4.763533e+03	1.900440e+03	1.716404e+03	0	1.772555e-04
1.010000e+09	2.310515e+11	0.000000e+00	8.469387e-01	1.075209e+13	2.953007e+13	1.624973e+13	4.762279e+03	1.899675e+03	1.715714e+03	0	1.769471e-04
1.020000e+09	2.298491e+11	0.000000e+00	8.469387e-01	1.072965e+13	2.940632e+13	1.617722e+13	4.761027e+03	1.898919e+03	1.715031e+03	0	1.766396e-04
1.030000e+09	2.286541e+11	0.000000e+00	8.469387e-01	1.070733e+13	2.928413e+13	1.610521e+13	4.759778e+03	1.898172e+03	1.714356e+03	0	1.763330e-04
1.040000e+09	2.274665e+11	0.000000e+00	8.469387e-01	1.068515e+13	2.916344e+13	1.603368e+13	4.758532e+03	1.897433e+03	1.713689e+03	0	1.760272e-04
1.050000e+09	2.262861e+11	0.000000e+00	8.469387e-01	1.066309e+13	2.904421e+13	1.596263e+13	4.757288e+03	1.896703e+03	1.713029e+03	0	1.757222e-04
1.060000e+09	2.251128e+11	0.000000e+00	8.469387e-01	1.064116e+13	2.892640e+13	1.589207e+13	4.756047e+03	1.895979e+03	1.712376e+03	0	1.754179e-04
1.070000e+09	2.239464e+11	0.000000e+00	8.469387e-01	1.061935e+13	2.880997e+13	1.582198e+13	4.754808e+03	1.895264e+03	1.711730e+03	0	1.751144e-04
1.080000e+09	2.227868e+11	0.000000e+00	8.469387e-01	1.059766e+13	2.869488e+13	1.575236e+13	4.753572e+03	1.894555e+03	1.711090e+03	0	1.748116e-04
1.090000e+09	2.216338e+11	0.000000e+00	8.469387e-01	1.057609e+13	2.858109e+13	1.568320e+13	4.752338e+03	1.893854e+03	1.710456e+03	0	1.745096e-04
1.100000e+09	2.204874e+11	0.000000e+00	8.469387e-01	1.055464e+13	2.846857e+13	1.561452e+13	4.751107e+03	1.893160e+03	1.709829e+03	0	1.742082e-04
1.110000e+09	2.193474e+11	0.000000e+00	8.469387e-01	1.053330e+13	2.835729e+13	1.554629e+13	4.749878e+03	1.892472e+03	1.709208e+03	0	1.739074e-04
1.120000e+09	2.182138e+11	0.000000e+00	8.469387e-01	1.051207e+13	2.824721e+13	1.547852e+13	4.748652e+03	1.891790e+03	1.708593e+03	0	1.736073e-04
1.130000e+09	2.170863e+11	0.000000e+00	8.469387e-01	1.049095e+13	2.813831e+13	1.541121e+13	4.747429e+03	1.891115e+03	1.707983e+03	0	1.733078e-04
1.140000e+09	2.159649e+11	0.000000e+00	8.469387e-01	1.046994e+13	2.803055e+13	1.534434e+13	4.746207e+03	1.890446e+03	1.707379e+03	0	1.730088e-04
1.150000e+09	2.148495e+11	0.000000e+00	8.469387e-01	1.044904e+13	2.792390e+13	1.527792e+13	4.744989e+03	1.889783e+03	1.706780e+03	0	1.727105e-04
1.160000e+09	2.137400e+11	0.000000e+00	8.469387e-01	1.042824e+13	2.781834e+13	1.521194e+13	4.743772e+03	1.889126e+03	1.706186e+03	0	1.724127e-04
1.170000e+09	2.126363e+11	0.000000e+00	8.469387e-01	1.040755e+13	2.771383e+13	1.514641e+13	4.742558e+03	1.888474e+03	1.705597e+03	0	1.721154e-04
1.180000e+09	2.115383e+11	0.000000e+00	8.469387e-01	1.038695e+13	2.761037e+13	1.508131e+13	4.741347e+03	1.887827e+03	1.705013e+03	0	1.718186e-04
1.190000e+09	2.104459e+11	0.000000e+00	8.469387e-01	1.036646e+13	2.750791e+13	1.501664e+13	4.740138e+03	1.887186e+03	1.704434e+03	0	1.715223e-04
1.200000e+09	2.093590e+11	0.000000e+00	8.469387e-01	1.034606e+13	2.740645e+13	1.495240e+13	4.738931e+03	1.886550e+03	1.703860e+03	0	1.712266e-04
1.210000e+09	2.082776e+11	0.000000e+00	8.469387e-01	1.032576e+13	2.730594e+13	1.488859e+13	4.737727e+03	1.885919e+03	1.703290e+03	0	1.709312e-04
1.220000e+09	2.072016e+11	0.000000e+00	8.469387e-01	1.030556e+13	2.720638e+13	1.482520e+13	4.736525e+03	1.885293e+03	1.702724e+03	0	1.706364e-04
1.230000e+09	2.061308e+11	0.000000e+00	8.469387e-01	1.028545e+13	2.710775e+13	1.476223e+13	4.735325e+03	1.884671e+03	1.702163e+03	0	1.703419e-04
1.240000e+09	2.050653e+11	0.000000e+00	8.469387e-01	1.026543e+13	2.701001e+13	1.469967e+13	4.734128e+03	1.884055e+03	1.701606e+03	0	1.700479e-04
1.250000e+09	2.040049e+11	0.000000e+00	8.469387e-01	1.024551e+13	2.691316e+13	1.463753e+13	4.732933e+03	1.883442e+03	1.701053e+03	0	1.697543e-04
1.260000e+09	2.029495e+11	0.000000e+00	8.469387e-01	1.022567e+13	2.681717e+13	1.457580e+13	4.731740e+03	1.882834e+03	1.700504e+03	0	1.694610e-04
1.270000e+09	2.018992e+11	0.000000e+00	8.469387e-01	1.020593e+13	2.672203e+13	1.451448e+13	4.730550e+03	1.882231e+03	1.699959e+03	0	1.691682e-04
1.280000e+09	2.008538e+11	0.000000e+00	8.469387e-01	1.018627e+13	2.662772e+13	1.445355e+13	4.729362e+03	1.881631e+03	1.699417e+03	0	1.688757e-04
1.290000e+09	1.998132e+11	0.000000e+00	8.469387e-01	1.016670e+13	2.653421e+13	1.439303e+13	4.728176e+03	1.881036e+03	1.698880e+03	0	1.685836e-04
1.300000e+09	1.987775e+11	0.000000e+00	8.469387e-01	1.014722e+13	2.644151e+13	1.433291e+13	4.726992e+03	1.880445e+03	1.698346e+03	0	1.682918e-04
1.310000e+09	1.977465e+11	0.000000e+00	8.469387e-01	1.012782e+13	2.634959e+13	1.427318e+13	4.725811e+03	1.879857e+03	1.697815e+03	0	1.680003e-04
1.320000e+09	1.967202e+11	0.000000e+00	8.469387e-01	1.010850e+13	2.625843e+13	1.421384e+13	4.724632e+03	1.879274e+03	1.697288e+03	0	1.677092e-04
1.330000e+09	1.956986e+11	0.000000e+00	8.469387e-01	1.008927e+13	2.616802e+13	1.415489e+13	4.723455e+03	1.878694e+03	1.696764e+03	0	1.674184e-04
1.340000e+09	1.946815e+11	0.000000e+00	8.469387e-01	1.007012e+13	2.607834e+13	1.409632e+13	4.722281e+03	1.878117e+03	1.696244e+03	0	1.671278e-04
1.350000e+09	1.936689e+11	0.000000e+00	8.469387e-01	1.005105e+13	2.598940e+13	1.403814e+13	4.721109e+03	1.877545e+03	1.695726e+03	0	1.668376e-04
1.360000e+09	1.926608e+11	0.000000e+00	8.469387e-01	1.003206e+13	2.590116e+13	1.398034e+13	4.719939e+03	1.876975e+03	1.695212e+03	0	1.665476e-04
