#t		Qconv[W]	Ri[Rp]		R*[Rp]		Qc[W]		Qm[W]		Qr[W]		Tcmb[K]		Tl[K]		Tup[K]		RiFlag		Bs[T]
0.000000e+00	4.836425e+11	0.000000e+00	8.556700e-01	1.693989e+13	2.456142e+14	2.827425e+13	5.062633e+03	2.614989e+03	2.363204e+03	0	2.241818e-04
1.000000e+07	4.623551e+11	0.000000e+00	8.556700e-01	1.659942e+13	2.172872e+14	2.811759e+13	5.060930e+03	2.561411e+03	2.314784e+03	0	2.208433e-04
2.000000e+07	4.428195e+11	0.000000e+00	8.556700e-01	1.628676e+13	1.945734e+14	2.796210e+13	5.059262e+03	2.515012e+03	2.272853e+03	0	2.176880e-04
3.000000e+07	4.249095e+11	0.000000e+00	8.556700e-01	1.599993e+13	1.760369e+14	2.780777e+13	5.057624e+03	2.474401e+03	2.236152e+03	0	2.147127e-04
4.000000e+07	4.084763e+11	0.000000e+00	8.556700e-01	1.573656e+13	1.606790e+14	2.765460e+13	5.056016e+03	2.438532e+03	2.203736e+03	0	2.119083e-04
5.000000e+07	3.933709e+11	0.000000e+00	8.556700e-01	1.549427e+13	1.477869e+14	2.750257e+13	5.054434e+03	2.406603e+03	2.174882e+03	0	2.092633e-04
6.000000e+07	3.794540e+11	0.000000e+00	8.556700e-01	1.527087e+13	1.368401e+14	2.735167e+13	5.052876e+03	2.377988e+03	2.149022e+03	0	2.067658e-04
7.000000e+07	3.665996e+11	0.000000e+00	8.556700e-01	1.506434e+13	1.274510e+14	2.720189e+13	5.051341e+03	2.352191e+03	2.125709e+03	0	2.044041e-04
8.000000e+07	3.546955e+11	0.000000e+00	8.556700e-01	1.487292e+13	1.193255e+14	2.705323e+13	5.049827e+03	2.328810e+03	2.104579e+03	0	2.021673e-04
9.000000e+07	3.436426e+11	0.000000e+00	8.556700e-01	1.469501e+13	1.122373e+14	2.690568e+13	5.048331e+03	2.307521e+03	2.085340e+03	0	2.000451e-04
1.000000e+08	3.333539e+11	0.000000e+00	8.556700e-01	1.452925e+13	1.060094e+14	2.675922e+13	5.046854e+03	2.288054e+03	2.067748e+03	0	1.980284e-04
1.100000e+08	3.237529e+11	0.000000e+00	8.556700e-01	1.437442e+13	1.005020e+14	2.661384e+13	5.045393e+03	2.270187e+03	2.051601e+03	0	1.961087e-04
1.200000e+08	3.147722e+11	0.000000e+00	8.556700e-01	1.422945e+13	9.560293e+13	2.646955e+13	5.043948e+03	2.253731e+03	2.036729e+03	0	1.942783e-04
1.300000e+08	3.063529e+11	0.000000e+00	8.556700e-01	1.409341e+13	9.122175e+13	2.632632e+13	5.042518e+03	2.238527e+03	2.022990e+03	0	1.925305e-04
1.400000e+08	2.984426e+11	0.000000e+00	8.556700e-01	1.396545e+13	8.728449e+13	2.618415e+13	5.041101e+03	2.224441e+03	2.010260e+03	0	1.908589e-04
1.500000e+08	2.909951e+11	0.000000e+00	8.556700e-01	1.384485e+13	8.373022e+13	2.604304e+13	5.039697e+03	2.211356e+03	1.998435e+03	0	1.892580e-04
1.600000e+08	2.839697e+11	0.000000e+00	8.556700e-01	1.373097e+13	8.050840e+13	2.590296e+13	5.038305e+03	2.199172e+03	1.987423e+03	0	1.877225e-04
1.700000e+08	2.773300e+11	0.000000e+00	8.556700e-01	1.362321e+13	7.757672e+13	2.576392e+13	5.036924e+03	2.187800e+03	1.977146e+03	0	1.862478e-04
1.800000e+08	2.710434e+11	0.000000e+00	8.556700e-01	1.352107e+13	7.489957e+13	2.562591e+13	5.035555e+03	2.177165e+03	1.967535e+03	0	1.848298e-04
1.900000e+08	2.650811e+11	0.000000e+00	8.556700e-01	1.342409e+13	7.244676e+13	2.548891e+13	5.034195e+03	2.167199e+03	1.958529e+03	0	1.834644e-04
2.000000e+08	2.594170e+11	0.000000e+00	8.556700e-01	1.333186e+13	7.019255e+13	2.535292e+13	5.032846e+03	2.157844e+03	1.950075e+03	0	1.821483e-04
2.100000e+08	2.540278e+11	0.000000e+00	8.556700e-01	1.324400e+13	6.811489e+13	2.521793e+13	5.031505e+03	2.149048e+03	1.942125e+03	0	1.808781e-04
2.200000e+08	2.488926e+11	0.000000e+00	8.556700e-01	1.316018e+13	6.619477e+13	2.508393e+13	5.030174e+03	2.140763e+03	1.934638e+03	0	1.796510e-04
2.300000e+08	2.439922e+11	0.000000e+00	8.556700e-01	1.308009e+13	6.441571e+13	2.495091e+13	5.028850e+03	2.132948e+03	1.927576e+03	0	1.784641e-04
2.400000e+08	2.393094e+11	0.000000e+00	8.556700e-01	1.300347e+13	6.276342e+13	2.481887e+13	5.027535e+03	2.125566e+03	1.920905e+03	0	1.773150e-04
2.500000e+08	2.348288e+11	0.000000e+00	8.556700e-01	1.293007e+13	6.122538e+13	2.468780e+13	5.026228e+03	2.118583e+03	1.914594e+03	0	1.762014e-04
2.600000e+08	2.305361e+11	0.000000e+00	8.556700e-01	1.285966e+13	5.979063e+13	2.455769e+13	5.024928e+03	2.111970e+03	1.908618e+03	0	1.751211e-04
2.700000e+08	2.264183e+11	0.000000e+00	8.556700e-01	1.279203e+13	5.844952e+13	2.442852e+13	5.023635e+03	2.105699e+03	1.902951e+03	0	1.740722e-04
2.800000e+08	2.224637e+11	0.000000e+00	8.556700e-01	1.272700e+13	5.719353e+13	2.430030e+13	5.022349e+03	2.099746e+03	1.897570e+03	0	1.730528e-04
2.900000e+08	2.186614e+11	0.000000e+00	8.556700e-01	1.266440e+13	5.601509e+13	2.417302e+13	5.021069e+03	2.094087e+03	1.892457e+03	0	1.720612e-04
3.000000e+08	2.150016e+11	0.000000e+00	8.556700e-01	1.260407e+13	5.490748e+13	2.404666e+13	5.019796e+03	2.088703e+03	1.887591e+03	0	1.710959e-04
3.100000e+08	2.114751e+11	0.000000e+00	8.556700e-01	1.254586e+13	5.386472e+13	2.392123e+13	5.018529e+03	2.083576e+03	1.882957e+03	0	1.701553e-04
3.200000e+08	2.080737e+11	0.000000e+00	8.556700e-01	1.248964e+13	5.288144e+13	2.379671e+13	5.017267e+03	2.078687e+03	1.878539e+03	0	1.692380e-04
3.300000e+08	2.047895e+11	0.000000e+00	8.556700e-01	1.243530e+13	5.195284e+13	2.367309e+13	5.016011e+03	2.074022e+03	1.874323e+03	0	1.683429e-04
3.400000e+08	2.016156e+11	0.000000e+00	8.556700e-01	1.238271e+13	5.107458e+13	2.355037e+13	5.014761e+03	2.069566e+03	1.870296e+03	0	1.674687e-04
3.500000e+08	1.985453e+11	0.000000e+00	8.556700e-01	1.233177e+13	5.024278e+13	2.342854e+13	5.013516e+03	2.065305e+03	1.866446e+03	0	1.666142e-04
3.600000e+08	1.955726e+11	0.000000e+00	8.556700e-01	1.228239e+13	4.945392e+13	2.330759e+13	5.012276e+03	2.061229e+03	1.862762e+03	0	1.657785e-04
3.700000e+08	1.926918e+11	0.000000e+00	8.556700e-01	1.223447e+13	4.870480e+13	2.318752e+13	5.011041e+03	2.057325e+03	1.859234e+03	0	1.649605e-04
3.800000e+08	1.898977e+11	0.000000e+00	8.556700e-01	1.218794e+13	4.799254e+13	2.306832e+13	5.009811e+03	2.053583e+03	1.855853e+03	0	1.641593e-04
3.900000e+08	1.871855e+11	0.000000e+00	8.556700e-01	1.214271e+13	4.731449e+13	2.294998e+13	5.008586e+03	2.049994e+03	1.852609e+03	0	1.633740e-04
4.000000e+08	1.845506e+11	0.000000e+00	8.556700e-01	1.209871e+13	4.666828e+13	2.283250e+13	5.007365e+03	2.046549e+03	1.849496e+03	0	1.626038e-04
4.100000e+08	1.819889e+11	0.000000e+00	8.556700e-01	1.205589e+13	4.605169e+13	2.271586e+13	5.006148e+03	2.043239e+03	1.846505e+03	0	1.618480e-04
4.200000e+08	1.794965e+11	0.000000e+00	8.556700e-01	1.201417e+13	4.546275e+13	2.260006e+13	5.004936e+03	2.040057e+03	1.843629e+03	0	1.611057e-04
4.300000e+08	1.770696e+11	0.000000e+00	8.556700e-01	1.197350e+13	4.489961e+13	2.248510e+13	5.003728e+03	2.036996e+03	1.840863e+03	0	1.603763e-04
4.400000e+08	1.747050e+11	0.000000e+00	8.556700e-01	1.193382e+13	4.436058e+13	2.237096e+13	5.002524e+03	2.034049e+03	1.838199e+03	0	1.596592e-04
4.500000e+08	1.723994e+11	0.000000e+00	8.556700e-01	1.189508e+13	4.384414e+13	2.225765e+13	5.001324e+03	2.031209e+03	1.835633e+03	0	1.589538e-04
4.600000e+08	1.701497e+11	0.000000e+00	8.556700e-01	1.185724e+13	4.334884e+13	2.214515e+13	5.000128e+03	2.028472e+03	1.833159e+03	0	1.582593e-04
4.700000e+08	1.679533e+11	0.000000e+00	8.556700e-01	1.182024e+13	4.287339e+13	2.203345e+13	4.998936e+03	2.025831e+03	1.830773e+03	0	1.575754e-04
4.800000e+08	1.658075e+11	0.000000e+00	8.556700e-01	1.178406e+13	4.241657e+13	2.192255e+13	4.997748e+03	2.023282e+03	1.828469e+03	0	1.569015e-04
4.900000e+08	1.637099e+11	0.000000e+00	8.556700e-01	1.174865e+13	4.197726e+13	2.181245e+13	4.996563e+03	2.020819e+03	1.826244e+03	0	1.562370e-04
5.000000e+08	1.616581e+11	0.000000e+00	8.556700e-01	1.171397e+13	4.155443e+13	2.170314e+13	4.995381e+03	2.018439e+03	1.824093e+03	0	1.555815e-04
5.100000e+08	1.596500e+11	0.000000e+00	8.556700e-01	1.167998e+13	4.114711e+13	2.159461e+13	4.994204e+03	2.016137e+03	1.822013e+03	0	1.549347e-04
5.200000e+08	1.576835e+11	0.000000e+00	8.556700e-01	1.164667e+13	4.075443e+13	2.148685e+13	4.993029e+03	2.013910e+03	1.819999e+03	0	1.542959e-04
5.300000e+08	1.557567e+11	0.000000e+00	8.556700e-01	1.161399e+13	4.037554e+13	2.137986e+13	4.991858e+03	2.011753e+03	1.818050e+03	0	1.536648e-04
5.400000e+08	1.538679e+11	0.000000e+00	8.556700e-01	1.158191e+13	4.000969e+13	2.127363e+13	4.990690e+03	2.009663e+03	1.816162e+03	0	1.530412e-04
5.500000e+08	1.520152e+11	0.000000e+00	8.556700e-01	1.155042e+13	3.965615e+13	2.116816e+13	4.989526e+03	2.007637e+03	1.814331e+03	0	1.524244e-04
5.600000e+08	1.501971e+11	0.000000e+00	8.556700e-01	1.151948e+13	3.931427e+13	2.106344e+13	4.988364e+03	2.005672e+03	1.812555e+03	0	1.518143e-04
5.700000e+08	1.484122e+11	0.000000e+00	8.556700e-01	1.148907e+13	3.898341e+13	2.095946e+13	4.987206e+03	2.003765e+03	1.810831e+03	0	1.512105e-04
5.800000e+08	1.466588e+11	0.000000e+00	8.556700e-01	1.145917e+13	3.866301e+13	2.085622e+13	4.986051e+03	2.001913e+03	1.809158e+03	0	1.506127e-04
5.900000e+08	1.449358e+11	0.000000e+00	8.556700e-01	1.142975e+13	3.835250e+13	2.075371e+13	4.984899e+03	2.000114e+03	1.807532e+03	0	1.500206e-04
6.000000e+08	1.432418e+11	0.000000e+00	8.556700e-01	1.140080e+13	3.805140e+13	2.065193e+13	4.983749e+03	1.998365e+03	1.805951e+03	0	1.494338e-04
6.100000e+08	1.415755e+11	0.000000e+00	8.556700e-01	1.137229e+13	3.775922e+13	2.055086e+13	4.982603e+03	1.996663e+03	1.804414e+03	0	1.488521e-04
6.200000e+08	1.399360e+11	0.000000e+00	8.556700e-01	1.134421e+13	3.747552e+13	2.045051e+13	4.981460e+03	1.995008e+03	1.802917e+03	0	1.482753e-04
6.300000e+08	1.383220e+11	0.000000e+00	8.556700e-01	1.131655e+13	3.719987e+13	2.035087e+13	4.980319e+03	1.993396e+03	1.801461e+03	0	1.477030e-04
6.400000e+08	1.367326e+11	0.000000e+00	8.556700e-01	1.128927e+13	3.693190e+13	2.025193e+13	4.979181e+03	1.991826e+03	1.800042e+03	0	1.471351e-04
6.500000e+08	1.351668e+11	0.000000e+00	8.556700e-01	1.126238e+13	3.667123e+13	2.015369e+13	4.978046e+03	1.990296e+03	1.798659e+03	0	1.465713e-04
6.600000e+08	1.336236e+11	0.000000e+00	8.556700e-01	1.123585e+13	3.641751e+13	2.005614e+13	4.976913e+03	1.988804e+03	1.797310e+03	0	1.460114e-04
6.700000e+08	1.321022e+11	0.000000e+00	8.556700e-01	1.120967e+13	3.617042e+13	1.995928e+13	4.975784e+03	1.987348e+03	1.795995e+03	0	1.454551e-04
6.800000e+08	1.306017e+11	0.000000e+00	8.556700e-01	1.118382e+13	3.592965e+13	1.986310e+13	4.974657e+03	1.985927e+03	1.794711e+03	0	1.449023e-04
6.900000e+08	1.291214e+11	0.000000e+00	8.556700e-01	1.115830e+13	3.569492e+13	1.976759e+13	4.973532e+03	1.984540e+03	1.793457e+03	0	1.443527e-04
7.000000e+08	1.276605e+11	0.000000e+00	8.556700e-01	1.113310e+13	3.546594e+13	1.967275e+13	4.972410e+03	1.983185e+03	1.792233e+03	0	1.438063e-04
7.100000e+08	1.262183e+11	0.000000e+00	8.556700e-01	1.110819e+13	3.524248e+13	1.957857e+13	4.971291e+03	1.981860e+03	1.791036e+03	0	1.432627e-04
7.200000e+08	1.247941e+11	0.000000e+00	8.556700e-01	1.108357e+13	3.502428e+13	1.948506e+13	4.970174e+03	1.980565e+03	1.789865e+03	0	1.427218e-04
7.300000e+08	1.233873e+11	0.000000e+00	8.556700e-01	1.105924e+13	3.481111e+13	1.939219e+13	4.969059e+03	1.979298e+03	1.788720e+03	0	1.421835e-04
7.400000e+08	1.219972e+11	0.000000e+00	8.556700e-01	1.103517e+13	3.460277e+13	1.929998e+13	4.967947e+03	1.978058e+03	1.787600e+03	0	1.416475e-04
7.500000e+08	1.206233e+11	0.000000e+00	8.556700e-01	1.101136e+13	3.439903e+13	1.920840e+13	4.966838e+03	1.976844e+03	1.786503e+03	0	1.411138e-04
7.600000e+08	1.192651e+11	0.000000e+00	8.556700e-01	1.098781e+13	3.419972e+13	1.911747e+13	4.965730e+03	1.975655e+03	1.785428e+03	0	1.405821e-04
7.700000e+08	1.179219e+11	0.000000e+00	8.556700e-01	1.096450e+13	3.400465e+13	1.902717e+13	4.964625e+03	1.974490e+03	1.784375e+03	0	1.400523e-04
7.800000e+08	1.165933e+11	0.000000e+00	8.556700e-01	1.094142e+13	3.381365e+13	1.893749e+13	4.963523e+03	1.973348e+03	1.783343e+03	0	1.395244e-04
7.900000e+08	1.152787e+11	0.000000e+00	8.556700e-01	1.091858e+13	3.362655e+13	1.884844e+13	4.962423e+03	1.972228e+03	1.782331e+03	0	1.389980e-04
8.000000e+08	1.139778e+11	0.000000e+00	8.556700e-01	1.089595e+13	3.344319e+13	1.876001e+13	4.961325e+03	1.971129e+03	1.781338e+03	0	1.384732e-04
8.100000e+08	1.126901e+11	0.000000e+00	8.556700e-01	1.087353e+13	3.326343e+13	1.867219e+13	4.960229e+03	1.970051e+03	1.780363e+03	0	1.379497e-04
8.200000e+08	1.114152e+11	0.000000e+00	8.556700e-01	1.085133e+13	3.308714e+13	1.858498e+13	4.959136e+03	1.968992e+03	1.779406e+03	0	1.374275e-04
8.300000e+08	1.101527e+11	0.000000e+00	8.556700e-01	1.082932e+13	3.291416e+13	1.849837e+13	4.958045e+03	1.967952e+03	1.778467e+03	0	1.369065e-04
8.400000e+08	1.089021e+11	0.000000e+00	8.556700e-01	1.080751e+13	3.274439e+13	1.841235e+13	4.956956e+03	1.966930e+03	1.777543e+03	0	1.363864e-04
8.500000e+08	1.076632e+11	0.000000e+00	8.556700e-01	1.078588e+13	3.257770e+13	1.832694e+13	4.955869e+03	1.965926e+03	1.776636e+03	0	1.358672e-04
8.600000e+08	1.064356e+11	0.000000e+00	8.556700e-01	1.076444e+13	3.241397e+13	1.824211e+13	4.954785e+03	1.964938e+03	1.775743e+03	0	1.353488e-04
8.700000e+08	1.052189e+11	0.000000e+00	8.556700e-01	1.074317e+13	3.225310e+13	1.815786e+13	4.953702e+03	1.963967e+03	1.774866e+03	0	1.348311e-04
8.800000e+08	1.040128e+11	0.000000e+00	8.556700e-01	1.072208e+13	3.209498e+13	1.807419e+13	4.952622e+03	1.963012e+03	1.774002e+03	0	1.343140e-04
8.900000e+08	1.028170e+11	0.000000e+00	8.556700e-01	1.070116e+13	3.193952e+13	1.799110e+13	4.951544e+03	1.962071e+03	1.773152e+03	0	1.337973e-04
9.000000e+08	1.016313e+11	0.000000e+00	8.556700e-01	1.068039e+13	3.178662e+13	1.790858e+13	4.950468e+03	1.961145e+03	1.772315e+03	0	1.332810e-04
9.100000e+08	1.004553e+11	0.000000e+00	8.556700e-01	1.065979e+13	3.163620e+13	1.782663e+13	4.949394e+03	1.960233e+03	1.771491e+03	0	1.327649e-04
9.200000e+08	9.928885e+10	0.000000e+00	8.556700e-01	1.063934e+13	3.148816e+13	1.774523e+13	4.948322e+03	1.959335e+03	1.770679e+03	0	1.322490e-04
9.300000e+08	9.813157e+10	0.000000e+00	8.556700e-01	1.061904e+13	3.134243e+13	1.766440e+13	4.947252e+03	1.958449e+03	1.769879e+03	0	1.317332e-04
9.400000e+08	9.698327e+10	0.000000e+00	8.556700e-01	1.059888e+13	3.119893e+13	1.758411e+13	4.946184e+03	1.957577e+03	1.769090e+03	0	1.312173e-04
9.500000e+08	9.584372e+10	0.000000e+00	8.556700e-01	1.057887e+13	3.105758e+13	1.750437e+13	4.945119e+03	1.956716e+03	1.768313e+03	0	1.307014e-04
9.600000e+08	9.471267e+10	0.000000e+00	8.556700e-01	1.055900e+13	3.091832e+13	1.742518e+13	4.944055e+03	1.955867e+03	1.767545e+03	0	1.301852e-04
9.700000e+08	9.358993e+10	0.000000e+00	8.556700e-01	1.053926e+13	3.078108e+13	1.734653e+13	4.942993e+03	1.955030e+03	1.766789e+03	0	1.296687e-04
9.800000e+08	9.247527e+10	0.000000e+00	8.556700e-01	1.051965e+13	3.064579e+13	1.726841e+13	4.941933e+03	1.954203e+03	1.766042e+03	0	1.291519e-04
9.900000e+08	9.136851e+10	0.000000e+00	8.556700e-01	1.050018e+13	3.051240e+13	1.719082e+13	4.940876e+03	1.953387e+03	1.765304e+03	0	1.286346e-04
1.000000e+09	9.026944e+10	0.000000e+00	8.556700e-01	1.048083e+13	3.038083e+13	1.711376e+13	4.939820e+03	1.952582e+03	1.764576e+03	0	1.281167e-04
1.010000e+09	8.917788e+10	0.000000e+00	8.556700e-01	1.046160e+13	3.025105e+13	1.703722e+13	4.938766e+03	1.951786e+03	1.763857e+03	0	1.275982e-04
1.020000e+09	8.809367e+10	0.000000e+00	8.556700e-01	1.044249e+13	3.012299e+13	1.696120e+13	4.937714e+03	1.951000e+03	1.763147e+03	0	1.270790e-04
1.030000e+09	8.701662e+10	0.000000e+00	8.556700e-01	1.042349e+13	2.999660e+13	1.688570e+13	4.936664e+03	1.950224e+03	1.762445e+03	0	1.265590e-04
1.040000e+09	8.594657e+10	0.000000e+00	8.556700e-01	1.040462e+13	2.987184e+13	1.681070e+13	4.935616e+03	1.949456e+03	1.761751e+03	0	1.260381e-04
1.050000e+09	8.488337e+10	0.000000e+00	8.556700e-01	1.038585e+13	2.974865e+13	1.673621e+13	4.934569e+03	1.948697e+03	1.761066e+03	0	1.255162e-04
1.060000e+09	8.382686e+10	0.000000e+00	8.556700e-01	1.036719e+13	2.962699e+13	1.666223e+13	4.933525e+03	1.947947e+03	1.760387e+03	0	1.249933e-04
1.070000e+09	8.277691e+10	0.000000e+00	8.556700e-01	1.034864e+13	2.950683e+13	1.658874e+13	4.932483e+03	1.947204e+03	1.759717e+03	0	1.244692e-04
1.080000e+09	8.173337e+10	0.000000e+00	8.556700e-01	1.033020e+13	2.938810e+13	1.651575e+13	4.931442e+03	1.946470e+03	1.759053e+03	0	1.239440e-04
1.090000e+09	8.069610e+10	0.000000e+00	8.556700e-01	1.031186e+13	2.927079e+13	1.644324e+13	4.930403e+03	1.945744e+03	1.758397e+03	0	1.234174e-04
1.100000e+09	7.966498e+10	0.000000e+00	8.556700e-01	1.029362e+13	2.915484e+13	1.637123e+13	4.929366e+03	1.945025e+03	1.757747e+03	0	1.228895e-04
1.110000e+09	7.863988e+10	0.000000e+00	8.556700e-01	1.027548e+13	2.904022e+13	1.629969e+13	4.928331e+03	1.944313e+03	1.757104e+03	0	1.223601e-04
1.120000e+09	7.762068e+10	0.000000e+00	8.556700e-01	1.025743e+13	2.892690e+13	1.622864e+13	4.927298e+03	1.943608e+03	1.756467e+03	0	1.218292e-04
1.130000e+09	7.660727e+10	0.000000e+00	8.556700e-01	1.023948e+13	2.881485e+13	1.615806e+13	4.926267e+03	1.942910e+03	1.755836e+03	0	1.212967e-04
1.140000e+09	7.559954e+10	0.000000e+00	8.556700e-01	1.022162e+13	2.870402e+13	1.608796e+13	4.925237e+03	1.942219e+03	1.755212e+03	0	1.207625e-04
1.150000e+09	7.459737e+10	0.000000e+00	8.556700e-01	1.020386e+13	2.859440e+13	1.601832e+13	4.924209e+03	1.941535e+03	1.754593e+03	0	1.202265e-04
1.160000e+09	7.360067e+10	0.000000e+00	8.556700e-01	1.018618e+13	2.848594e+13	1.594914e+13	4.923183e+03	1.940856e+03	1.753980e+03	0	1.196886e-04
1.170000e+09	7.260932e+10	0.000000e+00	8.556700e-01	1.016860e+13	2.837862e+13	1.588043e+13	4.922159e+03	1.940184e+03	1.753372e+03	0	1.191488e-04
1.180000e+09	7.162325e+10	0.000000e+00	8.556700e-01	1.015110e+13	2.827242e+13	1.581218e+13	4.921136e+03	1.939518e+03	1.752770e+03	0	1.186070e-04
1.190000e+09	7.064235e+10	0.000000e+00	8.556700e-01	1.013368e+13	2.816730e+13	1.574437e+13	4.920116e+03	1.938857e+03	1.752173e+03	0	1.180630e-04
1.200000e+09	6.966654e+10	0.000000e+00	8.556700e-01	1.011635e+13	2.806324e+13	1.567702e+13	4.919097e+03	1.938203e+03	1.751582e+03	0	1.175169e-04
1.210000e+09	6.869572e+10	0.000000e+00	8.556700e-01	1.009910e+13	2.796022e+13	1.561012e+13	4.918079e+03	1.937553e+03	1.750995e+03	0	1.169685e-04
1.220000e+09	6.772982e+10	0.000000e+00	8.556700e-01	1.008193e+13	2.785821e+13	1.554366e+13	4.917064e+03	1.936909e+03	1.750413e+03	0	1.164177e-04
1.230000e+09	6.676874e+10	0.000000e+00	8.556700e-01	1.006484e+13	2.775719e+13	1.547763e+13	4.916050e+03	1.936271e+03	1.749836e+03	0	1.158644e-04
1.240000e+09	6.581243e+10	0.000000e+00	8.556700e-01	1.004783e+13	2.765714e+13	1.541205e+13	4.915038e+03	1.935637e+03	1.749263e+03	0	1.153086e-04
1.250000e+09	6.486079e+10	0.000000e+00	8.556700e-01	1.003090e+13	2.755803e+13	1.534689e+13	4.914028e+03	1.935008e+03	1.748695e+03	0	1.147501e-04
1.260000e+09	6.391375e+10	0.000000e+00	8.556700e-01	1.001405e+13	2.745985e+13	1.528217e+13	4.913019e+03	1.934384e+03	1.748131e+03	0	1.141888e-04
1.270000e+09	6.297125e+10	0.000000e+00	8.556700e-01	9.997265e+12	2.736258e+13	1.521787e+13	4.912012e+03	1.933765e+03	1.747572e+03	0	1.136248e-04
1.280000e+09	6.203322e+10	0.000000e+00	8.556700e-01	9.980557e+12	2.726619e+13	1.515400e+13	4.911007e+03	1.933151e+03	1.747016e+03	0	1.130578e-04
1.290000e+09	6.109958e+10	0.000000e+00	8.556700e-01	9.963922e+12	2.717066e+13	1.509055e+13	4.910003e+03	1.932541e+03	1.746465e+03	0	1.124877e-04
1.300000e+09	6.017028e+10	0.000000e+00	8.556700e-01	9.947360e+12	2.707599e+13	1.502751e+13	4.909001e+03	1.931935e+03	1.745918e+03	0	1.119145e-04
1.310000e+09	5.924526e+10	0.000000e+00	8.556700e-01	9.930867e+12	2.698216e+13	1.496488e+13	4.908001e+03	1.931334e+03	1.745374e+03	0	1.113380e-04
1.320000e+09	5.832444e+10	0.000000e+00	8.556700e-01	9.914445e+12	2.688913e+13	1.490267e+13	4.907002e+03	1.930737e+03	1.744834e+03	0	1.107582e-04
1.330000e+09	5.740779e+10	0.000000e+00	8.556700e-01	9.898092e+12	2.679691e+13	1.484086e+13	4.906005e+03	1.930143e+03	1.744298e+03	0	1.101749e-04
1.340000e+09	5.649522e+10	0.000000e+00	8.556700e-01	9.881806e+12	2.670548e+13	1.477946e+13	4.905010e+03	1.929554e+03	1.743766e+03	0	1.095880e-04
1.350000e+09	5.558670e+10	0.000000e+00	8.556700e-01	9.865588e+12	2.661481e+13	1.471846e+13	4.904016e+03	1.928969e+03	1.743237e+03	0	1.089973e-04
1.360000e+09	5.468218e+10	0.000000e+00	8.556700e-01	9.849435e+12	2.652490e+13	1.465785e+13	4.903024e+03	1.928388e+03	1.742712e+03	0	1.084029e-04
