#t		Qconv[W]	Ri[Rp]		R*[Rp]		Qc[W]		Qm[W]		Qr[W]		Tcmb[K]		Tl[K]		Tup[K]		RiFlag		Bs[T]
0.000000e+00	1.306930e+14	0.000000e+00	8.556702e-01	1.768829e+15	8.419480e+14	3.781114e+13	1.449337e+04	3.272810e+03	2.471114e+03	0	1.424561e-03
1.000000e+07	1.285561e+14	0.000000e+00	8.556702e-01	1.740311e+15	1.150466e+15	3.760164e+13	1.437181e+04	3.459531e+03	2.612097e+03	0	1.416754e-03
2.000000e+07	1.257182e+14	0.000000e+00	8.556702e-01	1.702582e+15	1.372207e+15	3.739370e+13	1.425220e+04	3.577006e+03	2.700795e+03	0	1.406252e-03
3.000000e+07	1.225133e+14	0.000000e+00	8.556702e-01	1.660037e+15	1.504398e+15	3.718732e+13	1.413515e+04	3.644481e+03	2.751742e+03	0	1.394199e-03
4.000000e+07	1.191632e+14	0.000000e+00	8.556702e-01	1.615593e+15	1.568545e+15	3.698248e+13	1.402100e+04	3.679486e+03	2.778173e+03	0	1.381373e-03
5.000000e+07	1.157988e+14	0.000000e+00	8.556702e-01	1.570971e+15	1.588307e+15	3.677917e+13	1.390988e+04	3.694673e+03	2.789639e+03	0	1.368248e-03
6.000000e+07	1.124916e+14	0.000000e+00	8.556702e-01	1.527112e+15	1.581518e+15	3.657737e+13	1.380180e+04	3.698176e+03	2.792284e+03	0	1.355097e-03
7.000000e+07	1.092785e+14	0.000000e+00	8.556702e-01	1.484503e+15	1.559744e+15	3.637708e+13	1.369672e+04	3.694932e+03	2.789835e+03	0	1.342070e-03
8.000000e+07	1.061770e+14	0.000000e+00	8.556702e-01	1.443368e+15	1.529974e+15	3.617828e+13	1.359454e+04	3.687853e+03	2.784490e+03	0	1.329251e-03
9.000000e+07	1.031934e+14	0.000000e+00	8.556702e-01	1.403795e+15	1.496277e+15	3.598095e+13	1.349517e+04	3.678636e+03	2.777531e+03	0	1.316682e-03
1.000000e+08	1.003284e+14	0.000000e+00	8.556702e-01	1.365790e+15	1.460977e+15	3.578509e+13	1.339850e+04	3.668268e+03	2.769702e+03	0	1.304382e-03
1.100000e+08	9.757949e+13	0.000000e+00	8.556702e-01	1.329320e+15	1.425383e+15	3.559068e+13	1.330443e+04	3.657321e+03	2.761437e+03	0	1.292359e-03
1.200000e+08	9.494259e+13	0.000000e+00	8.556702e-01	1.294332e+15	1.390216e+15	3.539771e+13	1.321285e+04	3.646129e+03	2.752987e+03	0	1.280611e-03
1.300000e+08	9.241292e+13	0.000000e+00	8.556702e-01	1.260762e+15	1.355868e+15	3.520618e+13	1.312367e+04	3.634887e+03	2.744499e+03	0	1.269135e-03
1.400000e+08	8.998545e+13	0.000000e+00	8.556702e-01	1.228544e+15	1.322536e+15	3.501606e+13	1.303677e+04	3.623708e+03	2.736058e+03	0	1.257924e-03
1.500000e+08	8.765515e+13	0.000000e+00	8.556702e-01	1.197610e+15	1.290309e+15	3.482734e+13	1.295209e+04	3.612657e+03	2.727714e+03	0	1.246970e-03
1.600000e+08	8.541710e+13	0.000000e+00	8.556702e-01	1.167897e+15	1.259214e+15	3.464002e+13	1.286952e+04	3.601770e+03	2.719493e+03	0	1.236266e-03
1.700000e+08	8.326661e+13	0.000000e+00	8.556702e-01	1.139343e+15	1.229245e+15	3.445408e+13	1.278898e+04	3.591066e+03	2.711412e+03	0	1.225803e-03
1.800000e+08	8.119922e+13	0.000000e+00	8.556702e-01	1.111888e+15	1.200374e+15	3.426952e+13	1.271040e+04	3.580556e+03	2.703476e+03	0	1.215573e-03
1.900000e+08	7.921070e+13	0.000000e+00	8.556702e-01	1.085476e+15	1.172564e+15	3.408631e+13	1.263370e+04	3.570241e+03	2.695688e+03	0	1.205568e-03
2.000000e+08	7.729708e+13	0.000000e+00	8.556702e-01	1.060055e+15	1.145772e+15	3.390445e+13	1.255880e+04	3.560123e+03	2.688048e+03	0	1.195780e-03
2.100000e+08	7.545463e+13	0.000000e+00	8.556702e-01	1.035576e+15	1.119956e+15	3.372392e+13	1.248565e+04	3.550197e+03	2.680554e+03	0	1.186203e-03
2.200000e+08	7.367981e+13	0.000000e+00	8.556702e-01	1.011992e+15	1.095072e+15	3.354473e+13	1.241418e+04	3.540461e+03	2.673203e+03	0	1.176828e-03
2.300000e+08	7.196931e+13	0.000000e+00	8.556702e-01	9.892600e+14	1.071077e+15	3.336684e+13	1.234432e+04	3.530910e+03	2.665991e+03	0	1.167650e-03
2.400000e+08	7.032003e+13	0.000000e+00	8.556702e-01	9.673377e+14	1.047929e+15	3.319027e+13	1.227603e+04	3.521539e+03	2.658916e+03	0	1.158662e-03
2.500000e+08	6.872904e+13	0.000000e+00	8.556702e-01	9.461871e+14	1.025590e+15	3.301498e+13	1.220923e+04	3.512343e+03	2.651973e+03	0	1.149857e-03
2.600000e+08	6.719358e+13	0.000000e+00	8.556702e-01	9.257716e+14	1.004022e+15	3.284098e+13	1.214389e+04	3.503318e+03	2.645158e+03	0	1.141229e-03
2.700000e+08	6.571105e+13	0.000000e+00	8.556702e-01	9.060570e+14	9.831893e+14	3.266825e+13	1.207995e+04	3.494457e+03	2.638468e+03	0	1.132773e-03
2.800000e+08	6.427901e+13	0.000000e+00	8.556702e-01	8.870108e+14	9.630587e+14	3.249678e+13	1.201736e+04	3.485757e+03	2.631899e+03	0	1.124484e-03
2.900000e+08	6.289515e+13	0.000000e+00	8.556702e-01	8.686028e+14	9.435981e+14	3.232657e+13	1.195608e+04	3.477212e+03	2.625447e+03	0	1.116356e-03
3.000000e+08	6.155731e+13	0.000000e+00	8.556702e-01	8.508040e+14	9.247777e+14	3.215759e+13	1.189606e+04	3.468819e+03	2.619109e+03	0	1.108384e-03
3.100000e+08	6.026341e+13	0.000000e+00	8.556702e-01	8.335874e+14	9.065689e+14	3.198985e+13	1.183726e+04	3.460572e+03	2.612883e+03	0	1.100563e-03
3.200000e+08	5.901154e+13	0.000000e+00	8.556702e-01	8.169274e+14	8.889449e+14	3.182332e+13	1.177965e+04	3.452467e+03	2.606764e+03	0	1.092889e-03
3.300000e+08	5.779984e+13	0.000000e+00	8.556702e-01	8.007996e+14	8.718802e+14	3.165801e+13	1.172318e+04	3.444501e+03	2.600749e+03	0	1.085357e-03
3.400000e+08	5.662660e+13	0.000000e+00	8.556702e-01	7.851812e+14	8.553508e+14	3.149390e+13	1.166782e+04	3.436670e+03	2.594836e+03	0	1.077963e-03
3.500000e+08	5.549016e+13	0.000000e+00	8.556702e-01	7.700504e+14	8.393339e+14	3.133097e+13	1.161353e+04	3.428969e+03	2.589021e+03	0	1.070703e-03
3.600000e+08	5.438897e+13	0.000000e+00	8.556702e-01	7.553868e+14	8.238079e+14	3.116923e+13	1.156029e+04	3.421395e+03	2.583303e+03	0	1.063573e-03
3.700000e+08	5.332157e+13	0.000000e+00	8.556702e-01	7.411709e+14	8.087524e+14	3.100866e+13	1.150805e+04	3.413945e+03	2.577678e+03	0	1.056569e-03
3.800000e+08	5.228655e+13	0.000000e+00	8.556702e-01	7.273841e+14	7.941481e+14	3.084926e+13	1.145679e+04	3.406615e+03	2.572143e+03	0	1.049688e-03
3.900000e+08	5.128260e+13	0.000000e+00	8.556702e-01	7.140091e+14	7.799765e+14	3.069100e+13	1.140647e+04	3.399402e+03	2.566697e+03	0	1.042926e-03
4.000000e+08	5.030845e+13	0.000000e+00	8.556702e-01	7.010291e+14	7.662202e+14	3.053389e+13	1.135708e+04	3.392303e+03	2.561337e+03	0	1.036280e-03
4.100000e+08	4.936291e+13	0.000000e+00	8.556702e-01	6.884285e+14	7.528626e+14	3.037791e+13	1.130858e+04	3.385314e+03	2.556060e+03	0	1.029747e-03
4.200000e+08	4.844485e+13	0.000000e+00	8.556702e-01	6.761922e+14	7.398879e+14	3.022305e+13	1.126095e+04	3.378434e+03	2.550865e+03	0	1.023323e-03
4.300000e+08	4.755320e+13	0.000000e+00	8.556702e-01	6.643059e+14	7.272813e+14	3.006931e+13	1.121415e+04	3.371659e+03	2.545750e+03	0	1.017006e-03
4.400000e+08	4.668692e+13	0.000000e+00	8.556702e-01	6.527561e+14	7.150284e+14	2.991668e+13	1.116818e+04	3.364986e+03	2.540711e+03	0	1.010792e-03
4.500000e+08	4.584504e+13	0.000000e+00	8.556702e-01	6.415299e+14	7.031157e+14	2.976514e+13	1.112300e+04	3.358413e+03	2.535748e+03	0	1.004680e-03
4.600000e+08	4.502664e+13	0.000000e+00	8.556702e-01	6.306150e+14	6.915304e+14	2.961469e+13	1.107860e+04	3.351937e+03	2.530859e+03	0	9.986656e-04
4.700000e+08	4.423082e+13	0.000000e+00	8.556702e-01	6.199998e+14	6.802601e+14	2.946532e+13	1.103494e+04	3.345556e+03	2.526041e+03	0	9.927471e-04
4.800000e+08	4.345676e+13	0.000000e+00	8.556702e-01	6.096730e+14	6.692932e+14	2.931702e+13	1.099202e+04	3.339268e+03	2.521293e+03	0	9.869217e-04
4.900000e+08	4.270363e+13	0.000000e+00	8.556702e-01	5.996241e+14	6.586184e+14	2.916978e+13	1.094981e+04	3.333070e+03	2.516613e+03	0	9.811872e-04
5.000000e+08	4.197068e+13	0.000000e+00	8.556702e-01	5.898428e+14	6.482251e+14	2.902360e+13	1.090829e+04	3.326960e+03	2.512000e+03	0	9.755412e-04
5.100000e+08	4.125718e+13	0.000000e+00	8.556702e-01	5.803195e+14	6.381033e+14	2.887846e+13	1.086745e+04	3.320936e+03	2.507452e+03	0	9.699815e-04
5.200000e+08	4.056243e+13	0.000000e+00	8.556702e-01	5.710451e+14	6.282430e+14	2.873435e+13	1.082726e+04	3.314996e+03	2.502967e+03	0	9.645060e-04
5.300000e+08	3.988575e+13	0.000000e+00	8.556702e-01	5.620105e+14	6.186352e+14	2.859128e+13	1.078771e+04	3.309138e+03	2.498544e+03	0	9.591125e-04
5.400000e+08	3.922652e+13	0.000000e+00	8.556702e-01	5.532075e+14	6.092710e+14	2.844922e+13	1.074878e+04	3.303360e+03	2.494181e+03	0	9.537990e-04
5.500000e+08	3.858413e+13	0.000000e+00	8.556702e-01	5.446279e+14	6.001418e+14	2.830817e+13	1.071046e+04	3.297660e+03	2.489877e+03	0	9.485637e-04
5.600000e+08	3.795798e+13	0.000000e+00	8.556702e-01	5.362641e+14	5.912397e+14	2.816812e+13	1.067273e+04	3.292037e+03	2.485632e+03	0	9.434046e-04
5.700000e+08	3.734753e+13	0.000000e+00	8.556702e-01	5.281086e+14	5.825568e+14	2.802907e+13	1.063558e+04	3.286488e+03	2.481442e+03	0	9.383199e-04
5.800000e+08	3.675224e+13	0.000000e+00	8.556702e-01	5.201544e+14	5.740857e+14	2.789101e+13	1.059899e+04	3.281012e+03	2.477308e+03	0	9.333078e-04
5.900000e+08	3.617161e+13	0.000000e+00	8.556702e-01	5.123947e+14	5.658194e+14	2.775393e+13	1.056295e+04	3.275608e+03	2.473227e+03	0	9.283667e-04
6.000000e+08	3.560513e+13	0.000000e+00	8.556702e-01	5.048231e+14	5.577511e+14	2.761781e+13	1.052744e+04	3.270274e+03	2.469199e+03	0	9.234948e-04
6.100000e+08	3.505235e+13	0.000000e+00	8.556702e-01	4.974334e+14	5.498742e+14	2.748266e+13	1.049246e+04	3.265007e+03	2.465223e+03	0	9.186907e-04
6.200000e+08	3.451281e+13	0.000000e+00	8.556702e-01	4.902195e+14	5.421825e+14	2.734846e+13	1.045798e+04	3.259808e+03	2.461297e+03	0	9.139527e-04
6.300000e+08	3.398608e+13	0.000000e+00	8.556702e-01	4.831759e+14	5.346700e+14	2.721521e+13	1.042401e+04	3.254674e+03	2.457421e+03	0	9.092793e-04
6.400000e+08	3.347176e+13	0.000000e+00	8.556702e-01	4.762970e+14	5.273310e+14	2.708290e+13	1.039051e+04	3.249603e+03	2.453592e+03	0	9.046692e-04
6.500000e+08	3.296944e+13	0.000000e+00	8.556702e-01	4.695775e+14	5.201599e+14	2.695152e+13	1.035750e+04	3.244596e+03	2.449811e+03	0	9.001208e-04
6.600000e+08	3.247874e+13	0.000000e+00	8.556702e-01	4.630125e+14	5.131515e+14	2.682107e+13	1.032495e+04	3.239649e+03	2.446077e+03	0	8.956328e-04
6.700000e+08	3.199930e+13	0.000000e+00	8.556702e-01	4.565971e+14	5.063007e+14	2.669154e+13	1.029285e+04	3.234763e+03	2.442387e+03	0	8.912039e-04
6.800000e+08	3.153076e+13	0.000000e+00	8.556702e-01	4.503266e+14	4.996026e+14	2.656291e+13	1.026119e+04	3.229935e+03	2.438742e+03	0	8.868328e-04
6.900000e+08	3.107280e+13	0.000000e+00	8.556702e-01	4.441966e+14	4.930525e+14	2.643519e+13	1.022997e+04	3.225165e+03	2.435140e+03	0	8.825183e-04
7.000000e+08	3.062508e+13	0.000000e+00	8.556702e-01	4.382028e+14	4.866460e+14	2.630836e+13	1.019917e+04	3.220451e+03	2.431581e+03	0	8.782591e-04
7.100000e+08	3.018729e+13	0.000000e+00	8.556702e-01	4.323410e+14	4.803786e+14	2.618242e+13	1.016878e+04	3.215793e+03	2.428064e+03	0	8.740541e-04
7.200000e+08	2.975914e+13	0.000000e+00	8.556702e-01	4.266073e+14	4.742462e+14	2.605736e+13	1.013880e+04	3.211188e+03	2.424587e+03	0	8.699021e-04
7.300000e+08	2.934033e+13	0.000000e+00	8.556702e-01	4.209978e+14	4.682448e+14	2.593317e+13	1.010922e+04	3.206637e+03	2.421151e+03	0	8.658020e-04
7.400000e+08	2.893059e+13	0.000000e+00	8.556702e-01	4.155089e+14	4.623705e+14	2.580985e+13	1.008002e+04	3.202137e+03	2.417754e+03	0	8.617528e-04
7.500000e+08	2.852965e+13	0.000000e+00	8.556702e-01	4.101370e+14	4.566196e+14	2.568739e+13	1.005120e+04	3.197689e+03	2.414395e+03	0	8.577533e-04
7.600000e+08	2.813725e+13	0.000000e+00	8.556702e-01	4.048788e+14	4.509886e+14	2.556578e+13	1.002275e+04	3.193291e+03	2.411074e+03	0	8.538026e-04
7.700000e+08	2.775315e+13	0.000000e+00	8.556702e-01	3.997308e+14	4.454739e+14	2.544502e+13	9.994667e+03	3.188941e+03	2.407790e+03	0	8.498997e-04
7.800000e+08	2.737710e+13	0.000000e+00	8.556702e-01	3.946900e+14	4.400723e+14	2.532510e+13	9.966938e+03	3.184640e+03	2.404542e+03	0	8.460436e-04
7.900000e+08	2.700888e+13	0.000000e+00	8.556702e-01	3.897534e+14	4.347806e+14	2.520601e+13	9.939557e+03	3.180386e+03	2.401330e+03	0	8.422334e-04
8.000000e+08	2.664827e+13	0.000000e+00	8.556702e-01	3.849179e+14	4.295956e+14	2.508775e+13	9.912518e+03	3.176178e+03	2.398153e+03	0	8.384682e-04
8.100000e+08	2.629504e+13	0.000000e+00	8.556702e-01	3.801807e+14	4.245144e+14	2.497031e+13	9.885813e+03	3.172016e+03	2.395011e+03	0	8.347471e-04
8.200000e+08	2.594900e+13	0.000000e+00	8.556702e-01	3.755391e+14	4.195342e+14	2.485368e+13	9.859435e+03	3.167898e+03	2.391902e+03	0	8.310691e-04
8.300000e+08	2.560994e+13	0.000000e+00	8.556702e-01	3.709905e+14	4.146520e+14	2.473786e+13	9.833378e+03	3.163824e+03	2.388826e+03	0	8.274336e-04
8.400000e+08	2.527768e+13	0.000000e+00	8.556702e-01	3.665323e+14	4.098654e+14	2.462283e+13	9.807635e+03	3.159793e+03	2.385782e+03	0	8.238396e-04
8.500000e+08	2.495202e+13	0.000000e+00	8.556702e-01	3.621620e+14	4.051716e+14	2.450860e+13	9.782201e+03	3.155805e+03	2.382770e+03	0	8.202864e-04
8.600000e+08	2.463279e+13	0.000000e+00	8.556702e-01	3.578772e+14	4.005682e+14	2.439516e+13	9.757068e+03	3.151857e+03	2.379790e+03	0	8.167732e-04
8.700000e+08	2.431982e+13	0.000000e+00	8.556702e-01	3.536758e+14	3.960528e+14	2.428250e+13	9.732232e+03	3.147950e+03	2.376840e+03	0	8.132993e-04
8.800000e+08	2.401293e+13	0.000000e+00	8.556702e-01	3.495553e+14	3.916230e+14	2.417061e+13	9.707686e+03	3.144084e+03	2.373921e+03	0	8.098638e-04
8.900000e+08	2.371197e+13	0.000000e+00	8.556702e-01	3.455138e+14	3.872766e+14	2.405949e+13	9.683426e+03	3.140256e+03	2.371031e+03	0	8.064661e-04
9.000000e+08	2.341677e+13	0.000000e+00	8.556702e-01	3.415491e+14	3.830114e+14	2.394914e+13	9.659444e+03	3.136467e+03	2.368170e+03	0	8.031056e-04
9.100000e+08	2.312720e+13	0.000000e+00	8.556702e-01	3.376593e+14	3.788253e+14	2.383954e+13	9.635737e+03	3.132716e+03	2.365338e+03	0	7.997814e-04
9.200000e+08	2.284310e+13	0.000000e+00	8.556702e-01	3.338423e+14	3.747163e+14	2.373069e+13	9.612299e+03	3.129003e+03	2.362534e+03	0	7.964930e-04
9.300000e+08	2.256433e+13	0.000000e+00	8.556702e-01	3.300963e+14	3.706824e+14	2.362259e+13	9.589125e+03	3.125326e+03	2.359757e+03	0	7.932396e-04
9.400000e+08	2.229075e+13	0.000000e+00	8.556702e-01	3.264196e+14	3.667217e+14	2.351522e+13	9.566210e+03	3.121685e+03	2.357008e+03	0	7.900208e-04
9.500000e+08	2.202224e+13	0.000000e+00	8.556702e-01	3.228103e+14	3.628324e+14	2.340859e+13	9.543550e+03	3.118079e+03	2.354286e+03	0	7.868358e-04
9.600000e+08	2.175866e+13	0.000000e+00	8.556702e-01	3.192667e+14	3.590126e+14	2.330269e+13	9.521139e+03	3.114508e+03	2.351589e+03	0	7.836840e-04
9.700000e+08	2.149989e+13	0.000000e+00	8.556702e-01	3.157872e+14	3.552607e+14	2.319750e+13	9.498973e+03	3.110971e+03	2.348919e+03	0	7.805649e-04
9.800000e+08	2.124581e+13	0.000000e+00	8.556702e-01	3.123703e+14	3.515750e+14	2.309303e+13	9.477048e+03	3.107468e+03	2.346274e+03	0	7.774779e-04
9.900000e+08	2.099631e+13	0.000000e+00	8.556702e-01	3.090143e+14	3.479538e+14	2.298928e+13	9.455360e+03	3.103998e+03	2.343654e+03	0	7.744224e-04
1.000000e+09	2.075127e+13	0.000000e+00	8.556702e-01	3.057177e+14	3.443956e+14	2.288622e+13	9.433903e+03	3.100561e+03	2.341059e+03	0	7.713979e-04
1.010000e+09	2.051058e+13	0.000000e+00	8.556702e-01	3.024792e+14	3.408988e+14	2.278387e+13	9.412675e+03	3.097155e+03	2.338487e+03	0	7.684039e-04
1.020000e+09	2.027413e+13	0.000000e+00	8.556702e-01	2.992974e+14	3.374620e+14	2.268221e+13	9.391671e+03	3.093781e+03	2.335940e+03	0	7.654398e-04
1.030000e+09	2.004183e+13	0.000000e+00	8.556702e-01	2.961707e+14	3.340838e+14	2.258123e+13	9.370887e+03	3.090438e+03	2.333416e+03	0	7.625051e-04
1.040000e+09	1.981358e+13	0.000000e+00	8.556702e-01	2.930980e+14	3.307627e+14	2.248094e+13	9.350319e+03	3.087126e+03	2.330915e+03	0	7.595994e-04
1.050000e+09	1.958928e+13	0.000000e+00	8.556702e-01	2.900780e+14	3.274975e+14	2.238133e+13	9.329964e+03	3.083843e+03	2.328436e+03	0	7.567221e-04
1.060000e+09	1.936883e+13	0.000000e+00	8.556702e-01	2.871094e+14	3.242868e+14	2.228239e+13	9.309819e+03	3.080590e+03	2.325980e+03	0	7.538728e-04
1.070000e+09	1.915214e+13	0.000000e+00	8.556702e-01	2.841910e+14	3.211293e+14	2.218411e+13	9.289878e+03	3.077367e+03	2.323546e+03	0	7.510509e-04
1.080000e+09	1.893913e+13	0.000000e+00	8.556702e-01	2.813216e+14	3.180238e+14	2.208650e+13	9.270140e+03	3.074172e+03	2.321134e+03	0	7.482562e-04
1.090000e+09	1.872972e+13	0.000000e+00	8.556702e-01	2.785002e+14	3.149691e+14	2.198954e+13	9.250600e+03	3.071005e+03	2.318743e+03	0	7.454880e-04
1.100000e+09	1.852381e+13	0.000000e+00	8.556702e-01	2.757255e+14	3.119642e+14	2.189323e+13	9.231256e+03	3.067865e+03	2.316372e+03	0	7.427461e-04
1.110000e+09	1.832133e+13	0.000000e+00	8.556702e-01	2.729966e+14	3.090077e+14	2.179757e+13	9.212104e+03	3.064754e+03	2.314023e+03	0	7.400299e-04
1.120000e+09	1.812220e+13	0.000000e+00	8.556702e-01	2.703124e+14	3.060987e+14	2.170255e+13	9.193141e+03	3.061669e+03	2.311693e+03	0	7.373390e-04
1.130000e+09	1.792634e+13	0.000000e+00	8.556702e-01	2.676719e+14	3.032361e+14	2.160817e+13	9.174363e+03	3.058610e+03	2.309384e+03	0	7.346731e-04
1.140000e+09	1.773368e+13	0.000000e+00	8.556702e-01	2.650741e+14	3.004189e+14	2.151442e+13	9.155769e+03	3.055578e+03	2.307095e+03	0	7.320317e-04
1.150000e+09	1.754415e+13	0.000000e+00	8.556702e-01	2.625180e+14	2.976460e+14	2.142129e+13	9.137354e+03	3.052571e+03	2.304825e+03	0	7.294145e-04
1.160000e+09	1.735768e+13	0.000000e+00	8.556702e-01	2.600028e+14	2.949165e+14	2.132878e+13	9.119117e+03	3.049590e+03	2.302574e+03	0	7.268211e-04
1.170000e+09	1.717420e+13	0.000000e+00	8.556702e-01	2.575275e+14	2.922294e+14	2.123689e+13	9.101053e+03	3.046634e+03	2.300342e+03	0	7.242511e-04
1.180000e+09	1.699365e+13	0.000000e+00	8.556702e-01	2.550913e+14	2.895839e+14	2.114562e+13	9.083162e+03	3.043702e+03	2.298128e+03	0	7.217041e-04
1.190000e+09	1.681596e+13	0.000000e+00	8.556702e-01	2.526933e+14	2.869790e+14	2.105494e+13	9.065438e+03	3.040795e+03	2.295933e+03	0	7.191798e-04
1.200000e+09	1.664107e+13	0.000000e+00	8.556702e-01	2.503326e+14	2.844138e+14	2.096487e+13	9.047881e+03	3.037912e+03	2.293756e+03	0	7.166779e-04
1.210000e+09	1.646891e+13	0.000000e+00	8.556702e-01	2.480086e+14	2.818875e+14	2.087540e+13	9.030488e+03	3.035052e+03	2.291597e+03	0	7.141979e-04
1.220000e+09	1.629944e+13	0.000000e+00	8.556702e-01	2.457204e+14	2.793993e+14	2.078652e+13	9.013255e+03	3.032215e+03	2.289455e+03	0	7.117397e-04
1.230000e+09	1.613259e+13	0.000000e+00	8.556702e-01	2.434672e+14	2.769484e+14	2.069823e+13	8.996181e+03	3.029402e+03	2.287330e+03	0	7.093028e-04
1.240000e+09	1.596831e+13	0.000000e+00	8.556702e-01	2.412482e+14	2.745340e+14	2.061052e+13	8.979263e+03	3.026610e+03	2.285223e+03	0	7.068869e-04
1.250000e+09	1.580654e+13	0.000000e+00	8.556702e-01	2.390629e+14	2.721554e+14	2.052339e+13	8.962499e+03	3.023842e+03	2.283132e+03	0	7.044917e-04
1.260000e+09	1.564723e+13	0.000000e+00	8.556702e-01	2.369105e+14	2.698117e+14	2.043684e+13	8.945886e+03	3.021095e+03	2.281058e+03	0	7.021169e-04
1.270000e+09	1.549033e+13	0.000000e+00	8.556702e-01	2.347902e+14	2.675024e+14	2.035086e+13	8.929423e+03	3.018370e+03	2.279001e+03	0	6.997622e-04
1.280000e+09	1.533579e+13	0.000000e+00	8.556702e-01	2.327015e+14	2.652266e+14	2.026544e+13	8.913106e+03	3.015666e+03	2.276959e+03	0	6.974274e-04
1.290000e+09	1.518356e+13	0.000000e+00	8.556702e-01	2.306436e+14	2.629837e+14	2.018058e+13	8.896934e+03	3.012983e+03	2.274934e+03	0	6.951120e-04
1.300000e+09	1.503359e+13	0.000000e+00	8.556702e-01	2.286160e+14	2.607731e+14	2.009628e+13	8.880905e+03	3.010321e+03	2.272924e+03	0	6.928159e-04
1.310000e+09	1.488584e+13	0.000000e+00	8.556702e-01	2.266181e+14	2.585940e+14	2.001253e+13	8.865016e+03	3.007679e+03	2.270929e+03	0	6.905388e-04
1.320000e+09	1.474026e+13	0.000000e+00	8.556702e-01	2.246491e+14	2.564459e+14	1.992933e+13	8.849266e+03	3.005058e+03	2.268950e+03	0	6.882803e-04
1.330000e+09	1.459681e+13	0.000000e+00	8.556702e-01	2.227087e+14	2.543282e+14	1.984668e+13	8.833652e+03	3.002457e+03	2.266986e+03	0	6.860403e-04
1.340000e+09	1.445545e+13	0.000000e+00	8.556702e-01	2.207961e+14	2.522402e+14	1.976456e+13	8.818172e+03	2.999875e+03	2.265037e+03	0	6.838184e-04
1.350000e+09	1.431612e+13	0.000000e+00	8.556702e-01	2.189109e+14	2.501814e+14	1.968298e+13	8.802825e+03	2.997313e+03	2.263102e+03	0	6.816144e-04
1.360000e+09	1.417881e+13	0.000000e+00	8.556702e-01	2.170524e+14	2.481512e+14	1.960194e+13	8.787609e+03	2.994770e+03	2.261182e+03	0	6.794281e-04
