#t		Qconv[W]	Ri[Rp]		R*[Rp]		Qc[W]		Qm[W]		Qr[W]		Tcmb[K]		Tl[K]		Tup[K]		RiFlag		Bs[T]
0.000000e+00	6.063605e+14	0.000000e+00	8.556701e-01	6.842325e+15	1.349015e+15	4.948239e+13	2.194528e+04	3.670237e+03	2.565600e+03	0	2.335789e-03
1.000000e+07	5.908355e+14	0.000000e+00	8.556701e-01	6.668581e+15	3.869625e+15	4.920822e+13	2.161454e+04	4.444808e+03	3.107047e+03	0	2.315681e-03
2.000000e+07	5.673698e+14	0.000000e+00	8.556701e-01	6.407079e+15	5.492377e+15	4.893610e+13	2.129202e+04	4.785105e+03	3.344923e+03	0	2.284610e-03
3.000000e+07	5.425913e+14	0.000000e+00	8.556701e-01	6.131138e+15	6.016423e+15	4.866602e+13	2.098197e+04	4.893299e+03	3.420555e+03	0	2.250855e-03
4.000000e+07	5.186023e+14	0.000000e+00	8.556701e-01	5.864010e+15	6.031698e+15	4.839795e+13	2.068510e+04	4.911416e+03	3.433219e+03	0	2.217183e-03
5.000000e+07	4.959111e+14	0.000000e+00	8.556701e-01	5.611313e+15	5.869371e+15	4.813188e+13	2.040102e+04	4.898084e+03	3.423899e+03	0	2.184362e-03
6.000000e+07	4.745896e+14	0.000000e+00	8.556701e-01	5.373837e+15	5.655695e+15	4.786780e+13	2.012904e+04	4.874346e+03	3.407306e+03	0	2.152597e-03
7.000000e+07	4.545856e+14	0.000000e+00	8.556701e-01	5.151002e+15	5.433999e+15	4.760568e+13	1.986844e+04	4.847530e+03	3.388560e+03	0	2.121918e-03
8.000000e+07	4.358135e+14	0.000000e+00	8.556701e-01	4.941855e+15	5.218469e+15	4.734551e+13	1.961853e+04	4.820187e+03	3.369447e+03	0	2.092298e-03
9.000000e+07	4.181824e+14	0.000000e+00	8.556701e-01	4.745389e+15	5.013359e+15	4.708727e+13	1.937866e+04	4.793205e+03	3.350586e+03	0	2.063694e-03
1.000000e+08	4.016053e+14	0.000000e+00	8.556701e-01	4.560638e+15	4.819545e+15	4.683095e+13	1.914822e+04	4.766884e+03	3.332187e+03	0	2.036056e-03
1.100000e+08	3.860018e+14	0.000000e+00	8.556701e-01	4.386708e+15	4.636772e+15	4.657654e+13	1.892667e+04	4.741311e+03	3.314311e+03	0	2.009338e-03
1.200000e+08	3.712982e+14	0.000000e+00	8.556701e-01	4.222782e+15	4.464426e+15	4.632401e+13	1.871347e+04	4.716495e+03	3.296964e+03	0	1.983494e-03
1.300000e+08	3.574272e+14	0.000000e+00	8.556701e-01	4.068112e+15	4.301812e+15	4.607335e+13	1.850816e+04	4.692417e+03	3.280133e+03	0	1.958480e-03
1.400000e+08	3.443278e+14	0.000000e+00	8.556701e-01	3.922021e+15	4.148242e+15	4.582454e+13	1.831030e+04	4.669050e+03	3.263798e+03	0	1.934256e-03
1.500000e+08	3.319442e+14	0.000000e+00	8.556701e-01	3.783889e+15	4.003072e+15	4.557758e+13	1.811947e+04	4.646361e+03	3.247938e+03	0	1.910784e-03
1.600000e+08	3.202253e+14	0.000000e+00	8.556701e-01	3.653149e+15	3.865705e+15	4.533244e+13	1.793530e+04	4.624322e+03	3.232532e+03	0	1.888028e-03
1.700000e+08	3.091248e+14	0.000000e+00	8.556701e-01	3.529287e+15	3.735593e+15	4.508910e+13	1.775744e+04	4.602903e+03	3.217559e+03	0	1.865955e-03
1.800000e+08	2.986001e+14	0.000000e+00	8.556701e-01	3.411829e+15	3.612233e+15	4.484756e+13	1.758554e+04	4.582075e+03	3.203000e+03	0	1.844534e-03
1.900000e+08	2.886120e+14	0.000000e+00	8.556701e-01	3.300341e+15	3.495167e+15	4.460781e+13	1.741932e+04	4.561813e+03	3.188837e+03	0	1.823734e-03
2.000000e+08	2.791249e+14	0.000000e+00	8.556701e-01	3.194426e+15	3.383972e+15	4.436981e+13	1.725848e+04	4.542093e+03	3.175051e+03	0	1.803528e-03
2.100000e+08	2.701059e+14	0.000000e+00	8.556701e-01	3.093720e+15	3.278259e+15	4.413356e+13	1.710275e+04	4.522890e+03	3.161628e+03	0	1.783890e-03
2.200000e+08	2.615246e+14	0.000000e+00	8.556701e-01	2.997885e+15	3.177674e+15	4.389905e+13	1.695189e+04	4.504183e+03	3.148552e+03	0	1.764795e-03
2.300000e+08	2.533533e+14	0.000000e+00	8.556701e-01	2.906612e+15	3.081888e+15	4.366627e+13	1.680567e+04	4.485952e+03	3.135807e+03	0	1.746220e-03
2.400000e+08	2.455663e+14	0.000000e+00	8.556701e-01	2.819615e+15	2.990598e+15	4.343518e+13	1.666386e+04	4.468176e+03	3.123382e+03	0	1.728142e-03
2.500000e+08	2.381397e+14	0.000000e+00	8.556701e-01	2.736631e+15	2.903527e+15	4.320579e+13	1.652625e+04	4.450838e+03	3.111262e+03	0	1.710543e-03
2.600000e+08	2.310516e+14	0.000000e+00	8.556701e-01	2.657416e+15	2.820415e+15	4.297808e+13	1.639267e+04	4.433920e+03	3.099435e+03	0	1.693400e-03
2.700000e+08	2.242818e+14	0.000000e+00	8.556701e-01	2.581744e+15	2.741025e+15	4.275204e+13	1.626291e+04	4.417405e+03	3.087891e+03	0	1.676697e-03
2.800000e+08	2.178115e+14	0.000000e+00	8.556701e-01	2.509406e+15	2.665136e+15	4.252764e+13	1.613683e+04	4.401278e+03	3.076618e+03	0	1.660416e-03
2.900000e+08	2.116230e+14	0.000000e+00	8.556701e-01	2.440208e+15	2.592544e+15	4.230488e+13	1.601425e+04	4.385525e+03	3.065606e+03	0	1.644539e-03
3.000000e+08	2.057004e+14	0.000000e+00	8.556701e-01	2.373969e+15	2.523058e+15	4.208375e+13	1.589502e+04	4.370130e+03	3.054845e+03	0	1.629052e-03
3.100000e+08	2.000284e+14	0.000000e+00	8.556701e-01	2.310523e+15	2.456501e+15	4.186423e+13	1.577900e+04	4.355081e+03	3.044325e+03	0	1.613939e-03
3.200000e+08	1.945931e+14	0.000000e+00	8.556701e-01	2.249712e+15	2.392710e+15	4.164630e+13	1.566606e+04	4.340366e+03	3.034039e+03	0	1.599186e-03
3.300000e+08	1.893814e+14	0.000000e+00	8.556701e-01	2.191394e+15	2.331532e+15	4.142996e+13	1.555607e+04	4.325971e+03	3.023976e+03	0	1.584780e-03
3.400000e+08	1.843811e+14	0.000000e+00	8.556701e-01	2.135430e+15	2.272824e+15	4.121519e+13	1.544891e+04	4.311887e+03	3.014131e+03	0	1.570708e-03
3.500000e+08	1.795809e+14	0.000000e+00	8.556701e-01	2.081697e+15	2.216453e+15	4.100198e+13	1.534447e+04	4.298101e+03	3.004494e+03	0	1.556957e-03
3.600000e+08	1.749702e+14	0.000000e+00	8.556701e-01	2.030075e+15	2.162296e+15	4.079031e+13	1.524264e+04	4.284604e+03	2.995059e+03	0	1.543517e-03
3.700000e+08	1.705391e+14	0.000000e+00	8.556701e-01	1.980454e+15	2.110236e+15	4.058018e+13	1.514331e+04	4.271385e+03	2.985819e+03	0	1.530375e-03
3.800000e+08	1.662782e+14	0.000000e+00	8.556701e-01	1.932732e+15	2.060165e+15	4.037157e+13	1.504639e+04	4.258435e+03	2.976767e+03	0	1.517522e-03
3.900000e+08	1.621790e+14	0.000000e+00	8.556701e-01	1.886811e+15	2.011982e+15	4.016446e+13	1.495180e+04	4.245746e+03	2.967897e+03	0	1.504948e-03
4.000000e+08	1.582332e+14	0.000000e+00	8.556701e-01	1.842600e+15	1.965591e+15	3.995885e+13	1.485943e+04	4.233309e+03	2.959202e+03	0	1.492643e-03
4.100000e+08	1.544332e+14	0.000000e+00	8.556701e-01	1.800016e+15	1.920903e+15	3.975473e+13	1.476922e+04	4.221115e+03	2.950678e+03	0	1.480597e-03
4.200000e+08	1.507719e+14	0.000000e+00	8.556701e-01	1.758978e+15	1.877834e+15	3.955207e+13	1.468107e+04	4.209156e+03	2.942319e+03	0	1.468803e-03
4.300000e+08	1.472426e+14	0.000000e+00	8.556701e-01	1.719412e+15	1.836306e+15	3.935088e+13	1.459492e+04	4.197426e+03	2.934119e+03	0	1.457251e-03
4.400000e+08	1.438388e+14	0.000000e+00	8.556701e-01	1.681246e+15	1.796246e+15	3.915113e+13	1.451070e+04	4.185917e+03	2.926074e+03	0	1.445935e-03
4.500000e+08	1.405547e+14	0.000000e+00	8.556701e-01	1.644415e+15	1.757582e+15	3.895282e+13	1.442833e+04	4.174621e+03	2.918178e+03	0	1.434845e-03
4.600000e+08	1.373846e+14	0.000000e+00	8.556701e-01	1.608857e+15	1.720251e+15	3.875593e+13	1.434776e+04	4.163534e+03	2.910428e+03	0	1.423976e-03
4.700000e+08	1.343232e+14	0.000000e+00	8.556701e-01	1.574511e+15	1.684190e+15	3.856045e+13	1.426892e+04	4.152648e+03	2.902818e+03	0	1.413320e-03
4.800000e+08	1.313657e+14	0.000000e+00	8.556701e-01	1.541324e+15	1.649341e+15	3.836637e+13	1.419175e+04	4.141957e+03	2.895345e+03	0	1.402870e-03
4.900000e+08	1.285073e+14	0.000000e+00	8.556701e-01	1.509243e+15	1.615650e+15	3.817369e+13	1.411620e+04	4.131455e+03	2.888004e+03	0	1.392620e-03
5.000000e+08	1.257435e+14	0.000000e+00	8.556701e-01	1.478219e+15	1.583064e+15	3.798238e+13	1.404221e+04	4.121138e+03	2.880792e+03	0	1.382564e-03
5.100000e+08	1.230701e+14	0.000000e+00	8.556701e-01	1.448204e+15	1.551535e+15	3.779244e+13	1.396973e+04	4.110999e+03	2.873705e+03	0	1.372695e-03
5.200000e+08	1.204833e+14	0.000000e+00	8.556701e-01	1.419155e+15	1.521018e+15	3.760385e+13	1.389871e+04	4.101034e+03	2.866738e+03	0	1.363010e-03
5.300000e+08	1.179793e+14	0.000000e+00	8.556701e-01	1.391030e+15	1.491467e+15	3.741661e+13	1.382911e+04	4.091237e+03	2.859890e+03	0	1.353501e-03
5.400000e+08	1.155544e+14	0.000000e+00	8.556701e-01	1.363789e+15	1.462842e+15	3.723070e+13	1.376089e+04	4.081604e+03	2.853156e+03	0	1.344164e-03
5.500000e+08	1.132055e+14	0.000000e+00	8.556701e-01	1.337396e+15	1.435103e+15	3.704612e+13	1.369399e+04	4.072130e+03	2.846534e+03	0	1.334993e-03
5.600000e+08	1.109292e+14	0.000000e+00	8.556701e-01	1.311815e+15	1.408214e+15	3.686284e+13	1.362837e+04	4.062811e+03	2.840020e+03	0	1.325985e-03
5.700000e+08	1.087226e+14	0.000000e+00	8.556701e-01	1.287012e+15	1.382140e+15	3.668087e+13	1.356401e+04	4.053643e+03	2.833611e+03	0	1.317134e-03
5.800000e+08	1.065829e+14	0.000000e+00	8.556701e-01	1.262956e+15	1.356846e+15	3.650019e+13	1.350085e+04	4.044622e+03	2.827305e+03	0	1.308436e-03
5.900000e+08	1.045072e+14	0.000000e+00	8.556701e-01	1.239616e+15	1.332302e+15	3.632079e+13	1.343887e+04	4.035743e+03	2.821099e+03	0	1.299886e-03
6.000000e+08	1.024931e+14	0.000000e+00	8.556701e-01	1.216963e+15	1.308478e+15	3.614266e+13	1.337803e+04	4.027004e+03	2.814989e+03	0	1.291482e-03
6.100000e+08	1.005381e+14	0.000000e+00	8.556701e-01	1.194971e+15	1.285344e+15	3.596579e+13	1.331830e+04	4.018399e+03	2.808975e+03	0	1.283217e-03
6.200000e+08	9.863980e+13	0.000000e+00	8.556701e-01	1.173613e+15	1.262874e+15	3.579017e+13	1.325963e+04	4.009927e+03	2.803052e+03	0	1.275090e-03
6.300000e+08	9.679607e+13	0.000000e+00	8.556701e-01	1.152865e+15	1.241042e+15	3.561579e+13	1.320201e+04	4.001583e+03	2.797220e+03	0	1.267095e-03
6.400000e+08	9.500479e+13	0.000000e+00	8.556701e-01	1.132703e+15	1.219823e+15	3.544264e+13	1.314541e+04	3.993365e+03	2.791475e+03	0	1.259230e-03
6.500000e+08	9.326394e+13	0.000000e+00	8.556701e-01	1.113105e+15	1.199195e+15	3.527071e+13	1.308979e+04	3.985268e+03	2.785815e+03	0	1.251491e-03
6.600000e+08	9.157161e+13	0.000000e+00	8.556701e-01	1.094050e+15	1.179134e+15	3.509999e+13	1.303512e+04	3.977291e+03	2.780239e+03	0	1.243876e-03
6.700000e+08	8.992600e+13	0.000000e+00	8.556701e-01	1.075516e+15	1.159619e+15	3.493047e+13	1.298139e+04	3.969430e+03	2.774744e+03	0	1.236379e-03
6.800000e+08	8.832537e+13	0.000000e+00	8.556701e-01	1.057486e+15	1.140631e+15	3.476214e+13	1.292856e+04	3.961682e+03	2.769328e+03	0	1.229000e-03
6.900000e+08	8.676805e+13	0.000000e+00	8.556701e-01	1.039941e+15	1.122151e+15	3.459499e+13	1.287661e+04	3.954044e+03	2.763989e+03	0	1.221734e-03
7.000000e+08	8.525249e+13	0.000000e+00	8.556701e-01	1.022862e+15	1.104158e+15	3.442902e+13	1.282553e+04	3.946515e+03	2.758726e+03	0	1.214579e-03
7.100000e+08	8.377715e+13	0.000000e+00	8.556701e-01	1.006234e+15	1.086637e+15	3.426420e+13	1.277527e+04	3.939091e+03	2.753536e+03	0	1.207532e-03
7.200000e+08	8.234062e+13	0.000000e+00	8.556701e-01	9.900396e+14	1.069571e+15	3.410054e+13	1.272583e+04	3.931770e+03	2.748418e+03	0	1.200590e-03
7.300000e+08	8.094151e+13	0.000000e+00	8.556701e-01	9.742641e+14	1.052942e+15	3.393802e+13	1.267718e+04	3.924549e+03	2.743371e+03	0	1.193751e-03
7.400000e+08	7.957852e+13	0.000000e+00	8.556701e-01	9.588928e+14	1.036737e+15	3.377664e+13	1.262930e+04	3.917427e+03	2.738392e+03	0	1.187012e-03
7.500000e+08	7.825038e+13	0.000000e+00	8.556701e-01	9.439116e+14	1.020939e+15	3.361638e+13	1.258218e+04	3.910401e+03	2.733481e+03	0	1.180372e-03
7.600000e+08	7.695589e+13	0.000000e+00	8.556701e-01	9.293071e+14	1.005537e+15	3.345723e+13	1.253578e+04	3.903468e+03	2.728634e+03	0	1.173827e-03
7.700000e+08	7.569390e+13	0.000000e+00	8.556701e-01	9.150665e+14	9.905145e+14	3.329920e+13	1.249010e+04	3.896627e+03	2.723852e+03	0	1.167375e-03
7.800000e+08	7.446332e+13	0.000000e+00	8.556701e-01	9.011775e+14	9.758606e+14	3.314226e+13	1.244512e+04	3.889876e+03	2.719133e+03	0	1.161014e-03
7.900000e+08	7.326308e+13	0.000000e+00	8.556701e-01	8.876283e+14	9.615624e+14	3.298641e+13	1.240082e+04	3.883212e+03	2.714475e+03	0	1.154742e-03
8.000000e+08	7.209218e+13	0.000000e+00	8.556701e-01	8.744077e+14	9.476082e+14	3.283165e+13	1.235718e+04	3.876634e+03	2.709877e+03	0	1.148557e-03
8.100000e+08	7.094965e+13	0.000000e+00	8.556701e-01	8.615048e+14	9.339866e+14	3.267795e+13	1.231419e+04	3.870140e+03	2.705337e+03	0	1.142457e-03
8.200000e+08	6.983456e+13	0.000000e+00	8.556701e-01	8.489093e+14	9.206869e+14	3.252532e+13	1.227183e+04	3.863728e+03	2.700855e+03	0	1.136441e-03
8.300000e+08	6.874602e+13	0.000000e+00	8.556701e-01	8.366113e+14	9.076987e+14	3.237375e+13	1.223008e+04	3.857396e+03	2.696429e+03	0	1.130505e-03
8.400000e+08	6.768317e+13	0.000000e+00	8.556701e-01	8.246012e+14	8.950120e+14	3.222322e+13	1.218894e+04	3.851143e+03	2.692058e+03	0	1.124649e-03
8.500000e+08	6.664521e+13	0.000000e+00	8.556701e-01	8.128698e+14	8.826171e+14	3.207373e+13	1.214838e+04	3.844967e+03	2.687741e+03	0	1.118870e-03
8.600000e+08	6.563133e+13	0.000000e+00	8.556701e-01	8.014084e+14	8.705050e+14	3.192527e+13	1.210840e+04	3.838866e+03	2.683476e+03	0	1.113167e-03
8.700000e+08	6.464078e+13	0.000000e+00	8.556701e-01	7.902086e+14	8.586669e+14	3.177783e+13	1.206899e+04	3.832839e+03	2.679263e+03	0	1.107539e-03
8.800000e+08	6.367284e+13	0.000000e+00	8.556701e-01	7.792621e+14	8.470942e+14	3.163141e+13	1.203012e+04	3.826885e+03	2.675101e+03	0	1.101983e-03
8.900000e+08	6.272682e+13	0.000000e+00	8.556701e-01	7.685613e+14	8.357787e+14	3.148599e+13	1.199178e+04	3.821001e+03	2.670988e+03	0	1.096498e-03
9.000000e+08	6.180203e+13	0.000000e+00	8.556701e-01	7.580986e+14	8.247128e+14	3.134157e+13	1.195397e+04	3.815187e+03	2.666923e+03	0	1.091082e-03
9.100000e+08	6.089783e+13	0.000000e+00	8.556701e-01	7.478669e+14	8.138887e+14	3.119815e+13	1.191667e+04	3.809440e+03	2.662907e+03	0	1.085735e-03
9.200000e+08	6.001360e+13	0.000000e+00	8.556701e-01	7.378591e+14	8.032994e+14	3.105570e+13	1.187988e+04	3.803761e+03	2.658936e+03	0	1.080455e-03
9.300000e+08	5.914875e+13	0.000000e+00	8.556701e-01	7.280686e+14	7.929378e+14	3.091423e+13	1.184357e+04	3.798146e+03	2.655012e+03	0	1.075239e-03
9.400000e+08	5.830270e+13	0.000000e+00	8.556701e-01	7.184890e+14	7.827971e+14	3.077372e+13	1.180775e+04	3.792596e+03	2.651132e+03	0	1.070088e-03
9.500000e+08	5.747489e+13	0.000000e+00	8.556701e-01	7.091141e+14	7.728710e+14	3.063417e+13	1.177239e+04	3.787109e+03	2.647296e+03	0	1.064999e-03
9.600000e+08	5.666480e+13	0.000000e+00	8.556701e-01	6.999379e+14	7.631532e+14	3.049558e+13	1.173749e+04	3.781683e+03	2.643503e+03	0	1.059972e-03
9.700000e+08	5.587190e+13	0.000000e+00	8.556701e-01	6.909548e+14	7.536377e+14	3.035793e+13	1.170305e+04	3.776318e+03	2.639753e+03	0	1.055005e-03
9.800000e+08	5.509571e+13	0.000000e+00	8.556701e-01	6.821591e+14	7.443188e+14	3.022121e+13	1.166904e+04	3.771012e+03	2.636044e+03	0	1.050097e-03
9.900000e+08	5.433575e+13	0.000000e+00	8.556701e-01	6.735456e+14	7.351908e+14	3.008543e+13	1.163546e+04	3.765764e+03	2.632375e+03	0	1.045246e-03
1.000000e+09	5.359155e+13	0.000000e+00	8.556701e-01	6.651090e+14	7.262484e+14	2.995057e+13	1.160231e+04	3.760573e+03	2.628747e+03	0	1.040452e-03
1.010000e+09	5.286268e+13	0.000000e+00	8.556701e-01	6.568445e+14	7.174863e+14	2.981662e+13	1.156957e+04	3.755438e+03	2.625158e+03	0	1.035714e-03
1.020000e+09	5.214870e+13	0.000000e+00	8.556701e-01	6.487472e+14	7.088997e+14	2.968358e+13	1.153724e+04	3.750359e+03	2.621607e+03	0	1.031030e-03
1.030000e+09	5.144920e+13	0.000000e+00	8.556701e-01	6.408125e+14	7.004837e+14	2.955144e+13	1.150530e+04	3.745333e+03	2.618094e+03	0	1.026399e-03
1.040000e+09	5.076379e+13	0.000000e+00	8.556701e-01	6.330361e+14	6.922335e+14	2.942019e+13	1.147375e+04	3.740361e+03	2.614618e+03	0	1.021821e-03
1.050000e+09	5.009208e+13	0.000000e+00	8.556701e-01	6.254135e+14	6.841448e+14	2.928983e+13	1.144258e+04	3.735440e+03	2.611178e+03	0	1.017294e-03
1.060000e+09	4.943369e+13	0.000000e+00	8.556701e-01	6.179406e+14	6.762131e+14	2.916034e+13	1.141179e+04	3.730571e+03	2.607774e+03	0	1.012817e-03
1.070000e+09	4.878828e+13	0.000000e+00	8.556701e-01	6.106133e+14	6.684343e+14	2.903173e+13	1.138136e+04	3.725752e+03	2.604406e+03	0	1.008390e-03
1.080000e+09	4.815548e+13	0.000000e+00	8.556701e-01	6.034279e+14	6.608044e+14	2.890399e+13	1.135130e+04	3.720982e+03	2.601071e+03	0	1.004011e-03
1.090000e+09	4.753497e+13	0.000000e+00	8.556701e-01	5.963806e+14	6.533193e+14	2.877710e+13	1.132158e+04	3.716260e+03	2.597771e+03	0	9.996801e-04
1.100000e+09	4.692642e+13	0.000000e+00	8.556701e-01	5.894677e+14	6.459753e+14	2.865107e+13	1.129221e+04	3.711587e+03	2.594504e+03	0	9.953957e-04
1.110000e+09	4.632952e+13	0.000000e+00	8.556701e-01	5.826857e+14	6.387688e+14	2.852588e+13	1.126318e+04	3.706960e+03	2.591270e+03	0	9.911573e-04
1.120000e+09	4.574397e+13	0.000000e+00	8.556701e-01	5.760313e+14	6.316962e+14	2.840153e+13	1.123449e+04	3.702379e+03	2.588068e+03	0	9.869638e-04
1.130000e+09	4.516947e+13	0.000000e+00	8.556701e-01	5.695012e+14	6.247540e+14	2.827801e+13	1.120612e+04	3.697844e+03	2.584897e+03	0	9.828146e-04
1.140000e+09	4.460573e+13	0.000000e+00	8.556701e-01	5.630921e+14	6.179390e+14	2.815532e+13	1.117807e+04	3.693352e+03	2.581758e+03	0	9.787089e-04
1.150000e+09	4.405250e+13	0.000000e+00	8.556701e-01	5.568010e+14	6.112479e+14	2.803345e+13	1.115033e+04	3.688905e+03	2.578649e+03	0	9.746458e-04
1.160000e+09	4.350949e+13	0.000000e+00	8.556701e-01	5.506250e+14	6.046777e+14	2.791239e+13	1.112291e+04	3.684501e+03	2.575570e+03	0	9.706246e-04
1.170000e+09	4.297645e+13	0.000000e+00	8.556701e-01	5.445611e+14	5.982253e+14	2.779213e+13	1.109578e+04	3.680139e+03	2.572521e+03	0	9.666445e-04
1.180000e+09	4.245313e+13	0.000000e+00	8.556701e-01	5.386066e+14	5.918878e+14	2.767268e+13	1.106896e+04	3.675818e+03	2.569501e+03	0	9.627050e-04
1.190000e+09	4.193930e+13	0.000000e+00	8.556701e-01	5.327588e+14	5.856624e+14	2.755402e+13	1.104242e+04	3.671539e+03	2.566509e+03	0	9.588051e-04
1.200000e+09	4.143471e+13	0.000000e+00	8.556701e-01	5.270151e+14	5.795463e+14	2.743615e+13	1.101618e+04	3.667299e+03	2.563546e+03	0	9.549444e-04
1.210000e+09	4.093915e+13	0.000000e+00	8.556701e-01	5.213728e+14	5.735370e+14	2.731906e+13	1.099021e+04	3.663100e+03	2.560610e+03	0	9.511220e-04
1.220000e+09	4.045238e+13	0.000000e+00	8.556701e-01	5.158296e+14	5.676317e+14	2.720275e+13	1.096453e+04	3.658939e+03	2.557702e+03	0	9.473374e-04
1.230000e+09	3.997421e+13	0.000000e+00	8.556701e-01	5.103831e+14	5.618281e+14	2.708720e+13	1.093911e+04	3.654816e+03	2.554820e+03	0	9.435899e-04
1.240000e+09	3.950442e+13	0.000000e+00	8.556701e-01	5.050310e+14	5.561237e+14	2.697242e+13	1.091396e+04	3.650732e+03	2.551965e+03	0	9.398788e-04
1.250000e+09	3.904281e+13	0.000000e+00	8.556701e-01	4.997710e+14	5.505162e+14	2.685840e+13	1.088908e+04	3.646684e+03	2.549135e+03	0	9.362036e-04
1.260000e+09	3.858919e+13	0.000000e+00	8.556701e-01	4.946009e+14	5.450032e+14	2.674513e+13	1.086445e+04	3.642673e+03	2.546332e+03	0	9.325637e-04
1.270000e+09	3.814337e+13	0.000000e+00	8.556701e-01	4.895187e+14	5.395827e+14	2.663260e+13	1.084008e+04	3.638698e+03	2.543553e+03	0	9.289585e-04
1.280000e+09	3.770516e+13	0.000000e+00	8.556701e-01	4.845223e+14	5.342524e+14	2.652082e+13	1.081596e+04	3.634759e+03	2.540799e+03	0	9.253874e-04
1.290000e+09	3.727440e+13	0.000000e+00	8.556701e-01	4.796097e+14	5.290103e+14	2.640977e+13	1.079208e+04	3.630854e+03	2.538070e+03	0	9.218498e-04
1.300000e+09	3.685090e+13	0.000000e+00	8.556701e-01	4.747789e+14	5.238544e+14	2.629944e+13	1.076845e+04	3.626984e+03	2.535364e+03	0	9.183453e-04
1.310000e+09	3.643451e+13	0.000000e+00	8.556701e-01	4.700282e+14	5.187826e+14	2.618985e+13	1.074505e+04	3.623147e+03	2.532682e+03	0	9.148733e-04
1.320000e+09	3.602505e+13	0.000000e+00	8.556701e-01	4.653557e+14	5.137931e+14	2.608097e+13	1.072188e+04	3.619344e+03	2.530024e+03	0	9.114332e-04
1.330000e+09	3.562238e+13	0.000000e+00	8.556701e-01	4.607595e+14	5.088841e+14	2.597280e+13	1.069895e+04	3.615574e+03	2.527388e+03	0	9.080246e-04
1.340000e+09	3.522633e+13	0.000000e+00	8.556701e-01	4.562381e+14	5.040537e+14	2.586534e+13	1.067624e+04	3.611836e+03	2.524775e+03	0	9.046469e-04
1.350000e+09	3.483677e+13	0.000000e+00	8.556701e-01	4.517897e+14	4.993003e+14	2.575858e+13	1.065375e+04	3.608130e+03	2.522185e+03	0	9.012997e-04
1.360000e+09	3.445353e+13	0.000000e+00	8.556701e-01	4.474128e+14	4.946220e+14	2.565251e+13	1.063148e+04	3.604455e+03	2.519616e+03	0	8.979825e-04
