#t		Qconv[W]	Ri[Rp]		R*[Rp]		Qc[W]		Qm[W]		Qr[W]		Tcmb[K]		Tl[K]		Tup[K]		RiFlag		Bs[T]
0.000000e+00	2.765466e+12	0.000000e+00	6.331660e-01	4.849697e+13	1.977264e+15	1.698574e+14	5.913845e+03	3.856974e+03	2.210962e+03	0	4.376071e-04
1.000000e+07	2.732251e+12	0.000000e+00	6.331660e-01	4.803396e+13	1.739430e+15	1.689162e+14	5.910814e+03	3.759246e+03	2.154941e+03	0	4.358480e-04
2.000000e+07	2.689727e+12	0.000000e+00	6.331660e-01	4.744274e+13	1.547491e+15	1.679821e+14	5.907811e+03	3.674192e+03	2.106185e+03	0	4.335751e-04
3.000000e+07	2.642401e+12	0.000000e+00	6.331660e-01	4.678541e+13	1.390177e+15	1.670550e+14	5.904845e+03	3.599427e+03	2.063327e+03	0	4.310171e-04
4.000000e+07	2.593013e+12	0.000000e+00	6.331660e-01	4.609974e+13	1.259475e+15	1.661348e+14	5.901920e+03	3.533135e+03	2.025326e+03	0	4.283149e-04
5.000000e+07	2.543236e+12	0.000000e+00	6.331660e-01	4.540878e+13	1.149569e+15	1.652215e+14	5.899038e+03	3.473910e+03	1.991375e+03	0	4.255564e-04
6.000000e+07	2.494086e+12	0.000000e+00	6.331660e-01	4.472653e+13	1.056157e+15	1.643150e+14	5.896199e+03	3.420643e+03	1.960841e+03	0	4.227972e-04
7.000000e+07	2.446168e+12	0.000000e+00	6.331660e-01	4.406134e+13	9.760024e+14	1.634152e+14	5.893403e+03	3.372454e+03	1.933217e+03	0	4.200720e-04
8.000000e+07	2.399828e+12	0.000000e+00	6.331660e-01	4.341796e+13	9.066327e+14	1.625221e+14	5.890648e+03	3.328628e+03	1.908094e+03	0	4.174024e-04
9.000000e+07	2.355246e+12	0.000000e+00	6.331660e-01	4.279888e+13	8.461321e+14	1.616357e+14	5.887933e+03	3.288582e+03	1.885138e+03	0	4.148015e-04
1.000000e+08	2.312497e+12	0.000000e+00	6.331660e-01	4.220512e+13	7.929970e+14	1.607558e+14	5.885257e+03	3.251835e+03	1.864073e+03	0	4.122766e-04
1.100000e+08	2.271590e+12	0.000000e+00	6.331660e-01	4.163681e+13	7.460340e+14	1.598825e+14	5.882618e+03	3.217985e+03	1.844670e+03	0	4.098311e-04
1.200000e+08	2.232492e+12	0.000000e+00	6.331660e-01	4.109348e+13	7.042854e+14	1.590156e+14	5.880014e+03	3.186696e+03	1.826734e+03	0	4.074661e-04
1.300000e+08	2.195144e+12	0.000000e+00	6.331660e-01	4.057434e+13	6.669750e+14	1.581552e+14	5.877445e+03	3.157682e+03	1.810101e+03	0	4.051811e-04
1.400000e+08	2.159473e+12	0.000000e+00	6.331660e-01	4.007836e+13	6.334685e+14	1.573011e+14	5.874908e+03	3.130698e+03	1.794633e+03	0	4.029744e-04
1.500000e+08	2.125399e+12	0.000000e+00	6.331660e-01	3.960444e+13	6.032429e+14	1.564534e+14	5.872401e+03	3.105536e+03	1.780209e+03	0	4.008437e-04
1.600000e+08	2.092838e+12	0.000000e+00	6.331660e-01	3.915142e+13	5.758635e+14	1.556119e+14	5.869925e+03	3.082014e+03	1.766726e+03	0	3.987862e-04
1.700000e+08	2.061706e+12	0.000000e+00	6.331660e-01	3.871814e+13	5.509670e+14	1.547766e+14	5.867476e+03	3.059975e+03	1.754092e+03	0	3.967990e-04
1.800000e+08	2.031922e+12	0.000000e+00	6.331660e-01	3.830348e+13	5.282471e+14	1.539475e+14	5.865055e+03	3.039282e+03	1.742230e+03	0	3.948789e-04
1.900000e+08	2.003407e+12	0.000000e+00	6.331660e-01	3.790635e+13	5.074445e+14	1.531245e+14	5.862660e+03	3.019814e+03	1.731070e+03	0	3.930230e-04
2.000000e+08	1.976086e+12	0.000000e+00	6.331660e-01	3.752572e+13	4.883380e+14	1.523075e+14	5.860289e+03	3.001464e+03	1.720552e+03	0	3.912282e-04
2.100000e+08	1.949887e+12	0.000000e+00	6.331660e-01	3.716059e+13	4.707382e+14	1.514965e+14	5.857943e+03	2.984139e+03	1.710620e+03	0	3.894916e-04
2.200000e+08	1.924744e+12	0.000000e+00	6.331660e-01	3.681006e+13	4.544820e+14	1.506915e+14	5.855619e+03	2.967755e+03	1.701228e+03	0	3.878102e-04
2.300000e+08	1.900595e+12	0.000000e+00	6.331660e-01	3.647325e+13	4.394282e+14	1.498925e+14	5.853317e+03	2.952236e+03	1.692332e+03	0	3.861815e-04
2.400000e+08	1.877380e+12	0.000000e+00	6.331660e-01	3.614935e+13	4.254540e+14	1.490992e+14	5.851036e+03	2.937516e+03	1.683894e+03	0	3.846027e-04
2.500000e+08	1.855045e+12	0.000000e+00	6.331660e-01	3.583761e+13	4.124526e+14	1.483118e+14	5.848775e+03	2.923535e+03	1.675880e+03	0	3.830714e-04
2.600000e+08	1.833538e+12	0.000000e+00	6.331660e-01	3.553733e+13	4.003299e+14	1.475301e+14	5.846533e+03	2.910239e+03	1.668258e+03	0	3.815852e-04
2.700000e+08	1.812813e+12	0.000000e+00	6.331660e-01	3.524784e+13	3.890036e+14	1.467542e+14	5.844311e+03	2.897578e+03	1.661001e+03	0	3.801420e-04
2.800000e+08	1.792824e+12	0.000000e+00	6.331660e-01	3.496854e+13	3.784008e+14	1.459839e+14	5.842106e+03	2.885509e+03	1.654082e+03	0	3.787397e-04
2.900000e+08	1.773531e+12	0.000000e+00	6.331660e-01	3.469884e+13	3.684570e+14	1.452193e+14	5.839919e+03	2.873991e+03	1.647479e+03	0	3.773762e-04
3.000000e+08	1.754894e+12	0.000000e+00	6.331660e-01	3.443823e+13	3.591150e+14	1.444602e+14	5.837749e+03	2.862987e+03	1.641171e+03	0	3.760497e-04
3.100000e+08	1.736878e+12	0.000000e+00	6.331660e-01	3.418620e+13	3.503236e+14	1.437066e+14	5.835595e+03	2.852463e+03	1.635139e+03	0	3.747584e-04
3.200000e+08	1.719449e+12	0.000000e+00	6.331660e-01	3.394228e+13	3.420374e+14	1.429586e+14	5.833457e+03	2.842390e+03	1.629364e+03	0	3.735007e-04
3.300000e+08	1.702576e+12	0.000000e+00	6.331660e-01	3.370605e+13	3.342153e+14	1.422159e+14	5.831334e+03	2.832738e+03	1.623832e+03	0	3.722749e-04
3.400000e+08	1.686230e+12	0.000000e+00	6.331660e-01	3.347711e+13	3.268208e+14	1.414787e+14	5.829226e+03	2.823483e+03	1.618526e+03	0	3.710797e-04
3.500000e+08	1.670383e+12	0.000000e+00	6.331660e-01	3.325507e+13	3.198207e+14	1.407468e+14	5.827132e+03	2.814599e+03	1.613434e+03	0	3.699136e-04
3.600000e+08	1.655010e+12	0.000000e+00	6.331660e-01	3.303958e+13	3.131852e+14	1.400202e+14	5.825053e+03	2.806067e+03	1.608542e+03	0	3.687753e-04
3.700000e+08	1.640087e+12	0.000000e+00	6.331660e-01	3.283032e+13	3.068872e+14	1.392989e+14	5.822986e+03	2.797864e+03	1.603840e+03	0	3.676635e-04
3.800000e+08	1.625591e+12	0.000000e+00	6.331660e-01	3.262697e+13	3.009024e+14	1.385828e+14	5.820933e+03	2.789972e+03	1.599317e+03	0	3.665771e-04
3.900000e+08	1.611502e+12	0.000000e+00	6.331660e-01	3.242925e+13	2.952083e+14	1.378719e+14	5.818892e+03	2.782375e+03	1.594962e+03	0	3.655150e-04
4.000000e+08	1.597800e+12	0.000000e+00	6.331660e-01	3.223687e+13	2.897848e+14	1.371661e+14	5.816864e+03	2.775055e+03	1.590766e+03	0	3.644761e-04
4.100000e+08	1.584466e+12	0.000000e+00	6.331660e-01	3.204960e+13	2.846133e+14	1.364654e+14	5.814847e+03	2.767999e+03	1.586721e+03	0	3.634594e-04
4.200000e+08	1.571483e+12	0.000000e+00	6.331660e-01	3.186718e+13	2.796771e+14	1.357697e+14	5.812843e+03	2.761191e+03	1.582818e+03	0	3.624639e-04
4.300000e+08	1.558835e+12	0.000000e+00	6.331660e-01	3.168939e+13	2.749605e+14	1.350791e+14	5.810849e+03	2.754619e+03	1.579051e+03	0	3.614889e-04
4.400000e+08	1.546506e+12	0.000000e+00	6.331660e-01	3.151603e+13	2.704494e+14	1.343934e+14	5.808867e+03	2.748271e+03	1.575412e+03	0	3.605333e-04
4.500000e+08	1.534482e+12	0.000000e+00	6.331660e-01	3.134688e+13	2.661309e+14	1.337127e+14	5.806896e+03	2.742136e+03	1.571895e+03	0	3.595966e-04
4.600000e+08	1.522750e+12	0.000000e+00	6.331660e-01	3.118177e+13	2.619928e+14	1.330368e+14	5.804935e+03	2.736202e+03	1.568494e+03	0	3.586777e-04
4.700000e+08	1.511296e+12	0.000000e+00	6.331660e-01	3.102052e+13	2.580242e+14	1.323658e+14	5.802985e+03	2.730460e+03	1.565202e+03	0	3.577762e-04
4.800000e+08	1.500108e+12	0.000000e+00	6.331660e-01	3.086295e+13	2.542149e+14	1.316996e+14	5.801045e+03	2.724902e+03	1.562016e+03	0	3.568912e-04
4.900000e+08	1.489176e+12	0.000000e+00	6.331660e-01	3.070892e+13	2.505554e+14	1.310382e+14	5.799114e+03	2.719517e+03	1.558929e+03	0	3.560221e-04
5.000000e+08	1.478488e+12	0.000000e+00	6.331660e-01	3.055827e+13	2.470370e+14	1.303815e+14	5.797193e+03	2.714298e+03	1.555937e+03	0	3.551683e-04
5.100000e+08	1.468034e+12	0.000000e+00	6.331660e-01	3.041086e+13	2.436517e+14	1.297295e+14	5.795282e+03	2.709237e+03	1.553036e+03	0	3.543292e-04
5.200000e+08	1.457804e+12	0.000000e+00	6.331660e-01	3.026656e+13	2.403920e+14	1.290821e+14	5.793380e+03	2.704326e+03	1.550221e+03	0	3.535042e-04
5.300000e+08	1.447790e+12	0.000000e+00	6.331660e-01	3.012524e+13	2.372508e+14	1.284394e+14	5.791486e+03	2.699560e+03	1.547489e+03	0	3.526929e-04
5.400000e+08	1.437982e+12	0.000000e+00	6.331660e-01	2.998679e+13	2.342219e+14	1.278012e+14	5.789602e+03	2.694932e+03	1.544836e+03	0	3.518947e-04
5.500000e+08	1.428373e+12	0.000000e+00	6.331660e-01	2.985108e+13	2.312990e+14	1.271676e+14	5.787726e+03	2.690434e+03	1.542258e+03	0	3.511091e-04
5.600000e+08	1.418954e+12	0.000000e+00	6.331660e-01	2.971802e+13	2.284766e+14	1.265385e+14	5.785859e+03	2.686063e+03	1.539752e+03	0	3.503357e-04
5.700000e+08	1.409719e+12	0.000000e+00	6.331660e-01	2.958750e+13	2.257496e+14	1.259138e+14	5.784000e+03	2.681812e+03	1.537315e+03	0	3.495740e-04
5.800000e+08	1.400660e+12	0.000000e+00	6.331660e-01	2.945942e+13	2.231128e+14	1.252936e+14	5.782150e+03	2.677676e+03	1.534944e+03	0	3.488236e-04
5.900000e+08	1.391771e+12	0.000000e+00	6.331660e-01	2.933369e+13	2.205619e+14	1.246778e+14	5.780307e+03	2.673651e+03	1.532637e+03	0	3.480841e-04
6.000000e+08	1.383045e+12	0.000000e+00	6.331660e-01	2.921023e+13	2.180926e+14	1.240663e+14	5.778472e+03	2.669731e+03	1.530390e+03	0	3.473551e-04
6.100000e+08	1.374476e+12	0.000000e+00	6.331660e-01	2.908895e+13	2.157007e+14	1.234592e+14	5.776645e+03	2.665912e+03	1.528201e+03	0	3.466363e-04
6.200000e+08	1.366059e+12	0.000000e+00	6.331660e-01	2.896977e+13	2.133826e+14	1.228563e+14	5.774825e+03	2.662191e+03	1.526068e+03	0	3.459272e-04
6.300000e+08	1.357788e+12	0.000000e+00	6.331660e-01	2.885262e+13	2.111347e+14	1.222577e+14	5.773013e+03	2.658564e+03	1.523988e+03	0	3.452277e-04
6.400000e+08	1.349659e+12	0.000000e+00	6.331660e-01	2.873743e+13	2.089537e+14	1.216634e+14	5.771208e+03	2.655026e+03	1.521960e+03	0	3.445373e-04
6.500000e+08	1.341665e+12	0.000000e+00	6.331660e-01	2.862412e+13	2.068366e+14	1.210732e+14	5.769411e+03	2.651574e+03	1.519981e+03	0	3.438557e-04
6.600000e+08	1.333802e+12	0.000000e+00	6.331660e-01	2.851263e+13	2.047803e+14	1.204872e+14	5.767620e+03	2.648204e+03	1.518050e+03	0	3.431827e-04
6.700000e+08	1.326067e+12	0.000000e+00	6.331660e-01	2.840291e+13	2.027821e+14	1.199052e+14	5.765836e+03	2.644915e+03	1.516164e+03	0	3.425180e-04
6.800000e+08	1.318454e+12	0.000000e+00	6.331660e-01	2.829489e+13	2.008394e+14	1.193274e+14	5.764060e+03	2.641701e+03	1.514322e+03	0	3.418613e-04
6.900000e+08	1.310959e+12	0.000000e+00	6.331660e-01	2.818851e+13	1.989498e+14	1.187537e+14	5.762290e+03	2.638562e+03	1.512523e+03	0	3.412123e-04
7.000000e+08	1.303579e+12	0.000000e+00	6.331660e-01	2.808372e+13	1.971109e+14	1.181839e+14	5.760526e+03	2.635493e+03	1.510763e+03	0	3.405708e-04
7.100000e+08	1.296310e+12	0.000000e+00	6.331660e-01	2.798047e+13	1.953206e+14	1.176181e+14	5.758770e+03	2.632493e+03	1.509043e+03	0	3.399366e-04
7.200000e+08	1.289148e+12	0.000000e+00	6.331660e-01	2.787871e+13	1.935769e+14	1.170563e+14	5.757019e+03	2.629558e+03	1.507361e+03	0	3.393094e-04
7.300000e+08	1.282090e+12	0.000000e+00	6.331660e-01	2.777839e+13	1.918776e+14	1.164985e+14	5.755275e+03	2.626686e+03	1.505715e+03	0	3.386890e-04
7.400000e+08	1.275133e+12	0.000000e+00	6.331660e-01	2.767946e+13	1.902211e+14	1.159445e+14	5.753538e+03	2.623876e+03	1.504104e+03	0	3.380753e-04
7.500000e+08	1.268273e+12	0.000000e+00	6.331660e-01	2.758190e+13	1.886055e+14	1.153944e+14	5.751806e+03	2.621124e+03	1.502526e+03	0	3.374679e-04
7.600000e+08	1.261507e+12	0.000000e+00	6.331660e-01	2.748564e+13	1.870292e+14	1.148481e+14	5.750081e+03	2.618429e+03	1.500982e+03	0	3.368668e-04
7.700000e+08	1.254834e+12	0.000000e+00	6.331660e-01	2.739066e+13	1.854906e+14	1.143056e+14	5.748361e+03	2.615789e+03	1.499468e+03	0	3.362717e-04
7.800000e+08	1.248248e+12	0.000000e+00	6.331660e-01	2.729691e+13	1.839883e+14	1.137669e+14	5.746648e+03	2.613202e+03	1.497985e+03	0	3.356824e-04
7.900000e+08	1.241750e+12	0.000000e+00	6.331660e-01	2.720436e+13	1.825208e+14	1.132319e+14	5.744940e+03	2.610665e+03	1.496531e+03	0	3.350988e-04
8.000000e+08	1.235334e+12	0.000000e+00	6.331660e-01	2.711297e+13	1.810867e+14	1.127006e+14	5.743239e+03	2.608178e+03	1.495106e+03	0	3.345208e-04
8.100000e+08	1.229000e+12	0.000000e+00	6.331660e-01	2.702271e+13	1.796849e+14	1.121731e+14	5.741543e+03	2.605739e+03	1.493707e+03	0	3.339480e-04
8.200000e+08	1.222745e+12	0.000000e+00	6.331660e-01	2.693355e+13	1.783140e+14	1.116491e+14	5.739852e+03	2.603345e+03	1.492335e+03	0	3.333805e-04
8.300000e+08	1.216567e+12	0.000000e+00	6.331660e-01	2.684545e+13	1.769730e+14	1.111288e+14	5.738167e+03	2.600997e+03	1.490989e+03	0	3.328181e-04
8.400000e+08	1.210463e+12	0.000000e+00	6.331660e-01	2.675840e+13	1.756607e+14	1.106121e+14	5.736488e+03	2.598691e+03	1.489667e+03	0	3.322605e-04
8.500000e+08	1.204432e+12	0.000000e+00	6.331660e-01	2.667235e+13	1.743761e+14	1.100989e+14	5.734814e+03	2.596426e+03	1.488369e+03	0	3.317078e-04
8.600000e+08	1.198471e+12	0.000000e+00	6.331660e-01	2.658728e+13	1.731182e+14	1.095893e+14	5.733145e+03	2.594202e+03	1.487094e+03	0	3.311596e-04
8.700000e+08	1.192578e+12	0.000000e+00	6.331660e-01	2.650316e+13	1.718861e+14	1.090832e+14	5.731482e+03	2.592017e+03	1.485841e+03	0	3.306160e-04
8.800000e+08	1.186753e+12	0.000000e+00	6.331660e-01	2.641998e+13	1.706787e+14	1.085806e+14	5.729824e+03	2.589870e+03	1.484610e+03	0	3.300768e-04
8.900000e+08	1.180992e+12	0.000000e+00	6.331660e-01	2.633770e+13	1.694954e+14	1.080814e+14	5.728171e+03	2.587759e+03	1.483400e+03	0	3.295419e-04
9.000000e+08	1.175295e+12	0.000000e+00	6.331660e-01	2.625630e+13	1.683351e+14	1.075857e+14	5.726524e+03	2.585683e+03	1.482211e+03	0	3.290111e-04
9.100000e+08	1.169660e+12	0.000000e+00	6.331660e-01	2.617576e+13	1.671973e+14	1.070933e+14	5.724881e+03	2.583642e+03	1.481040e+03	0	3.284844e-04
9.200000e+08	1.164084e+12	0.000000e+00	6.331660e-01	2.609605e+13	1.660810e+14	1.066044e+14	5.723244e+03	2.581634e+03	1.479889e+03	0	3.279616e-04
9.300000e+08	1.158567e+12	0.000000e+00	6.331660e-01	2.601717e+13	1.649857e+14	1.061187e+14	5.721611e+03	2.579658e+03	1.478757e+03	0	3.274427e-04
9.400000e+08	1.153107e+12	0.000000e+00	6.331660e-01	2.593907e+13	1.639105e+14	1.056364e+14	5.719984e+03	2.577713e+03	1.477642e+03	0	3.269275e-04
9.500000e+08	1.147703e+12	0.000000e+00	6.331660e-01	2.586176e+13	1.628549e+14	1.051574e+14	5.718361e+03	2.575799e+03	1.476544e+03	0	3.264160e-04
9.600000e+08	1.142354e+12	0.000000e+00	6.331660e-01	2.578520e+13	1.618182e+14	1.046817e+14	5.716743e+03	2.573914e+03	1.475464e+03	0	3.259081e-04
9.700000e+08	1.137057e+12	0.000000e+00	6.331660e-01	2.570938e+13	1.607998e+14	1.042091e+14	5.715130e+03	2.572057e+03	1.474400e+03	0	3.254036e-04
9.800000e+08	1.131812e+12	0.000000e+00	6.331660e-01	2.563429e+13	1.597991e+14	1.037399e+14	5.713522e+03	2.570228e+03	1.473351e+03	0	3.249025e-04
9.900000e+08	1.126618e+12	0.000000e+00	6.331660e-01	2.555990e+13	1.588156e+14	1.032737e+14	5.711918e+03	2.568426e+03	1.472318e+03	0	3.244047e-04
1.000000e+09	1.121473e+12	0.000000e+00	6.331660e-01	2.548619e+13	1.578488e+14	1.028108e+14	5.710319e+03	2.566650e+03	1.471300e+03	0	3.239102e-04
1.010000e+09	1.116377e+12	0.000000e+00	6.331660e-01	2.541317e+13	1.568980e+14	1.023510e+14	5.708725e+03	2.564899e+03	1.470296e+03	0	3.234187e-04
1.020000e+09	1.111327e+12	0.000000e+00	6.331660e-01	2.534080e+13	1.559630e+14	1.018943e+14	5.707135e+03	2.563173e+03	1.469307e+03	0	3.229304e-04
1.030000e+09	1.106324e+12	0.000000e+00	6.331660e-01	2.526907e+13	1.550431e+14	1.014407e+14	5.705550e+03	2.561471e+03	1.468331e+03	0	3.224450e-04
1.040000e+09	1.101366e+12	0.000000e+00	6.331660e-01	2.519797e+13	1.541380e+14	1.009902e+14	5.703969e+03	2.559792e+03	1.467369e+03	0	3.219626e-04
1.050000e+09	1.096452e+12	0.000000e+00	6.331660e-01	2.512749e+13	1.532471e+14	1.005427e+14	5.702392e+03	2.558135e+03	1.466419e+03	0	3.214831e-04
1.060000e+09	1.091581e+12	0.000000e+00	6.331660e-01	2.505761e+13	1.523702e+14	1.000982e+14	5.700820e+03	2.556501e+03	1.465482e+03	0	3.210063e-04
1.070000e+09	1.086752e+12	0.000000e+00	6.331660e-01	2.498832e+13	1.515067e+14	9.965674e+13	5.699253e+03	2.554888e+03	1.464557e+03	0	3.205323e-04
1.080000e+09	1.081965e+12	0.000000e+00	6.331660e-01	2.491961e+13	1.506564e+14	9.921823e+13	5.697690e+03	2.553295e+03	1.463644e+03	0	3.200609e-04
1.090000e+09	1.077218e+12	0.000000e+00	6.331660e-01	2.485146e+13	1.498188e+14	9.878268e+13	5.696131e+03	2.551723e+03	1.462743e+03	0	3.195922e-04
1.100000e+09	1.072511e+12	0.000000e+00	6.331660e-01	2.478387e+13	1.489936e+14	9.835004e+13	5.694576e+03	2.550170e+03	1.461853e+03	0	3.191260e-04
1.110000e+09	1.067843e+12	0.000000e+00	6.331660e-01	2.471682e+13	1.481804e+14	9.792031e+13	5.693025e+03	2.548637e+03	1.460974e+03	0	3.186623e-04
1.120000e+09	1.063213e+12	0.000000e+00	6.331660e-01	2.465030e+13	1.473790e+14	9.749345e+13	5.691479e+03	2.547122e+03	1.460106e+03	0	3.182011e-04
1.130000e+09	1.058620e+12	0.000000e+00	6.331660e-01	2.458430e+13	1.465890e+14	9.706946e+13	5.689937e+03	2.545625e+03	1.459248e+03	0	3.177422e-04
1.140000e+09	1.054063e+12	0.000000e+00	6.331660e-01	2.451882e+13	1.458100e+14	9.664829e+13	5.688399e+03	2.544146e+03	1.458400e+03	0	3.172857e-04
1.150000e+09	1.049543e+12	0.000000e+00	6.331660e-01	2.445383e+13	1.450419e+14	9.622994e+13	5.686865e+03	2.542685e+03	1.457562e+03	0	3.168315e-04
1.160000e+09	1.045058e+12	0.000000e+00	6.331660e-01	2.438934e+13	1.442843e+14	9.581438e+13	5.685335e+03	2.541240e+03	1.456734e+03	0	3.163795e-04
1.170000e+09	1.040607e+12	0.000000e+00	6.331660e-01	2.432533e+13	1.435370e+14	9.540159e+13	5.683809e+03	2.539811e+03	1.455915e+03	0	3.159297e-04
1.180000e+09	1.036190e+12	0.000000e+00	6.331660e-01	2.426179e+13	1.427996e+14	9.499154e+13	5.682287e+03	2.538398e+03	1.455105e+03	0	3.154821e-04
1.190000e+09	1.031806e+12	0.000000e+00	6.331660e-01	2.419872e+13	1.420720e+14	9.458422e+13	5.680770e+03	2.537001e+03	1.454304e+03	0	3.150365e-04
1.200000e+09	1.027455e+12	0.000000e+00	6.331660e-01	2.413610e+13	1.413540e+14	9.417961e+13	5.679256e+03	2.535619e+03	1.453512e+03	0	3.145931e-04
1.210000e+09	1.023136e+12	0.000000e+00	6.331660e-01	2.407393e+13	1.406451e+14	9.377768e+13	5.677746e+03	2.534252e+03	1.452728e+03	0	3.141516e-04
1.220000e+09	1.018848e+12	0.000000e+00	6.331660e-01	2.401221e+13	1.399453e+14	9.337841e+13	5.676240e+03	2.532899e+03	1.451953e+03	0	3.137122e-04
1.230000e+09	1.014591e+12	0.000000e+00	6.331660e-01	2.395091e+13	1.392544e+14	9.298178e+13	5.674737e+03	2.531561e+03	1.451185e+03	0	3.132747e-04
1.240000e+09	1.010365e+12	0.000000e+00	6.331660e-01	2.389004e+13	1.385720e+14	9.258777e+13	5.673239e+03	2.530236e+03	1.450426e+03	0	3.128391e-04
1.250000e+09	1.006168e+12	0.000000e+00	6.331660e-01	2.382959e+13	1.378980e+14	9.219637e+13	5.671744e+03	2.528924e+03	1.449674e+03	0	3.124053e-04
1.260000e+09	1.002001e+12	0.000000e+00	6.331660e-01	2.376955e+13	1.372323e+14	9.180754e+13	5.670254e+03	2.527626e+03	1.448930e+03	0	3.119734e-04
1.270000e+09	9.978624e+11	0.000000e+00	6.331660e-01	2.370991e+13	1.365745e+14	9.142128e+13	5.668766e+03	2.526340e+03	1.448193e+03	0	3.115433e-04
1.280000e+09	9.937523e+11	0.000000e+00	6.331660e-01	2.365067e+13	1.359246e+14	9.103756e+13	5.667283e+03	2.525067e+03	1.447463e+03	0	3.111150e-04
1.290000e+09	9.896700e+11	0.000000e+00	6.331660e-01	2.359181e+13	1.352824e+14	9.065636e+13	5.665803e+03	2.523806e+03	1.446740e+03	0	3.106884e-04
1.300000e+09	9.856151e+11	0.000000e+00	6.331660e-01	2.353335e+13	1.346476e+14	9.027766e+13	5.664328e+03	2.522557e+03	1.446024e+03	0	3.102635e-04
1.310000e+09	9.815873e+11	0.000000e+00	6.331660e-01	2.347526e+13	1.340202e+14	8.990144e+13	5.662855e+03	2.521320e+03	1.445315e+03	0	3.098403e-04
1.320000e+09	9.775859e+11	0.000000e+00	6.331660e-01	2.341754e+13	1.333999e+14	8.952769e+13	5.661387e+03	2.520094e+03	1.444612e+03	0	3.094187e-04
1.330000e+09	9.736107e+11	0.000000e+00	6.331660e-01	2.336019e+13	1.327865e+14	8.915638e+13	5.659921e+03	2.518879e+03	1.443916e+03	0	3.089987e-04
1.340000e+09	9.696612e+11	0.000000e+00	6.331660e-01	2.330320e+13	1.321801e+14	8.878750e+13	5.658460e+03	2.517675e+03	1.443226e+03	0	3.085803e-04
1.350000e+09	9.657371e+11	0.000000e+00	6.331660e-01	2.324657e+13	1.315803e+14	8.842103e+13	5.657002e+03	2.516482e+03	1.442542e+03	0	3.081635e-04
1.360000e+09	9.618379e+11	0.000000e+00	6.331660e-01	2.319029e+13	1.309871e+14	8.805694e+13	5.655548e+03	2.515299e+03	1.441864e+03	0	3.077482e-04
