#t		Qconv[W]	Ri[Rp]		R*[Rp]		Qc[W]		Qm[W]		Qr[W]		Tcmb[K]		Tl[K]		Tup[K]		RiFlag		Bs[T]
0.000000e+00	6.564301e+12	0.000000e+00	6.231155e-01	1.044427e+14	2.665268e+15	2.516167e+14	7.602629e+03	4.681212e+03	2.344880e+03	0	5.792275e-04
1.000000e+07	6.451399e+12	0.000000e+00	6.231155e-01	1.031453e+14	2.402326e+15	2.502225e+14	7.598516e+03	4.588318e+03	2.298348e+03	0	5.758875e-04
2.000000e+07	6.332327e+12	0.000000e+00	6.231155e-01	1.017782e+14	2.182348e+15	2.488388e+14	7.594455e+03	4.505582e+03	2.256905e+03	0	5.723225e-04
3.000000e+07	6.211207e+12	0.000000e+00	6.231155e-01	1.003880e+14	1.996267e+15	2.474654e+14	7.590447e+03	4.431373e+03	2.219733e+03	0	5.686500e-04
4.000000e+07	6.090635e+12	0.000000e+00	6.231155e-01	9.900426e+13	1.837292e+15	2.461023e+14	7.586494e+03	4.364395e+03	2.186183e+03	0	5.649464e-04
5.000000e+07	5.972224e+12	0.000000e+00	6.231155e-01	9.764525e+13	1.700262e+15	2.447494e+14	7.582595e+03	4.303608e+03	2.155733e+03	0	5.612612e-04
6.000000e+07	5.856952e+12	0.000000e+00	6.231155e-01	9.632207e+13	1.581194e+15	2.434065e+14	7.578750e+03	4.248163e+03	2.127960e+03	0	5.576267e-04
7.000000e+07	5.745383e+12	0.000000e+00	6.231155e-01	9.504112e+13	1.476982e+15	2.420736e+14	7.574957e+03	4.197365e+03	2.102515e+03	0	5.540633e-04
8.000000e+07	5.637809e+12	0.000000e+00	6.231155e-01	9.380569e+13	1.385167e+15	2.407507e+14	7.571214e+03	4.150637e+03	2.079108e+03	0	5.505834e-04
9.000000e+07	5.534342e+12	0.000000e+00	6.231155e-01	9.261706e+13	1.303786e+15	2.394375e+14	7.567520e+03	4.107493e+03	2.057497e+03	0	5.471945e-04
1.000000e+08	5.434981e+12	0.000000e+00	6.231155e-01	9.147520e+13	1.231256e+15	2.381342e+14	7.563872e+03	4.067526e+03	2.037477e+03	0	5.439000e-04
1.100000e+08	5.339648e+12	0.000000e+00	6.231155e-01	9.037923e+13	1.166285e+15	2.368405e+14	7.560270e+03	4.030389e+03	2.018874e+03	0	5.407011e-04
1.200000e+08	5.248219e+12	0.000000e+00	6.231155e-01	8.932773e+13	1.107815e+15	2.355564e+14	7.556710e+03	3.995783e+03	2.001540e+03	0	5.375972e-04
1.300000e+08	5.160543e+12	0.000000e+00	6.231155e-01	8.831898e+13	1.054969e+15	2.342818e+14	7.553192e+03	3.963454e+03	1.985346e+03	0	5.345867e-04
1.400000e+08	5.076453e+12	0.000000e+00	6.231155e-01	8.735108e+13	1.007014e+15	2.330166e+14	7.549713e+03	3.933178e+03	1.970180e+03	0	5.316671e-04
1.500000e+08	4.995777e+12	0.000000e+00	6.231155e-01	8.642207e+13	9.633369e+14	2.317608e+14	7.546273e+03	3.904763e+03	1.955947e+03	0	5.288356e-04
1.600000e+08	4.918341e+12	0.000000e+00	6.231155e-01	8.552996e+13	9.234185e+14	2.305142e+14	7.542869e+03	3.878039e+03	1.942561e+03	0	5.260890e-04
1.700000e+08	4.843973e+12	0.000000e+00	6.231155e-01	8.467281e+13	8.868180e+14	2.292769e+14	7.539500e+03	3.852858e+03	1.929947e+03	0	5.234239e-04
1.800000e+08	4.772508e+12	0.000000e+00	6.231155e-01	8.384873e+13	8.531585e+14	2.280487e+14	7.536165e+03	3.829087e+03	1.918040e+03	0	5.208371e-04
1.900000e+08	4.703787e+12	0.000000e+00	6.231155e-01	8.305593e+13	8.221163e+14	2.268295e+14	7.532863e+03	3.806609e+03	1.906780e+03	0	5.183251e-04
2.000000e+08	4.637660e+12	0.000000e+00	6.231155e-01	8.229267e+13	7.934121e+14	2.256193e+14	7.529591e+03	3.785321e+03	1.896117e+03	0	5.158847e-04
2.100000e+08	4.573983e+12	0.000000e+00	6.231155e-01	8.155733e+13	7.668035e+14	2.244180e+14	7.526350e+03	3.765131e+03	1.886003e+03	0	5.135127e-04
2.200000e+08	4.512620e+12	0.000000e+00	6.231155e-01	8.084837e+13	7.420796e+14	2.232255e+14	7.523137e+03	3.745953e+03	1.876397e+03	0	5.112060e-04
2.300000e+08	4.453445e+12	0.000000e+00	6.231155e-01	8.016434e+13	7.190560e+14	2.220418e+14	7.519952e+03	3.727714e+03	1.867261e+03	0	5.089616e-04
2.400000e+08	4.396338e+12	0.000000e+00	6.231155e-01	7.950389e+13	6.975707e+14	2.208668e+14	7.516795e+03	3.710345e+03	1.858561e+03	0	5.067768e-04
2.500000e+08	4.341187e+12	0.000000e+00	6.231155e-01	7.886573e+13	6.774810e+14	2.197003e+14	7.513663e+03	3.693786e+03	1.850266e+03	0	5.046487e-04
2.600000e+08	4.287887e+12	0.000000e+00	6.231155e-01	7.824868e+13	6.586608e+14	2.185424e+14	7.510556e+03	3.677981e+03	1.842349e+03	0	5.025749e-04
2.700000e+08	4.236339e+12	0.000000e+00	6.231155e-01	7.765161e+13	6.409985e+14	2.173930e+14	7.507474e+03	3.662879e+03	1.834784e+03	0	5.005529e-04
2.800000e+08	4.186452e+12	0.000000e+00	6.231155e-01	7.707347e+13	6.243944e+14	2.162519e+14	7.504415e+03	3.648435e+03	1.827549e+03	0	4.985803e-04
2.900000e+08	4.138139e+12	0.000000e+00	6.231155e-01	7.651328e+13	6.087598e+14	2.151192e+14	7.501379e+03	3.634605e+03	1.820621e+03	0	4.966549e-04
3.000000e+08	4.091319e+12	0.000000e+00	6.231155e-01	7.597013e+13	5.940153e+14	2.139948e+14	7.498365e+03	3.621352e+03	1.813983e+03	0	4.947747e-04
3.100000e+08	4.045917e+12	0.000000e+00	6.231155e-01	7.544314e+13	5.800897e+14	2.128785e+14	7.495373e+03	3.608640e+03	1.807615e+03	0	4.929377e-04
3.200000e+08	4.001861e+12	0.000000e+00	6.231155e-01	7.493151e+13	5.669189e+14	2.117703e+14	7.492401e+03	3.596437e+03	1.801502e+03	0	4.911419e-04
3.300000e+08	3.959085e+12	0.000000e+00	6.231155e-01	7.443448e+13	5.544451e+14	2.106703e+14	7.489449e+03	3.584712e+03	1.795629e+03	0	4.893857e-04
3.400000e+08	3.917526e+12	0.000000e+00	6.231155e-01	7.395135e+13	5.426162e+14	2.095782e+14	7.486517e+03	3.573438e+03	1.789982e+03	0	4.876673e-04
3.500000e+08	3.877126e+12	0.000000e+00	6.231155e-01	7.348144e+13	5.313848e+14	2.084940e+14	7.483603e+03	3.562589e+03	1.784548e+03	0	4.859852e-04
3.600000e+08	3.837830e+12	0.000000e+00	6.231155e-01	7.302413e+13	5.207080e+14	2.074177e+14	7.480709e+03	3.552142e+03	1.779314e+03	0	4.843377e-04
3.700000e+08	3.799586e+12	0.000000e+00	6.231155e-01	7.257883e+13	5.105469e+14	2.063491e+14	7.477832e+03	3.542075e+03	1.774272e+03	0	4.827235e-04
3.800000e+08	3.762345e+12	0.000000e+00	6.231155e-01	7.214498e+13	5.008658e+14	2.052884e+14	7.474973e+03	3.532366e+03	1.769409e+03	0	4.811412e-04
3.900000e+08	3.726062e+12	0.000000e+00	6.231155e-01	7.172206e+13	4.916324e+14	2.042352e+14	7.472131e+03	3.522998e+03	1.764716e+03	0	4.795895e-04
4.000000e+08	3.690693e+12	0.000000e+00	6.231155e-01	7.130958e+13	4.828167e+14	2.031897e+14	7.469305e+03	3.513953e+03	1.760185e+03	0	4.780672e-04
4.100000e+08	3.656198e+12	0.000000e+00	6.231155e-01	7.090709e+13	4.743918e+14	2.021517e+14	7.466496e+03	3.505213e+03	1.755807e+03	0	4.765732e-04
4.200000e+08	3.622538e+12	0.000000e+00	6.231155e-01	7.051413e+13	4.663326e+14	2.011212e+14	7.463702e+03	3.496765e+03	1.751575e+03	0	4.751062e-04
4.300000e+08	3.589678e+12	0.000000e+00	6.231155e-01	7.013031e+13	4.586161e+14	2.000982e+14	7.460924e+03	3.488592e+03	1.747481e+03	0	4.736652e-04
4.400000e+08	3.557583e+12	0.000000e+00	6.231155e-01	6.975523e+13	4.512212e+14	1.990825e+14	7.458162e+03	3.480682e+03	1.743519e+03	0	4.722493e-04
4.500000e+08	3.526220e+12	0.000000e+00	6.231155e-01	6.938853e+13	4.441284e+14	1.980740e+14	7.455414e+03	3.473022e+03	1.739682e+03	0	4.708575e-04
4.600000e+08	3.495561e+12	0.000000e+00	6.231155e-01	6.902985e+13	4.373198e+14	1.970729e+14	7.452680e+03	3.465601e+03	1.735965e+03	0	4.694889e-04
4.700000e+08	3.465575e+12	0.000000e+00	6.231155e-01	6.867887e+13	4.307787e+14	1.960789e+14	7.449960e+03	3.458406e+03	1.732361e+03	0	4.681426e-04
4.800000e+08	3.436235e+12	0.000000e+00	6.231155e-01	6.833529e+13	4.244896e+14	1.950920e+14	7.447255e+03	3.451429e+03	1.728866e+03	0	4.668177e-04
4.900000e+08	3.407516e+12	0.000000e+00	6.231155e-01	6.799880e+13	4.184384e+14	1.941122e+14	7.444562e+03	3.444658e+03	1.725474e+03	0	4.655136e-04
5.000000e+08	3.379393e+12	0.000000e+00	6.231155e-01	6.766912e+13	4.126118e+14	1.931394e+14	7.441884e+03	3.438084e+03	1.722181e+03	0	4.642294e-04
5.100000e+08	3.351843e+12	0.000000e+00	6.231155e-01	6.734599e+13	4.069973e+14	1.921736e+14	7.439218e+03	3.431700e+03	1.718983e+03	0	4.629644e-04
5.200000e+08	3.324844e+12	0.000000e+00	6.231155e-01	6.702917e+13	4.015837e+14	1.912146e+14	7.436564e+03	3.425496e+03	1.715876e+03	0	4.617180e-04
5.300000e+08	3.298374e+12	0.000000e+00	6.231155e-01	6.671840e+13	3.963601e+14	1.902625e+14	7.433924e+03	3.419465e+03	1.712855e+03	0	4.604894e-04
5.400000e+08	3.272415e+12	0.000000e+00	6.231155e-01	6.641348e+13	3.913167e+14	1.893171e+14	7.431295e+03	3.413599e+03	1.709917e+03	0	4.592782e-04
5.500000e+08	3.246946e+12	0.000000e+00	6.231155e-01	6.611417e+13	3.864442e+14	1.883785e+14	7.428678e+03	3.407892e+03	1.707058e+03	0	4.580836e-04
5.600000e+08	3.221951e+12	0.000000e+00	6.231155e-01	6.582027e+13	3.817338e+14	1.874466e+14	7.426074e+03	3.402337e+03	1.704275e+03	0	4.569051e-04
5.700000e+08	3.197411e+12	0.000000e+00	6.231155e-01	6.553160e+13	3.771774e+14	1.865213e+14	7.423480e+03	3.396927e+03	1.701565e+03	0	4.557421e-04
5.800000e+08	3.173312e+12	0.000000e+00	6.231155e-01	6.524796e+13	3.727675e+14	1.856025e+14	7.420899e+03	3.391658e+03	1.698926e+03	0	4.545942e-04
5.900000e+08	3.149636e+12	0.000000e+00	6.231155e-01	6.496918e+13	3.684968e+14	1.846903e+14	7.418328e+03	3.386522e+03	1.696353e+03	0	4.534609e-04
6.000000e+08	3.126370e+12	0.000000e+00	6.231155e-01	6.469508e+13	3.643588e+14	1.837845e+14	7.415768e+03	3.381515e+03	1.693845e+03	0	4.523416e-04
6.100000e+08	3.103499e+12	0.000000e+00	6.231155e-01	6.442552e+13	3.603471e+14	1.828851e+14	7.413219e+03	3.376632e+03	1.691399e+03	0	4.512358e-04
6.200000e+08	3.081011e+12	0.000000e+00	6.231155e-01	6.416033e+13	3.564558e+14	1.819921e+14	7.410681e+03	3.371868e+03	1.689013e+03	0	4.501433e-04
6.300000e+08	3.058891e+12	0.000000e+00	6.231155e-01	6.389937e+13	3.526794e+14	1.811054e+14	7.408153e+03	3.367218e+03	1.686684e+03	0	4.490634e-04
6.400000e+08	3.037128e+12	0.000000e+00	6.231155e-01	6.364250e+13	3.490126e+14	1.802249e+14	7.405636e+03	3.362679e+03	1.684410e+03	0	4.479959e-04
6.500000e+08	3.015710e+12	0.000000e+00	6.231155e-01	6.338959e+13	3.454506e+14	1.793507e+14	7.403128e+03	3.358245e+03	1.682189e+03	0	4.469404e-04
6.600000e+08	2.994627e+12	0.000000e+00	6.231155e-01	6.314050e+13	3.419886e+14	1.784825e+14	7.400631e+03	3.353913e+03	1.680019e+03	0	4.458964e-04
6.700000e+08	2.973866e+12	0.000000e+00	6.231155e-01	6.289512e+13	3.386224e+14	1.776205e+14	7.398143e+03	3.349680e+03	1.677898e+03	0	4.448636e-04
6.800000e+08	2.953419e+12	0.000000e+00	6.231155e-01	6.265334e+13	3.353477e+14	1.767646e+14	7.395665e+03	3.345541e+03	1.675825e+03	0	4.438416e-04
6.900000e+08	2.933274e+12	0.000000e+00	6.231155e-01	6.241503e+13	3.321607e+14	1.759146e+14	7.393196e+03	3.341493e+03	1.673798e+03	0	4.428302e-04
7.000000e+08	2.913424e+12	0.000000e+00	6.231155e-01	6.218009e+13	3.290577e+14	1.750706e+14	7.390737e+03	3.337534e+03	1.671814e+03	0	4.418290e-04
7.100000e+08	2.893858e+12	0.000000e+00	6.231155e-01	6.194842e+13	3.260352e+14	1.742326e+14	7.388287e+03	3.333659e+03	1.669873e+03	0	4.408378e-04
7.200000e+08	2.874569e+12	0.000000e+00	6.231155e-01	6.171992e+13	3.230899e+14	1.734003e+14	7.385847e+03	3.329866e+03	1.667973e+03	0	4.398561e-04
7.300000e+08	2.855548e+12	0.000000e+00	6.231155e-01	6.149450e+13	3.202186e+14	1.725739e+14	7.383415e+03	3.326152e+03	1.666113e+03	0	4.388837e-04
7.400000e+08	2.836787e+12	0.000000e+00	6.231155e-01	6.127206e+13	3.174184e+14	1.717533e+14	7.380992e+03	3.322514e+03	1.664291e+03	0	4.379205e-04
7.500000e+08	2.818278e+12	0.000000e+00	6.231155e-01	6.105252e+13	3.146865e+14	1.709384e+14	7.378578e+03	3.318950e+03	1.662506e+03	0	4.369660e-04
7.600000e+08	2.800014e+12	0.000000e+00	6.231155e-01	6.083580e+13	3.120201e+14	1.701292e+14	7.376172e+03	3.315458e+03	1.660756e+03	0	4.360200e-04
7.700000e+08	2.781989e+12	0.000000e+00	6.231155e-01	6.062182e+13	3.094168e+14	1.693255e+14	7.373775e+03	3.312034e+03	1.659041e+03	0	4.350824e-04
7.800000e+08	2.764196e+12	0.000000e+00	6.231155e-01	6.041050e+13	3.068742e+14	1.685275e+14	7.371387e+03	3.308677e+03	1.657359e+03	0	4.341528e-04
7.900000e+08	2.746627e+12	0.000000e+00	6.231155e-01	6.020177e+13	3.043899e+14	1.677350e+14	7.369007e+03	3.305384e+03	1.655710e+03	0	4.332311e-04
8.000000e+08	2.729277e+12	0.000000e+00	6.231155e-01	5.999555e+13	3.019617e+14	1.669481e+14	7.366635e+03	3.302153e+03	1.654092e+03	0	4.323169e-04
8.100000e+08	2.712141e+12	0.000000e+00	6.231155e-01	5.979178e+13	2.995876e+14	1.661665e+14	7.364271e+03	3.298983e+03	1.652504e+03	0	4.314102e-04
8.200000e+08	2.695211e+12	0.000000e+00	6.231155e-01	5.959039e+13	2.972657e+14	1.653904e+14	7.361915e+03	3.295871e+03	1.650945e+03	0	4.305107e-04
8.300000e+08	2.678483e+12	0.000000e+00	6.231155e-01	5.939132e+13	2.949940e+14	1.646197e+14	7.359567e+03	3.292815e+03	1.649414e+03	0	4.296182e-04
8.400000e+08	2.661952e+12	0.000000e+00	6.231155e-01	5.919451e+13	2.927707e+14	1.638542e+14	7.357227e+03	3.289814e+03	1.647911e+03	0	4.287325e-04
8.500000e+08	2.645611e+12	0.000000e+00	6.231155e-01	5.899990e+13	2.905941e+14	1.630941e+14	7.354894e+03	3.286866e+03	1.646434e+03	0	4.278535e-04
8.600000e+08	2.629458e+12	0.000000e+00	6.231155e-01	5.880744e+13	2.884626e+14	1.623392e+14	7.352570e+03	3.283969e+03	1.644983e+03	0	4.269809e-04
8.700000e+08	2.613485e+12	0.000000e+00	6.231155e-01	5.861707e+13	2.863746e+14	1.615894e+14	7.350253e+03	3.281122e+03	1.643557e+03	0	4.261146e-04
8.800000e+08	2.597690e+12	0.000000e+00	6.231155e-01	5.842873e+13	2.843287e+14	1.608449e+14	7.347943e+03	3.278324e+03	1.642155e+03	0	4.252544e-04
8.900000e+08	2.582067e+12	0.000000e+00	6.231155e-01	5.824239e+13	2.823234e+14	1.601054e+14	7.345641e+03	3.275572e+03	1.640777e+03	0	4.244002e-04
9.000000e+08	2.566613e+12	0.000000e+00	6.231155e-01	5.805798e+13	2.803573e+14	1.593711e+14	7.343346e+03	3.272865e+03	1.639421e+03	0	4.235518e-04
9.100000e+08	2.551323e+12	0.000000e+00	6.231155e-01	5.787547e+13	2.784292e+14	1.586417e+14	7.341058e+03	3.270203e+03	1.638087e+03	0	4.227090e-04
9.200000e+08	2.536194e+12	0.000000e+00	6.231155e-01	5.769480e+13	2.765378e+14	1.579174e+14	7.338778e+03	3.267583e+03	1.636775e+03	0	4.218718e-04
9.300000e+08	2.521220e+12	0.000000e+00	6.231155e-01	5.751594e+13	2.746819e+14	1.571980e+14	7.336504e+03	3.265005e+03	1.635484e+03	0	4.210399e-04
9.400000e+08	2.506400e+12	0.000000e+00	6.231155e-01	5.733884e+13	2.728604e+14	1.564836e+14	7.334238e+03	3.262467e+03	1.634212e+03	0	4.202133e-04
9.500000e+08	2.491729e+12	0.000000e+00	6.231155e-01	5.716346e+13	2.710722e+14	1.557740e+14	7.331979e+03	3.259968e+03	1.632960e+03	0	4.193918e-04
9.600000e+08	2.477204e+12	0.000000e+00	6.231155e-01	5.698977e+13	2.693163e+14	1.550692e+14	7.329727e+03	3.257507e+03	1.631728e+03	0	4.185753e-04
9.700000e+08	2.462822e+12	0.000000e+00	6.231155e-01	5.681772e+13	2.675915e+14	1.543693e+14	7.327481e+03	3.255083e+03	1.630514e+03	0	4.177637e-04
9.800000e+08	2.448579e+12	0.000000e+00	6.231155e-01	5.664728e+13	2.658971e+14	1.536741e+14	7.325242e+03	3.252695e+03	1.629317e+03	0	4.169568e-04
9.900000e+08	2.434472e+12	0.000000e+00	6.231155e-01	5.647841e+13	2.642320e+14	1.529836e+14	7.323010e+03	3.250341e+03	1.628139e+03	0	4.161545e-04
1.000000e+09	2.420498e+12	0.000000e+00	6.231155e-01	5.631107e+13	2.625953e+14	1.522978e+14	7.320785e+03	3.248022e+03	1.626977e+03	0	4.153568e-04
1.010000e+09	2.406655e+12	0.000000e+00	6.231155e-01	5.614525e+13	2.609863e+14	1.516167e+14	7.318566e+03	3.245736e+03	1.625831e+03	0	4.145634e-04
1.020000e+09	2.392939e+12	0.000000e+00	6.231155e-01	5.598089e+13	2.594041e+14	1.509402e+14	7.316354e+03	3.243481e+03	1.624702e+03	0	4.137744e-04
1.030000e+09	2.379349e+12	0.000000e+00	6.231155e-01	5.581798e+13	2.578479e+14	1.502683e+14	7.314148e+03	3.241258e+03	1.623589e+03	0	4.129895e-04
1.040000e+09	2.365880e+12	0.000000e+00	6.231155e-01	5.565649e+13	2.563169e+14	1.496009e+14	7.311948e+03	3.239065e+03	1.622490e+03	0	4.122088e-04
1.050000e+09	2.352531e+12	0.000000e+00	6.231155e-01	5.549637e+13	2.548106e+14	1.489380e+14	7.309755e+03	3.236902e+03	1.621407e+03	0	4.114321e-04
1.060000e+09	2.339299e+12	0.000000e+00	6.231155e-01	5.533761e+13	2.533280e+14	1.482796e+14	7.307568e+03	3.234768e+03	1.620338e+03	0	4.106593e-04
1.070000e+09	2.326183e+12	0.000000e+00	6.231155e-01	5.518018e+13	2.518686e+14	1.476256e+14	7.305388e+03	3.232662e+03	1.619282e+03	0	4.098903e-04
1.080000e+09	2.313178e+12	0.000000e+00	6.231155e-01	5.502405e+13	2.504318e+14	1.469760e+14	7.303214e+03	3.230582e+03	1.618241e+03	0	4.091250e-04
1.090000e+09	2.300284e+12	0.000000e+00	6.231155e-01	5.486919e+13	2.490168e+14	1.463308e+14	7.301046e+03	3.228530e+03	1.617213e+03	0	4.083634e-04
1.100000e+09	2.287498e+12	0.000000e+00	6.231155e-01	5.471559e+13	2.476232e+14	1.456899e+14	7.298883e+03	3.226503e+03	1.616198e+03	0	4.076054e-04
1.110000e+09	2.274819e+12	0.000000e+00	6.231155e-01	5.456321e+13	2.462503e+14	1.450534e+14	7.296727e+03	3.224502e+03	1.615195e+03	0	4.068509e-04
1.120000e+09	2.262243e+12	0.000000e+00	6.231155e-01	5.441204e+13	2.448976e+14	1.444210e+14	7.294577e+03	3.222525e+03	1.614205e+03	0	4.060998e-04
1.130000e+09	2.249769e+12	0.000000e+00	6.231155e-01	5.426204e+13	2.435645e+14	1.437930e+14	7.292433e+03	3.220572e+03	1.613227e+03	0	4.053520e-04
1.140000e+09	2.237395e+12	0.000000e+00	6.231155e-01	5.411321e+13	2.422506e+14	1.431691e+14	7.290295e+03	3.218643e+03	1.612260e+03	0	4.046075e-04
1.150000e+09	2.225120e+12	0.000000e+00	6.231155e-01	5.396551e+13	2.409552e+14	1.425493e+14	7.288163e+03	3.216736e+03	1.611305e+03	0	4.038662e-04
1.160000e+09	2.212940e+12	0.000000e+00	6.231155e-01	5.381893e+13	2.396781e+14	1.419338e+14	7.286036e+03	3.214852e+03	1.610361e+03	0	4.031280e-04
1.170000e+09	2.200856e+12	0.000000e+00	6.231155e-01	5.367345e+13	2.384186e+14	1.413223e+14	7.283916e+03	3.212989e+03	1.609428e+03	0	4.023928e-04
1.180000e+09	2.188865e+12	0.000000e+00	6.231155e-01	5.352905e+13	2.371764e+14	1.407149e+14	7.281801e+03	3.211148e+03	1.608506e+03	0	4.016607e-04
1.190000e+09	2.176964e+12	0.000000e+00	6.231155e-01	5.338570e+13	2.359510e+14	1.401115e+14	7.279691e+03	3.209327e+03	1.607594e+03	0	4.009315e-04
1.200000e+09	2.165154e+12	0.000000e+00	6.231155e-01	5.324340e+13	2.347420e+14	1.395121e+14	7.277588e+03	3.207526e+03	1.606692e+03	0	4.002051e-04
1.210000e+09	2.153432e+12	0.000000e+00	6.231155e-01	5.310211e+13	2.335490e+14	1.389167e+14	7.275490e+03	3.205746e+03	1.605800e+03	0	3.994815e-04
1.220000e+09	2.141796e+12	0.000000e+00	6.231155e-01	5.296183e+13	2.323716e+14	1.383252e+14	7.273397e+03	3.203984e+03	1.604917e+03	0	3.987607e-04
1.230000e+09	2.130245e+12	0.000000e+00	6.231155e-01	5.282254e+13	2.312095e+14	1.377377e+14	7.271310e+03	3.202241e+03	1.604044e+03	0	3.980426e-04
1.240000e+09	2.118778e+12	0.000000e+00	6.231155e-01	5.268422e+13	2.300622e+14	1.371541e+14	7.269229e+03	3.200516e+03	1.603181e+03	0	3.973271e-04
1.250000e+09	2.107394e+12	0.000000e+00	6.231155e-01	5.254686e+13	2.289294e+14	1.365742e+14	7.267153e+03	3.198810e+03	1.602326e+03	0	3.966142e-04
1.260000e+09	2.096090e+12	0.000000e+00	6.231155e-01	5.241043e+13	2.278109e+14	1.359983e+14	7.265082e+03	3.197121e+03	1.601480e+03	0	3.959038e-04
1.270000e+09	2.084866e+12	0.000000e+00	6.231155e-01	5.227493e+13	2.267062e+14	1.354261e+14	7.263017e+03	3.195449e+03	1.600642e+03	0	3.951959e-04
1.280000e+09	2.073721e+12	0.000000e+00	6.231155e-01	5.214034e+13	2.256150e+14	1.348577e+14	7.260957e+03	3.193794e+03	1.599813e+03	0	3.944904e-04
1.290000e+09	2.062652e+12	0.000000e+00	6.231155e-01	5.200665e+13	2.245370e+14	1.342930e+14	7.258902e+03	3.192155e+03	1.598992e+03	0	3.937873e-04
1.300000e+09	2.051659e+12	0.000000e+00	6.231155e-01	5.187384e+13	2.234720e+14	1.337320e+14	7.256853e+03	3.190532e+03	1.598179e+03	0	3.930865e-04
1.310000e+09	2.040741e+12	0.000000e+00	6.231155e-01	5.174189e+13	2.224196e+14	1.331747e+14	7.254809e+03	3.188925e+03	1.597374e+03	0	3.923880e-04
1.320000e+09	2.029897e+12	0.000000e+00	6.231155e-01	5.161080e+13	2.213796e+14	1.326210e+14	7.252770e+03	3.187333e+03	1.596577e+03	0	3.916917e-04
1.330000e+09	2.019125e+12	0.000000e+00	6.231155e-01	5.148055e+13	2.203517e+14	1.320710e+14	7.250736e+03	3.185757e+03	1.595787e+03	0	3.909976e-04
1.340000e+09	2.008424e+12	0.000000e+00	6.231155e-01	5.135114e+13	2.193357e+14	1.315246e+14	7.248708e+03	3.184194e+03	1.595005e+03	0	3.903056e-04
1.350000e+09	1.997793e+12	0.000000e+00	6.231155e-01	5.122253e+13	2.183312e+14	1.309817e+14	7.246684e+03	3.182647e+03	1.594229e+03	0	3.896158e-04
1.360000e+09	1.987232e+12	0.000000e+00	6.231155e-01	5.109474e+13	2.173380e+14	1.304423e+14	7.244666e+03	3.181113e+03	1.593461e+03	0	3.889280e-04
