#t		Qconv[W]	Ri[Rp]		R*[Rp]		Qc[W]		Qm[W]		Qr[W]		Tcmb[K]		Tl[K]		Tup[K]		RiFlag		Bs[T]
0.000000e+00	1.117063e+13	0.000000e+00	6.180905e-01	1.778805e+14	3.143167e+15	3.321158e+14	9.229325e+03	5.483357e+03	2.457127e+03	0	6.883959e-04
1.000000e+07	1.096462e+13	0.000000e+00	6.180905e-01	1.757975e+14	2.890141e+15	3.302756e+14	9.224450e+03	5.398361e+03	2.419040e+03	0	6.841377e-04
2.000000e+07	1.075707e+13	0.000000e+00	6.180905e-01	1.736996e+14	2.671997e+15	3.284492e+14	9.219631e+03	5.321204e+03	2.384465e+03	0	6.797935e-04
3.000000e+07	1.055106e+13	0.000000e+00	6.180905e-01	1.716173e+14	2.482437e+15	3.266365e+14	9.214870e+03	5.250817e+03	2.352924e+03	0	6.754258e-04
4.000000e+07	1.034858e+13	0.000000e+00	6.180905e-01	1.695707e+14	2.316531e+15	3.248372e+14	9.210166e+03	5.186317e+03	2.324022e+03	0	6.710775e-04
5.000000e+07	1.015092e+13	0.000000e+00	6.180905e-01	1.675723e+14	2.170377e+15	3.230514e+14	9.205518e+03	5.126973e+03	2.297429e+03	0	6.667773e-04
6.000000e+07	9.958826e+12	0.000000e+00	6.180905e-01	1.656296e+14	2.040851e+15	3.212790e+14	9.200925e+03	5.072172e+03	2.272872e+03	0	6.625446e-04
7.000000e+07	9.772744e+12	0.000000e+00	6.180905e-01	1.637471e+14	1.925434e+15	3.195197e+14	9.196385e+03	5.021395e+03	2.250119e+03	0	6.583920e-04
8.000000e+07	9.592865e+12	0.000000e+00	6.180905e-01	1.619266e+14	1.822069e+15	3.177735e+14	9.191896e+03	4.974203e+03	2.228972e+03	0	6.543275e-04
9.000000e+07	9.419229e+12	0.000000e+00	6.180905e-01	1.601686e+14	1.729068e+15	3.160402e+14	9.187457e+03	4.930219e+03	2.209262e+03	0	6.503555e-04
1.000000e+08	9.251767e+12	0.000000e+00	6.180905e-01	1.584722e+14	1.645032e+15	3.143199e+14	9.183067e+03	4.889118e+03	2.190845e+03	0	6.464783e-04
1.100000e+08	9.090339e+12	0.000000e+00	6.180905e-01	1.568362e+14	1.568793e+15	3.126123e+14	9.178722e+03	4.850618e+03	2.173592e+03	0	6.426962e-04
1.200000e+08	8.934762e+12	0.000000e+00	6.180905e-01	1.552586e+14	1.499374e+15	3.109174e+14	9.174423e+03	4.814474e+03	2.157396e+03	0	6.390086e-04
1.300000e+08	8.784821e+12	0.000000e+00	6.180905e-01	1.537374e+14	1.435945e+15	3.092350e+14	9.170167e+03	4.780472e+03	2.142160e+03	0	6.354138e-04
1.400000e+08	8.640288e+12	0.000000e+00	6.180905e-01	1.522702e+14	1.377804e+15	3.075651e+14	9.165952e+03	4.748423e+03	2.127798e+03	0	6.319098e-04
1.500000e+08	8.500928e+12	0.000000e+00	6.180905e-01	1.508547e+14	1.324349e+15	3.059075e+14	9.161778e+03	4.718160e+03	2.114237e+03	0	6.284940e-04
1.600000e+08	8.366505e+12	0.000000e+00	6.180905e-01	1.494886e+14	1.275063e+15	3.042621e+14	9.157642e+03	4.689535e+03	2.101411e+03	0	6.251637e-04
1.700000e+08	8.236786e+12	0.000000e+00	6.180905e-01	1.481696e+14	1.229501e+15	3.026289e+14	9.153544e+03	4.662417e+03	2.089259e+03	0	6.219159e-04
1.800000e+08	8.111544e+12	0.000000e+00	6.180905e-01	1.468952e+14	1.187277e+15	3.010078e+14	9.149481e+03	4.636688e+03	2.077729e+03	0	6.187476e-04
1.900000e+08	7.990561e+12	0.000000e+00	6.180905e-01	1.456635e+14	1.148053e+15	2.993986e+14	9.145454e+03	4.612242e+03	2.066775e+03	0	6.156560e-04
2.000000e+08	7.873626e+12	0.000000e+00	6.180905e-01	1.444723e+14	1.111536e+15	2.978012e+14	9.141461e+03	4.588985e+03	2.056353e+03	0	6.126380e-04
2.100000e+08	7.760539e+12	0.000000e+00	6.180905e-01	1.433195e+14	1.077468e+15	2.962156e+14	9.137500e+03	4.566830e+03	2.046426e+03	0	6.096908e-04
2.200000e+08	7.651110e+12	0.000000e+00	6.180905e-01	1.422033e+14	1.045621e+15	2.946416e+14	9.133570e+03	4.545701e+03	2.036957e+03	0	6.068116e-04
2.300000e+08	7.545157e+12	0.000000e+00	6.180905e-01	1.411219e+14	1.015794e+15	2.930791e+14	9.129672e+03	4.525526e+03	2.027917e+03	0	6.039975e-04
2.400000e+08	7.442511e+12	0.000000e+00	6.180905e-01	1.400736e+14	9.878086e+14	2.915282e+14	9.125802e+03	4.506243e+03	2.019276e+03	0	6.012460e-04
2.500000e+08	7.343008e+12	0.000000e+00	6.180905e-01	1.390568e+14	9.615067e+14	2.899885e+14	9.121962e+03	4.487792e+03	2.011008e+03	0	5.985545e-04
2.600000e+08	7.246497e+12	0.000000e+00	6.180905e-01	1.380698e+14	9.367468e+14	2.884602e+14	9.118149e+03	4.470121e+03	2.003090e+03	0	5.959206e-04
2.700000e+08	7.152833e+12	0.000000e+00	6.180905e-01	1.371114e+14	9.134023e+14	2.869430e+14	9.114364e+03	4.453181e+03	1.995499e+03	0	5.933420e-04
2.800000e+08	7.061881e+12	0.000000e+00	6.180905e-01	1.361801e+14	8.913599e+14	2.854369e+14	9.110604e+03	4.436927e+03	1.988215e+03	0	5.908163e-04
2.900000e+08	6.973511e+12	0.000000e+00	6.180905e-01	1.352747e+14	8.705174e+14	2.839418e+14	9.106871e+03	4.421317e+03	1.981220e+03	0	5.883416e-04
3.000000e+08	6.887604e+12	0.000000e+00	6.180905e-01	1.343939e+14	8.507830e+14	2.824576e+14	9.103161e+03	4.406315e+03	1.974498e+03	0	5.859156e-04
3.100000e+08	6.804045e+12	0.000000e+00	6.180905e-01	1.335367e+14	8.320734e+14	2.809842e+14	9.099477e+03	4.391885e+03	1.968032e+03	0	5.835366e-04
3.200000e+08	6.722727e+12	0.000000e+00	6.180905e-01	1.327019e+14	8.143135e+14	2.795215e+14	9.095815e+03	4.377995e+03	1.961807e+03	0	5.812026e-04
3.300000e+08	6.643549e+12	0.000000e+00	6.180905e-01	1.318885e+14	7.974351e+14	2.780695e+14	9.092177e+03	4.364614e+03	1.955811e+03	0	5.789118e-04
3.400000e+08	6.566415e+12	0.000000e+00	6.180905e-01	1.310956e+14	7.813759e+14	2.766280e+14	9.088560e+03	4.351715e+03	1.950031e+03	0	5.766626e-04
3.500000e+08	6.491234e+12	0.000000e+00	6.180905e-01	1.303223e+14	7.660794e+14	2.751970e+14	9.084966e+03	4.339273e+03	1.944456e+03	0	5.744534e-04
3.600000e+08	6.417921e+12	0.000000e+00	6.180905e-01	1.295677e+14	7.514939e+14	2.737763e+14	9.081392e+03	4.327263e+03	1.939074e+03	0	5.722825e-04
3.700000e+08	6.346396e+12	0.000000e+00	6.180905e-01	1.288310e+14	7.375724e+14	2.723659e+14	9.077840e+03	4.315663e+03	1.933876e+03	0	5.701486e-04
3.800000e+08	6.276583e+12	0.000000e+00	6.180905e-01	1.281114e+14	7.242713e+14	2.709658e+14	9.074307e+03	4.304452e+03	1.928852e+03	0	5.680503e-04
3.900000e+08	6.208409e+12	0.000000e+00	6.180905e-01	1.274084e+14	7.115512e+14	2.695757e+14	9.070794e+03	4.293610e+03	1.923994e+03	0	5.659862e-04
4.000000e+08	6.141807e+12	0.000000e+00	6.180905e-01	1.267210e+14	6.993754e+14	2.681957e+14	9.067301e+03	4.283120e+03	1.919293e+03	0	5.639550e-04
4.100000e+08	6.076711e+12	0.000000e+00	6.180905e-01	1.260488e+14	6.877105e+14	2.668257e+14	9.063826e+03	4.272965e+03	1.914743e+03	0	5.619555e-04
4.200000e+08	6.013062e+12	0.000000e+00	6.180905e-01	1.253911e+14	6.765253e+14	2.654655e+14	9.060370e+03	4.263128e+03	1.910335e+03	0	5.599866e-04
4.300000e+08	5.950800e+12	0.000000e+00	6.180905e-01	1.247474e+14	6.657914e+14	2.641151e+14	9.056931e+03	4.253594e+03	1.906063e+03	0	5.580471e-04
4.400000e+08	5.889872e+12	0.000000e+00	6.180905e-01	1.241170e+14	6.554823e+14	2.627745e+14	9.053511e+03	4.244350e+03	1.901920e+03	0	5.561360e-04
4.500000e+08	5.830225e+12	0.000000e+00	6.180905e-01	1.234994e+14	6.455735e+14	2.614434e+14	9.050107e+03	4.235383e+03	1.897902e+03	0	5.542523e-04
4.600000e+08	5.771809e+12	0.000000e+00	6.180905e-01	1.228942e+14	6.360424e+14	2.601219e+14	9.046721e+03	4.226679e+03	1.894001e+03	0	5.523949e-04
4.700000e+08	5.714578e+12	0.000000e+00	6.180905e-01	1.223010e+14	6.268679e+14	2.588099e+14	9.043351e+03	4.218227e+03	1.890214e+03	0	5.505631e-04
4.800000e+08	5.658487e+12	0.000000e+00	6.180905e-01	1.217191e+14	6.180303e+14	2.575073e+14	9.039997e+03	4.210016e+03	1.886535e+03	0	5.487558e-04
4.900000e+08	5.603493e+12	0.000000e+00	6.180905e-01	1.211483e+14	6.095116e+14	2.562141e+14	9.036660e+03	4.202036e+03	1.882959e+03	0	5.469723e-04
5.000000e+08	5.549557e+12	0.000000e+00	6.180905e-01	1.205882e+14	6.012948e+14	2.549300e+14	9.033338e+03	4.194277e+03	1.879482e+03	0	5.452117e-04
5.100000e+08	5.496640e+12	0.000000e+00	6.180905e-01	1.200382e+14	5.933640e+14	2.536552e+14	9.030031e+03	4.186729e+03	1.876100e+03	0	5.434732e-04
5.200000e+08	5.444706e+12	0.000000e+00	6.180905e-01	1.194982e+14	5.857045e+14	2.523894e+14	9.026739e+03	4.179384e+03	1.872808e+03	0	5.417561e-04
5.300000e+08	5.393719e+12	0.000000e+00	6.180905e-01	1.189676e+14	5.783026e+14	2.511327e+14	9.023462e+03	4.172233e+03	1.869604e+03	0	5.400598e-04
5.400000e+08	5.343647e+12	0.000000e+00	6.180905e-01	1.184463e+14	5.711452e+14	2.498849e+14	9.020200e+03	4.165269e+03	1.866483e+03	0	5.383833e-04
5.500000e+08	5.294457e+12	0.000000e+00	6.180905e-01	1.179338e+14	5.642203e+14	2.486460e+14	9.016952e+03	4.158483e+03	1.863443e+03	0	5.367263e-04
5.600000e+08	5.246120e+12	0.000000e+00	6.180905e-01	1.174299e+14	5.575167e+14	2.474159e+14	9.013718e+03	4.151870e+03	1.860479e+03	0	5.350879e-04
5.700000e+08	5.198608e+12	0.000000e+00	6.180905e-01	1.169343e+14	5.510236e+14	2.461946e+14	9.010498e+03	4.145422e+03	1.857590e+03	0	5.334676e-04
5.800000e+08	5.151891e+12	0.000000e+00	6.180905e-01	1.164467e+14	5.447312e+14	2.449819e+14	9.007291e+03	4.139133e+03	1.854772e+03	0	5.318648e-04
5.900000e+08	5.105945e+12	0.000000e+00	6.180905e-01	1.159669e+14	5.386300e+14	2.437778e+14	9.004098e+03	4.132996e+03	1.852022e+03	0	5.302790e-04
6.000000e+08	5.060743e+12	0.000000e+00	6.180905e-01	1.154946e+14	5.327113e+14	2.425822e+14	9.000918e+03	4.127006e+03	1.849338e+03	0	5.287095e-04
6.100000e+08	5.016263e+12	0.000000e+00	6.180905e-01	1.150295e+14	5.269667e+14	2.413951e+14	8.997751e+03	4.121158e+03	1.846717e+03	0	5.271560e-04
6.200000e+08	4.972481e+12	0.000000e+00	6.180905e-01	1.145715e+14	5.213884e+14	2.402164e+14	8.994596e+03	4.115446e+03	1.844157e+03	0	5.256178e-04
6.300000e+08	4.929374e+12	0.000000e+00	6.180905e-01	1.141203e+14	5.159691e+14	2.390460e+14	8.991454e+03	4.109865e+03	1.841657e+03	0	5.240945e-04
6.400000e+08	4.886923e+12	0.000000e+00	6.180905e-01	1.136756e+14	5.107018e+14	2.378839e+14	8.988325e+03	4.104410e+03	1.839212e+03	0	5.225857e-04
6.500000e+08	4.845107e+12	0.000000e+00	6.180905e-01	1.132374e+14	5.055800e+14	2.367299e+14	8.985208e+03	4.099078e+03	1.836823e+03	0	5.210909e-04
6.600000e+08	4.803906e+12	0.000000e+00	6.180905e-01	1.128054e+14	5.005975e+14	2.355840e+14	8.982102e+03	4.093862e+03	1.834486e+03	0	5.196096e-04
6.700000e+08	4.763302e+12	0.000000e+00	6.180905e-01	1.123794e+14	4.957483e+14	2.344463e+14	8.979009e+03	4.088761e+03	1.832200e+03	0	5.181415e-04
6.800000e+08	4.723278e+12	0.000000e+00	6.180905e-01	1.119592e+14	4.910270e+14	2.333165e+14	8.975927e+03	4.083768e+03	1.829962e+03	0	5.166862e-04
6.900000e+08	4.683815e+12	0.000000e+00	6.180905e-01	1.115447e+14	4.864284e+14	2.321946e+14	8.972857e+03	4.078881e+03	1.827773e+03	0	5.152432e-04
7.000000e+08	4.644899e+12	0.000000e+00	6.180905e-01	1.111357e+14	4.819473e+14	2.310806e+14	8.969798e+03	4.074097e+03	1.825629e+03	0	5.138123e-04
7.100000e+08	4.606513e+12	0.000000e+00	6.180905e-01	1.107321e+14	4.775792e+14	2.299744e+14	8.966750e+03	4.069411e+03	1.823529e+03	0	5.123929e-04
7.200000e+08	4.568642e+12	0.000000e+00	6.180905e-01	1.103337e+14	4.733195e+14	2.288759e+14	8.963713e+03	4.064820e+03	1.821472e+03	0	5.109849e-04
7.300000e+08	4.531272e+12	0.000000e+00	6.180905e-01	1.099403e+14	4.691640e+14	2.277851e+14	8.960688e+03	4.060321e+03	1.819456e+03	0	5.095879e-04
7.400000e+08	4.494388e+12	0.000000e+00	6.180905e-01	1.095519e+14	4.651087e+14	2.267019e+14	8.957673e+03	4.055911e+03	1.817480e+03	0	5.082015e-04
7.500000e+08	4.457978e+12	0.000000e+00	6.180905e-01	1.091682e+14	4.611497e+14	2.256263e+14	8.954668e+03	4.051588e+03	1.815542e+03	0	5.068254e-04
7.600000e+08	4.422029e+12	0.000000e+00	6.180905e-01	1.087892e+14	4.572834e+14	2.245582e+14	8.951674e+03	4.047348e+03	1.813642e+03	0	5.054594e-04
7.700000e+08	4.386528e+12	0.000000e+00	6.180905e-01	1.084147e+14	4.535063e+14	2.234975e+14	8.948691e+03	4.043188e+03	1.811778e+03	0	5.041031e-04
7.800000e+08	4.351463e+12	0.000000e+00	6.180905e-01	1.080446e+14	4.498152e+14	2.224441e+14	8.945718e+03	4.039107e+03	1.809949e+03	0	5.027562e-04
7.900000e+08	4.316822e+12	0.000000e+00	6.180905e-01	1.076788e+14	4.462068e+14	2.213981e+14	8.942755e+03	4.035101e+03	1.808154e+03	0	5.014186e-04
8.000000e+08	4.282596e+12	0.000000e+00	6.180905e-01	1.073172e+14	4.426783e+14	2.203594e+14	8.939802e+03	4.031169e+03	1.806392e+03	0	5.000899e-04
8.100000e+08	4.248772e+12	0.000000e+00	6.180905e-01	1.069597e+14	4.392267e+14	2.193278e+14	8.936859e+03	4.027307e+03	1.804662e+03	0	4.987698e-04
8.200000e+08	4.215342e+12	0.000000e+00	6.180905e-01	1.066062e+14	4.358493e+14	2.183034e+14	8.933925e+03	4.023515e+03	1.802962e+03	0	4.974582e-04
8.300000e+08	4.182294e+12	0.000000e+00	6.180905e-01	1.062565e+14	4.325435e+14	2.172860e+14	8.931002e+03	4.019789e+03	1.801293e+03	0	4.961548e-04
8.400000e+08	4.149620e+12	0.000000e+00	6.180905e-01	1.059106e+14	4.293069e+14	2.162757e+14	8.928088e+03	4.016128e+03	1.799652e+03	0	4.948594e-04
8.500000e+08	4.117310e+12	0.000000e+00	6.180905e-01	1.055684e+14	4.261370e+14	2.152724e+14	8.925183e+03	4.012529e+03	1.798040e+03	0	4.935717e-04
8.600000e+08	4.085355e+12	0.000000e+00	6.180905e-01	1.052298e+14	4.230317e+14	2.142759e+14	8.922288e+03	4.008992e+03	1.796455e+03	0	4.922915e-04
8.700000e+08	4.053747e+12	0.000000e+00	6.180905e-01	1.048948e+14	4.199887e+14	2.132864e+14	8.919402e+03	4.005514e+03	1.794896e+03	0	4.910186e-04
8.800000e+08	4.022478e+12	0.000000e+00	6.180905e-01	1.045631e+14	4.170060e+14	2.123036e+14	8.916525e+03	4.002093e+03	1.793363e+03	0	4.897528e-04
8.900000e+08	3.991540e+12	0.000000e+00	6.180905e-01	1.042348e+14	4.140816e+14	2.113276e+14	8.913658e+03	3.998728e+03	1.791855e+03	0	4.884939e-04
9.000000e+08	3.960924e+12	0.000000e+00	6.180905e-01	1.039098e+14	4.112137e+14	2.103583e+14	8.910799e+03	3.995417e+03	1.790372e+03	0	4.872418e-04
9.100000e+08	3.930624e+12	0.000000e+00	6.180905e-01	1.035880e+14	4.084003e+14	2.093956e+14	8.907949e+03	3.992158e+03	1.788911e+03	0	4.859962e-04
9.200000e+08	3.900631e+12	0.000000e+00	6.180905e-01	1.032693e+14	4.056398e+14	2.084396e+14	8.905108e+03	3.988951e+03	1.787474e+03	0	4.847569e-04
9.300000e+08	3.870941e+12	0.000000e+00	6.180905e-01	1.029536e+14	4.029305e+14	2.074900e+14	8.902276e+03	3.985793e+03	1.786059e+03	0	4.835238e-04
9.400000e+08	3.841544e+12	0.000000e+00	6.180905e-01	1.026410e+14	4.002707e+14	2.065470e+14	8.899453e+03	3.982684e+03	1.784666e+03	0	4.822967e-04
9.500000e+08	3.812436e+12	0.000000e+00	6.180905e-01	1.023313e+14	3.976591e+14	2.056104e+14	8.896638e+03	3.979621e+03	1.783293e+03	0	4.810755e-04
9.600000e+08	3.783610e+12	0.000000e+00	6.180905e-01	1.020244e+14	3.950940e+14	2.046802e+14	8.893831e+03	3.976604e+03	1.781942e+03	0	4.798599e-04
9.700000e+08	3.755059e+12	0.000000e+00	6.180905e-01	1.017204e+14	3.925741e+14	2.037563e+14	8.891033e+03	3.973632e+03	1.780610e+03	0	4.786499e-04
9.800000e+08	3.726778e+12	0.000000e+00	6.180905e-01	1.014190e+14	3.900981e+14	2.028387e+14	8.888244e+03	3.970702e+03	1.779297e+03	0	4.774452e-04
9.900000e+08	3.698761e+12	0.000000e+00	6.180905e-01	1.011204e+14	3.876646e+14	2.019273e+14	8.885462e+03	3.967815e+03	1.778003e+03	0	4.762458e-04
1.000000e+09	3.671003e+12	0.000000e+00	6.180905e-01	1.008244e+14	3.852723e+14	2.010221e+14	8.882689e+03	3.964969e+03	1.776728e+03	0	4.750514e-04
1.010000e+09	3.643498e+12	0.000000e+00	6.180905e-01	1.005310e+14	3.829202e+14	2.001231e+14	8.879924e+03	3.962162e+03	1.775470e+03	0	4.738620e-04
1.020000e+09	3.616241e+12	0.000000e+00	6.180905e-01	1.002401e+14	3.806070e+14	1.992302e+14	8.877166e+03	3.959395e+03	1.774230e+03	0	4.726774e-04
1.030000e+09	3.589227e+12	0.000000e+00	6.180905e-01	9.995165e+13	3.783316e+14	1.983433e+14	8.874417e+03	3.956665e+03	1.773007e+03	0	4.714974e-04
1.040000e+09	3.562450e+12	0.000000e+00	6.180905e-01	9.966564e+13	3.760929e+14	1.974623e+14	8.871676e+03	3.953972e+03	1.771800e+03	0	4.703220e-04
1.050000e+09	3.535908e+12	0.000000e+00	6.180905e-01	9.938201e+13	3.738900e+14	1.965874e+14	8.868943e+03	3.951314e+03	1.770609e+03	0	4.691510e-04
1.060000e+09	3.509594e+12	0.000000e+00	6.180905e-01	9.910071e+13	3.717218e+14	1.957183e+14	8.866217e+03	3.948692e+03	1.769434e+03	0	4.679843e-04
1.070000e+09	3.483504e+12	0.000000e+00	6.180905e-01	9.882170e+13	3.695874e+14	1.948551e+14	8.863499e+03	3.946104e+03	1.768274e+03	0	4.668218e-04
1.080000e+09	3.457635e+12	0.000000e+00	6.180905e-01	9.854493e+13	3.674858e+14	1.939977e+14	8.860789e+03	3.943549e+03	1.767129e+03	0	4.656634e-04
1.090000e+09	3.431981e+12	0.000000e+00	6.180905e-01	9.827036e+13	3.654162e+14	1.931461e+14	8.858086e+03	3.941026e+03	1.765999e+03	0	4.645089e-04
1.100000e+09	3.406539e+12	0.000000e+00	6.180905e-01	9.799795e+13	3.633777e+14	1.923002e+14	8.855391e+03	3.938535e+03	1.764883e+03	0	4.633582e-04
1.110000e+09	3.381305e+12	0.000000e+00	6.180905e-01	9.772766e+13	3.613696e+14	1.914599e+14	8.852703e+03	3.936075e+03	1.763780e+03	0	4.622112e-04
1.120000e+09	3.356275e+12	0.000000e+00	6.180905e-01	9.745945e+13	3.593909e+14	1.906253e+14	8.850023e+03	3.933644e+03	1.762691e+03	0	4.610679e-04
1.130000e+09	3.331445e+12	0.000000e+00	6.180905e-01	9.719329e+13	3.574410e+14	1.897963e+14	8.847350e+03	3.931244e+03	1.761615e+03	0	4.599281e-04
1.140000e+09	3.306812e+12	0.000000e+00	6.180905e-01	9.692913e+13	3.555191e+14	1.889728e+14	8.844684e+03	3.928871e+03	1.760552e+03	0	4.587917e-04
1.150000e+09	3.282372e+12	0.000000e+00	6.180905e-01	9.666694e+13	3.536245e+14	1.881548e+14	8.842026e+03	3.926527e+03	1.759502e+03	0	4.576586e-04
1.160000e+09	3.258122e+12	0.000000e+00	6.180905e-01	9.640670e+13	3.517564e+14	1.873423e+14	8.839375e+03	3.924210e+03	1.758463e+03	0	4.565288e-04
1.170000e+09	3.234058e+12	0.000000e+00	6.180905e-01	9.614835e+13	3.499143e+14	1.865352e+14	8.836730e+03	3.921919e+03	1.757437e+03	0	4.554021e-04
1.180000e+09	3.210178e+12	0.000000e+00	6.180905e-01	9.589188e+13	3.480976e+14	1.857334e+14	8.834093e+03	3.919655e+03	1.756422e+03	0	4.542784e-04
1.190000e+09	3.186477e+12	0.000000e+00	6.180905e-01	9.563726e+13	3.463054e+14	1.849370e+14	8.831463e+03	3.917416e+03	1.755419e+03	0	4.531576e-04
1.200000e+09	3.162954e+12	0.000000e+00	6.180905e-01	9.538444e+13	3.445374e+14	1.841459e+14	8.828840e+03	3.915202e+03	1.754427e+03	0	4.520398e-04
1.210000e+09	3.139604e+12	0.000000e+00	6.180905e-01	9.513340e+13	3.427929e+14	1.833600e+14	8.826224e+03	3.913012e+03	1.753445e+03	0	4.509247e-04
1.220000e+09	3.116426e+12	0.000000e+00	6.180905e-01	9.488411e+13	3.410713e+14	1.825793e+14	8.823615e+03	3.910845e+03	1.752475e+03	0	4.498123e-04
1.230000e+09	3.093416e+12	0.000000e+00	6.180905e-01	9.463654e+13	3.393721e+14	1.818038e+14	8.821013e+03	3.908702e+03	1.751514e+03	0	4.487025e-04
1.240000e+09	3.070571e+12	0.000000e+00	6.180905e-01	9.439067e+13	3.376947e+14	1.810334e+14	8.818417e+03	3.906582e+03	1.750564e+03	0	4.475952e-04
1.250000e+09	3.047890e+12	0.000000e+00	6.180905e-01	9.414647e+13	3.360387e+14	1.802681e+14	8.815828e+03	3.904484e+03	1.749624e+03	0	4.464904e-04
1.260000e+09	3.025369e+12	0.000000e+00	6.180905e-01	9.390391e+13	3.344036e+14	1.795079e+14	8.813246e+03	3.902407e+03	1.748693e+03	0	4.453880e-04
1.270000e+09	3.003005e+12	0.000000e+00	6.180905e-01	9.366296e+13	3.327889e+14	1.787526e+14	8.810671e+03	3.900352e+03	1.747772e+03	0	4.442878e-04
1.280000e+09	2.980797e+12	0.000000e+00	6.180905e-01	9.342361e+13	3.311942e+14	1.780023e+14	8.808102e+03	3.898317e+03	1.746861e+03	0	4.431899e-04
1.290000e+09	2.958742e+12	0.000000e+00	6.180905e-01	9.318583e+13	3.296189e+14	1.772570e+14	8.805539e+03	3.896303e+03	1.745958e+03	0	4.420941e-04
1.300000e+09	2.936837e+12	0.000000e+00	6.180905e-01	9.294959e+13	3.280626e+14	1.765165e+14	8.802984e+03	3.894308e+03	1.745064e+03	0	4.410004e-04
1.310000e+09	2.915081e+12	0.000000e+00	6.180905e-01	9.271487e+13	3.265250e+14	1.757809e+14	8.800434e+03	3.892333e+03	1.744179e+03	0	4.399087e-04
1.320000e+09	2.893471e+12	0.000000e+00	6.180905e-01	9.248164e+13	3.250057e+14	1.750502e+14	8.797891e+03	3.890377e+03	1.743303e+03	0	4.388190e-04
1.330000e+09	2.872004e+12	0.000000e+00	6.180905e-01	9.224990e+13	3.235042e+14	1.743242e+14	8.795355e+03	3.888440e+03	1.742434e+03	0	4.377311e-04
1.340000e+09	2.850680e+12	0.000000e+00	6.180905e-01	9.201961e+13	3.220201e+14	1.736029e+14	8.792825e+03	3.886520e+03	1.741574e+03	0	4.366450e-04
1.350000e+09	2.829495e+12	0.000000e+00	6.180905e-01	9.179075e+13	3.205531e+14	1.728863e+14	8.790301e+03	3.884619e+03	1.740722e+03	0	4.355607e-04
1.360000e+09	2.808448e+12	0.000000e+00	6.180905e-01	9.156331e+13	3.191029e+14	1.721745e+14	8.787783e+03	3.882735e+03	1.739878e+03	0	4.344780e-04
