#t		Qconv[W]	Ri[Rp]		R*[Rp]		Qc[W]		Qm[W]		Qr[W]		Tcmb[K]		Tl[K]		Tup[K]		RiFlag		Bs[T]
0.000000e+00	1.215075e+13	0.000000e+00	6.180905e-01	1.960722e+14	3.255266e+15	3.522192e+14	9.543967e+03	5.640951e+03	2.477979e+03	0	7.053596e-04
1.000000e+07	1.192366e+13	0.000000e+00	6.180905e-01	1.938460e+14	3.004391e+15	3.502677e+14	9.539027e+03	5.557954e+03	2.441520e+03	0	7.009375e-04
2.000000e+07	1.169581e+13	0.000000e+00	6.180905e-01	1.916130e+14	2.786857e+15	3.483307e+14	9.534143e+03	5.482340e+03	2.408304e+03	0	6.964441e-04
3.000000e+07	1.147012e+13	0.000000e+00	6.180905e-01	1.894013e+14	2.596842e+15	3.464082e+14	9.529314e+03	5.413134e+03	2.377903e+03	0	6.919353e-04
4.000000e+07	1.124849e+13	0.000000e+00	6.180905e-01	1.872291e+14	2.429755e+15	3.445001e+14	9.524542e+03	5.349529e+03	2.349962e+03	0	6.874498e-04
5.000000e+07	1.103214e+13	0.000000e+00	6.180905e-01	1.851081e+14	2.281928e+15	3.426062e+14	9.519824e+03	5.290850e+03	2.324186e+03	0	6.830138e-04
6.000000e+07	1.082181e+13	0.000000e+00	6.180905e-01	1.830454e+14	2.150408e+15	3.407264e+14	9.515160e+03	5.236530e+03	2.300324e+03	0	6.786451e-04
7.000000e+07	1.061790e+13	0.000000e+00	6.180905e-01	1.810450e+14	2.032793e+15	3.388607e+14	9.510547e+03	5.186086e+03	2.278165e+03	0	6.743557e-04
8.000000e+07	1.042061e+13	0.000000e+00	6.180905e-01	1.791088e+14	1.927113e+15	3.370087e+14	9.505985e+03	5.139106e+03	2.257527e+03	0	6.701529e-04
9.000000e+07	1.022997e+13	0.000000e+00	6.180905e-01	1.772369e+14	1.831740e+15	3.351706e+14	9.501471e+03	5.095236e+03	2.238256e+03	0	6.660411e-04
1.000000e+08	1.004591e+13	0.000000e+00	6.180905e-01	1.754287e+14	1.745319e+15	3.333461e+14	9.497005e+03	5.054168e+03	2.220215e+03	0	6.620223e-04
1.100000e+08	9.868286e+12	0.000000e+00	6.180905e-01	1.736828e+14	1.666714e+15	3.315352e+14	9.492584e+03	5.015636e+03	2.203289e+03	0	6.580973e-04
1.200000e+08	9.696902e+12	0.000000e+00	6.180905e-01	1.719974e+14	1.594967e+15	3.297376e+14	9.488207e+03	4.979406e+03	2.187374e+03	0	6.542652e-04
1.300000e+08	9.531541e+12	0.000000e+00	6.180905e-01	1.703702e+14	1.529264e+15	3.279534e+14	9.483872e+03	4.945275e+03	2.172380e+03	0	6.505248e-04
1.400000e+08	9.371967e+12	0.000000e+00	6.180905e-01	1.687991e+14	1.468912e+15	3.261824e+14	9.479579e+03	4.913060e+03	2.158229e+03	0	6.468741e-04
1.500000e+08	9.217937e+12	0.000000e+00	6.180905e-01	1.672817e+14	1.413315e+15	3.244245e+14	9.475325e+03	4.882602e+03	2.144849e+03	0	6.433107e-04
1.600000e+08	9.069207e+12	0.000000e+00	6.180905e-01	1.658155e+14	1.361961e+15	3.226796e+14	9.471109e+03	4.853758e+03	2.132178e+03	0	6.398320e-04
1.700000e+08	8.925534e+12	0.000000e+00	6.180905e-01	1.643984e+14	1.314405e+15	3.209475e+14	9.466930e+03	4.826402e+03	2.120161e+03	0	6.364353e-04
1.800000e+08	8.786682e+12	0.000000e+00	6.180905e-01	1.630279e+14	1.270262e+15	3.192282e+14	9.462786e+03	4.800419e+03	2.108747e+03	0	6.331177e-04
1.900000e+08	8.652423e+12	0.000000e+00	6.180905e-01	1.617019e+14	1.229193e+15	3.175216e+14	9.458678e+03	4.775707e+03	2.097892e+03	0	6.298765e-04
2.000000e+08	8.522537e+12	0.000000e+00	6.180905e-01	1.604183e+14	1.190903e+15	3.158275e+14	9.454602e+03	4.752173e+03	2.087554e+03	0	6.267088e-04
2.100000e+08	8.396813e+12	0.000000e+00	6.180905e-01	1.591749e+14	1.155132e+15	3.141459e+14	9.450559e+03	4.729735e+03	2.077697e+03	0	6.236118e-04
2.200000e+08	8.275051e+12	0.000000e+00	6.180905e-01	1.579700e+14	1.121650e+15	3.124767e+14	9.446547e+03	4.708317e+03	2.068288e+03	0	6.205828e-04
2.300000e+08	8.157061e+12	0.000000e+00	6.180905e-01	1.568016e+14	1.090253e+15	3.108196e+14	9.442566e+03	4.687850e+03	2.059297e+03	0	6.176191e-04
2.400000e+08	8.042661e+12	0.000000e+00	6.180905e-01	1.556680e+14	1.060761e+15	3.091748e+14	9.438614e+03	4.668271e+03	2.050697e+03	0	6.147182e-04
2.500000e+08	7.931680e+12	0.000000e+00	6.180905e-01	1.545675e+14	1.033013e+15	3.075420e+14	9.434690e+03	4.649523e+03	2.042461e+03	0	6.118776e-04
2.600000e+08	7.823956e+12	0.000000e+00	6.180905e-01	1.534986e+14	1.006865e+15	3.059211e+14	9.430794e+03	4.631554e+03	2.034568e+03	0	6.090949e-04
2.700000e+08	7.719337e+12	0.000000e+00	6.180905e-01	1.524598e+14	9.821863e+14	3.043121e+14	9.426926e+03	4.614316e+03	2.026995e+03	0	6.063678e-04
2.800000e+08	7.617677e+12	0.000000e+00	6.180905e-01	1.514497e+14	9.588623e+14	3.027148e+14	9.423083e+03	4.597766e+03	2.019725e+03	0	6.036942e-04
2.900000e+08	7.518840e+12	0.000000e+00	6.180905e-01	1.504670e+14	9.367882e+14	3.011292e+14	9.419266e+03	4.581861e+03	2.012738e+03	0	6.010719e-04
3.000000e+08	7.422696e+12	0.000000e+00	6.180905e-01	1.495104e+14	9.158696e+14	2.995552e+14	9.415473e+03	4.566566e+03	2.006019e+03	0	5.984989e-04
3.100000e+08	7.329123e+12	0.000000e+00	6.180905e-01	1.485788e+14	8.960211e+14	2.979926e+14	9.411705e+03	4.551845e+03	1.999553e+03	0	5.959734e-04
3.200000e+08	7.238008e+12	0.000000e+00	6.180905e-01	1.476709e+14	8.771653e+14	2.964414e+14	9.407960e+03	4.537666e+03	1.993324e+03	0	5.934933e-04
3.300000e+08	7.149239e+12	0.000000e+00	6.180905e-01	1.467859e+14	8.592317e+14	2.949015e+14	9.404237e+03	4.524000e+03	1.987321e+03	0	5.910571e-04
3.400000e+08	7.062716e+12	0.000000e+00	6.180905e-01	1.459226e+14	8.421564e+14	2.933727e+14	9.400537e+03	4.510819e+03	1.981531e+03	0	5.886630e-04
3.500000e+08	6.978340e+12	0.000000e+00	6.180905e-01	1.450802e+14	8.258808e+14	2.918550e+14	9.396859e+03	4.498098e+03	1.975943e+03	0	5.863094e-04
3.600000e+08	6.896020e+12	0.000000e+00	6.180905e-01	1.442577e+14	8.103515e+14	2.903484e+14	9.393202e+03	4.485813e+03	1.970546e+03	0	5.839948e-04
3.700000e+08	6.815668e+12	0.000000e+00	6.180905e-01	1.434544e+14	7.955196e+14	2.888527e+14	9.389566e+03	4.473941e+03	1.965331e+03	0	5.817177e-04
3.800000e+08	6.737203e+12	0.000000e+00	6.180905e-01	1.426694e+14	7.813403e+14	2.873677e+14	9.385950e+03	4.462462e+03	1.960288e+03	0	5.794768e-04
3.900000e+08	6.660547e+12	0.000000e+00	6.180905e-01	1.419019e+14	7.677722e+14	2.858935e+14	9.382354e+03	4.451356e+03	1.955409e+03	0	5.772706e-04
4.000000e+08	6.585625e+12	0.000000e+00	6.180905e-01	1.411513e+14	7.547776e+14	2.844300e+14	9.378777e+03	4.440605e+03	1.950687e+03	0	5.750980e-04
4.100000e+08	6.512368e+12	0.000000e+00	6.180905e-01	1.404169e+14	7.423214e+14	2.829770e+14	9.375219e+03	4.430193e+03	1.946113e+03	0	5.729576e-04
4.200000e+08	6.440710e+12	0.000000e+00	6.180905e-01	1.396980e+14	7.303713e+14	2.815345e+14	9.371680e+03	4.420103e+03	1.941681e+03	0	5.708483e-04
4.300000e+08	6.370587e+12	0.000000e+00	6.180905e-01	1.389940e+14	7.188976e+14	2.801024e+14	9.368158e+03	4.410321e+03	1.937383e+03	0	5.687691e-04
4.400000e+08	6.301940e+12	0.000000e+00	6.180905e-01	1.383044e+14	7.078728e+14	2.786806e+14	9.364655e+03	4.400831e+03	1.933215e+03	0	5.667188e-04
4.500000e+08	6.234713e+12	0.000000e+00	6.180905e-01	1.376286e+14	6.972711e+14	2.772690e+14	9.361168e+03	4.391622e+03	1.929169e+03	0	5.646964e-04
4.600000e+08	6.168851e+12	0.000000e+00	6.180905e-01	1.369660e+14	6.870690e+14	2.758675e+14	9.357699e+03	4.382680e+03	1.925241e+03	0	5.627009e-04
4.700000e+08	6.104303e+12	0.000000e+00	6.180905e-01	1.363163e+14	6.772444e+14	2.744761e+14	9.354247e+03	4.373995e+03	1.921426e+03	0	5.607314e-04
4.800000e+08	6.041021e+12	0.000000e+00	6.180905e-01	1.356788e+14	6.677768e+14	2.730946e+14	9.350810e+03	4.365554e+03	1.917718e+03	0	5.587870e-04
4.900000e+08	5.978958e+12	0.000000e+00	6.180905e-01	1.350533e+14	6.586471e+14	2.717231e+14	9.347390e+03	4.357347e+03	1.914113e+03	0	5.568668e-04
5.000000e+08	5.918071e+12	0.000000e+00	6.180905e-01	1.344391e+14	6.498376e+14	2.703613e+14	9.343986e+03	4.349364e+03	1.910606e+03	0	5.549701e-04
5.100000e+08	5.858316e+12	0.000000e+00	6.180905e-01	1.338361e+14	6.413316e+14	2.690093e+14	9.340597e+03	4.341597e+03	1.907194e+03	0	5.530959e-04
5.200000e+08	5.799655e+12	0.000000e+00	6.180905e-01	1.332436e+14	6.331137e+14	2.676669e+14	9.337223e+03	4.334036e+03	1.903873e+03	0	5.512436e-04
5.300000e+08	5.742049e+12	0.000000e+00	6.180905e-01	1.326614e+14	6.251694e+14	2.663341e+14	9.333864e+03	4.326673e+03	1.900638e+03	0	5.494124e-04
5.400000e+08	5.685462e+12	0.000000e+00	6.180905e-01	1.320892e+14	6.174851e+14	2.650108e+14	9.330520e+03	4.319500e+03	1.897487e+03	0	5.476016e-04
5.500000e+08	5.629858e+12	0.000000e+00	6.180905e-01	1.315265e+14	6.100480e+14	2.636969e+14	9.327190e+03	4.312509e+03	1.894416e+03	0	5.458106e-04
5.600000e+08	5.575205e+12	0.000000e+00	6.180905e-01	1.309731e+14	6.028464e+14	2.623924e+14	9.323875e+03	4.305693e+03	1.891422e+03	0	5.440387e-04
5.700000e+08	5.521472e+12	0.000000e+00	6.180905e-01	1.304287e+14	5.958689e+14	2.610971e+14	9.320573e+03	4.299046e+03	1.888502e+03	0	5.422852e-04
5.800000e+08	5.468627e+12	0.000000e+00	6.180905e-01	1.298929e+14	5.891051e+14	2.598110e+14	9.317285e+03	4.292560e+03	1.885653e+03	0	5.405497e-04
5.900000e+08	5.416643e+12	0.000000e+00	6.180905e-01	1.293655e+14	5.825450e+14	2.585340e+14	9.314011e+03	4.286231e+03	1.882873e+03	0	5.388314e-04
6.000000e+08	5.365491e+12	0.000000e+00	6.180905e-01	1.288463e+14	5.761795e+14	2.572661e+14	9.310750e+03	4.280051e+03	1.880158e+03	0	5.371299e-04
6.100000e+08	5.315144e+12	0.000000e+00	6.180905e-01	1.283349e+14	5.699997e+14	2.560071e+14	9.307501e+03	4.274016e+03	1.877507e+03	0	5.354446e-04
6.200000e+08	5.265578e+12	0.000000e+00	6.180905e-01	1.278311e+14	5.639974e+14	2.547571e+14	9.304266e+03	4.268120e+03	1.874917e+03	0	5.337750e-04
6.300000e+08	5.216769e+12	0.000000e+00	6.180905e-01	1.273347e+14	5.581647e+14	2.535158e+14	9.301044e+03	4.262358e+03	1.872386e+03	0	5.321206e-04
6.400000e+08	5.168693e+12	0.000000e+00	6.180905e-01	1.268454e+14	5.524944e+14	2.522833e+14	9.297834e+03	4.256726e+03	1.869911e+03	0	5.304809e-04
6.500000e+08	5.121327e+12	0.000000e+00	6.180905e-01	1.263631e+14	5.469795e+14	2.510595e+14	9.294636e+03	4.251217e+03	1.867492e+03	0	5.288555e-04
6.600000e+08	5.074651e+12	0.000000e+00	6.180905e-01	1.258876e+14	5.416134e+14	2.498443e+14	9.291451e+03	4.245830e+03	1.865125e+03	0	5.272439e-04
6.700000e+08	5.028644e+12	0.000000e+00	6.180905e-01	1.254185e+14	5.363900e+14	2.486376e+14	9.288277e+03	4.240558e+03	1.862809e+03	0	5.256457e-04
6.800000e+08	4.983286e+12	0.000000e+00	6.180905e-01	1.249559e+14	5.313033e+14	2.474395e+14	9.285115e+03	4.235398e+03	1.860543e+03	0	5.240605e-04
6.900000e+08	4.938559e+12	0.000000e+00	6.180905e-01	1.244994e+14	5.263477e+14	2.462497e+14	9.281965e+03	4.230347e+03	1.858324e+03	0	5.224879e-04
7.000000e+08	4.894445e+12	0.000000e+00	6.180905e-01	1.240488e+14	5.215181e+14	2.450682e+14	9.278827e+03	4.225400e+03	1.856151e+03	0	5.209275e-04
7.100000e+08	4.850925e+12	0.000000e+00	6.180905e-01	1.236041e+14	5.168093e+14	2.438951e+14	9.275699e+03	4.220554e+03	1.854022e+03	0	5.193790e-04
7.200000e+08	4.807983e+12	0.000000e+00	6.180905e-01	1.231651e+14	5.122167e+14	2.427301e+14	9.272583e+03	4.215806e+03	1.851936e+03	0	5.178419e-04
7.300000e+08	4.765604e+12	0.000000e+00	6.180905e-01	1.227315e+14	5.077358e+14	2.415733e+14	9.269478e+03	4.211152e+03	1.849892e+03	0	5.163159e-04
7.400000e+08	4.723772e+12	0.000000e+00	6.180905e-01	1.223033e+14	5.033621e+14	2.404245e+14	9.266384e+03	4.206590e+03	1.847888e+03	0	5.148007e-04
7.500000e+08	4.682472e+12	0.000000e+00	6.180905e-01	1.218803e+14	4.990918e+14	2.392838e+14	9.263301e+03	4.202116e+03	1.845922e+03	0	5.132960e-04
7.600000e+08	4.641689e+12	0.000000e+00	6.180905e-01	1.214624e+14	4.949209e+14	2.381510e+14	9.260228e+03	4.197727e+03	1.843994e+03	0	5.118015e-04
7.700000e+08	4.601411e+12	0.000000e+00	6.180905e-01	1.210494e+14	4.908457e+14	2.370261e+14	9.257166e+03	4.193422e+03	1.842103e+03	0	5.103168e-04
7.800000e+08	4.561623e+12	0.000000e+00	6.180905e-01	1.206413e+14	4.868626e+14	2.359090e+14	9.254115e+03	4.189197e+03	1.840247e+03	0	5.088416e-04
7.900000e+08	4.522312e+12	0.000000e+00	6.180905e-01	1.202378e+14	4.829685e+14	2.347997e+14	9.251073e+03	4.185049e+03	1.838425e+03	0	5.073757e-04
8.000000e+08	4.483468e+12	0.000000e+00	6.180905e-01	1.198389e+14	4.791600e+14	2.336980e+14	9.248042e+03	4.180977e+03	1.836636e+03	0	5.059188e-04
8.100000e+08	4.445077e+12	0.000000e+00	6.180905e-01	1.194444e+14	4.754342e+14	2.326040e+14	9.245021e+03	4.176978e+03	1.834880e+03	0	5.044707e-04
8.200000e+08	4.407129e+12	0.000000e+00	6.180905e-01	1.190543e+14	4.717880e+14	2.315176e+14	9.242009e+03	4.173050e+03	1.833154e+03	0	5.030310e-04
8.300000e+08	4.369612e+12	0.000000e+00	6.180905e-01	1.186683e+14	4.682189e+14	2.304387e+14	9.239008e+03	4.169190e+03	1.831458e+03	0	5.015995e-04
8.400000e+08	4.332516e+12	0.000000e+00	6.180905e-01	1.182866e+14	4.647241e+14	2.293672e+14	9.236016e+03	4.165397e+03	1.829792e+03	0	5.001761e-04
8.500000e+08	4.295830e+12	0.000000e+00	6.180905e-01	1.179088e+14	4.613010e+14	2.283031e+14	9.233034e+03	4.161669e+03	1.828154e+03	0	4.987603e-04
8.600000e+08	4.259545e+12	0.000000e+00	6.180905e-01	1.175350e+14	4.579473e+14	2.272464e+14	9.230062e+03	4.158003e+03	1.826544e+03	0	4.973521e-04
8.700000e+08	4.223651e+12	0.000000e+00	6.180905e-01	1.171651e+14	4.546607e+14	2.261969e+14	9.227099e+03	4.154398e+03	1.824961e+03	0	4.959511e-04
8.800000e+08	4.188139e+12	0.000000e+00	6.180905e-01	1.167988e+14	4.514390e+14	2.251547e+14	9.224145e+03	4.150853e+03	1.823403e+03	0	4.945572e-04
8.900000e+08	4.153000e+12	0.000000e+00	6.180905e-01	1.164363e+14	4.482800e+14	2.241196e+14	9.221200e+03	4.147365e+03	1.821871e+03	0	4.931702e-04
9.000000e+08	4.118225e+12	0.000000e+00	6.180905e-01	1.160773e+14	4.451817e+14	2.230916e+14	9.218265e+03	4.143932e+03	1.820363e+03	0	4.917898e-04
9.100000e+08	4.083806e+12	0.000000e+00	6.180905e-01	1.157219e+14	4.421422e+14	2.220707e+14	9.215338e+03	4.140554e+03	1.818879e+03	0	4.904159e-04
9.200000e+08	4.049735e+12	0.000000e+00	6.180905e-01	1.153698e+14	4.391596e+14	2.210567e+14	9.212421e+03	4.137228e+03	1.817418e+03	0	4.890482e-04
9.300000e+08	4.016004e+12	0.000000e+00	6.180905e-01	1.150211e+14	4.362322e+14	2.200497e+14	9.209512e+03	4.133954e+03	1.815980e+03	0	4.876867e-04
9.400000e+08	3.982606e+12	0.000000e+00	6.180905e-01	1.146757e+14	4.333582e+14	2.190496e+14	9.206612e+03	4.130730e+03	1.814563e+03	0	4.863310e-04
9.500000e+08	3.949533e+12	0.000000e+00	6.180905e-01	1.143335e+14	4.305360e+14	2.180563e+14	9.203721e+03	4.127554e+03	1.813168e+03	0	4.849810e-04
9.600000e+08	3.916779e+12	0.000000e+00	6.180905e-01	1.139944e+14	4.277640e+14	2.170697e+14	9.200839e+03	4.124425e+03	1.811794e+03	0	4.836366e-04
9.700000e+08	3.884336e+12	0.000000e+00	6.180905e-01	1.136583e+14	4.250407e+14	2.160899e+14	9.197965e+03	4.121342e+03	1.810439e+03	0	4.822976e-04
9.800000e+08	3.852198e+12	0.000000e+00	6.180905e-01	1.133253e+14	4.223646e+14	2.151168e+14	9.195099e+03	4.118303e+03	1.809105e+03	0	4.809638e-04
9.900000e+08	3.820358e+12	0.000000e+00	6.180905e-01	1.129953e+14	4.197345e+14	2.141503e+14	9.192242e+03	4.115308e+03	1.807789e+03	0	4.796350e-04
1.000000e+09	3.788811e+12	0.000000e+00	6.180905e-01	1.126681e+14	4.171488e+14	2.131903e+14	9.189393e+03	4.112356e+03	1.806492e+03	0	4.783111e-04
1.010000e+09	3.757550e+12	0.000000e+00	6.180905e-01	1.123437e+14	4.146064e+14	2.122368e+14	9.186553e+03	4.109444e+03	1.805213e+03	0	4.769920e-04
1.020000e+09	3.726569e+12	0.000000e+00	6.180905e-01	1.120221e+14	4.121060e+14	2.112898e+14	9.183720e+03	4.106573e+03	1.803952e+03	0	4.756775e-04
1.030000e+09	3.695864e+12	0.000000e+00	6.180905e-01	1.117032e+14	4.096464e+14	2.103493e+14	9.180896e+03	4.103740e+03	1.802707e+03	0	4.743674e-04
1.040000e+09	3.665427e+12	0.000000e+00	6.180905e-01	1.113870e+14	4.072265e+14	2.094150e+14	9.178080e+03	4.100946e+03	1.801480e+03	0	4.730616e-04
1.050000e+09	3.635255e+12	0.000000e+00	6.180905e-01	1.110733e+14	4.048451e+14	2.084871e+14	9.175272e+03	4.098189e+03	1.800269e+03	0	4.717600e-04
1.060000e+09	3.605342e+12	0.000000e+00	6.180905e-01	1.107623e+14	4.025012e+14	2.075654e+14	9.172471e+03	4.095468e+03	1.799073e+03	0	4.704625e-04
1.070000e+09	3.575682e+12	0.000000e+00	6.180905e-01	1.104537e+14	4.001938e+14	2.066500e+14	9.169679e+03	4.092782e+03	1.797894e+03	0	4.691688e-04
1.080000e+09	3.546272e+12	0.000000e+00	6.180905e-01	1.101476e+14	3.979219e+14	2.057407e+14	9.166894e+03	4.090131e+03	1.796729e+03	0	4.678790e-04
1.090000e+09	3.517106e+12	0.000000e+00	6.180905e-01	1.098439e+14	3.956845e+14	2.048375e+14	9.164117e+03	4.087513e+03	1.795579e+03	0	4.665928e-04
1.100000e+09	3.488180e+12	0.000000e+00	6.180905e-01	1.095426e+14	3.934807e+14	2.039404e+14	9.161347e+03	4.084927e+03	1.794443e+03	0	4.653101e-04
1.110000e+09	3.459489e+12	0.000000e+00	6.180905e-01	1.092436e+14	3.913097e+14	2.030493e+14	9.158586e+03	4.082374e+03	1.793322e+03	0	4.640308e-04
1.120000e+09	3.431029e+12	0.000000e+00	6.180905e-01	1.089469e+14	3.891705e+14	2.021642e+14	9.155831e+03	4.079852e+03	1.792214e+03	0	4.627549e-04
1.130000e+09	3.402797e+12	0.000000e+00	6.180905e-01	1.086525e+14	3.870624e+14	2.012849e+14	9.153085e+03	4.077360e+03	1.791119e+03	0	4.614821e-04
1.140000e+09	3.374787e+12	0.000000e+00	6.180905e-01	1.083602e+14	3.849846e+14	2.004116e+14	9.150345e+03	4.074898e+03	1.790038e+03	0	4.602124e-04
1.150000e+09	3.346995e+12	0.000000e+00	6.180905e-01	1.080702e+14	3.829363e+14	1.995441e+14	9.147613e+03	4.072465e+03	1.788969e+03	0	4.589456e-04
1.160000e+09	3.319419e+12	0.000000e+00	6.180905e-01	1.077822e+14	3.809167e+14	1.986824e+14	9.144888e+03	4.070060e+03	1.787912e+03	0	4.576817e-04
1.170000e+09	3.292054e+12	0.000000e+00	6.180905e-01	1.074963e+14	3.789252e+14	1.978264e+14	9.142171e+03	4.067683e+03	1.786868e+03	0	4.564205e-04
1.180000e+09	3.264897e+12	0.000000e+00	6.180905e-01	1.072125e+14	3.769610e+14	1.969761e+14	9.139461e+03	4.065333e+03	1.785836e+03	0	4.551620e-04
1.190000e+09	3.237944e+12	0.000000e+00	6.180905e-01	1.069308e+14	3.750235e+14	1.961315e+14	9.136758e+03	4.063009e+03	1.784815e+03	0	4.539060e-04
1.200000e+09	3.211191e+12	0.000000e+00	6.180905e-01	1.066510e+14	3.731121e+14	1.952925e+14	9.134062e+03	4.060711e+03	1.783805e+03	0	4.526525e-04
1.210000e+09	3.184636e+12	0.000000e+00	6.180905e-01	1.063732e+14	3.712261e+14	1.944591e+14	9.131373e+03	4.058438e+03	1.782807e+03	0	4.514013e-04
1.220000e+09	3.158275e+12	0.000000e+00	6.180905e-01	1.060972e+14	3.693648e+14	1.936311e+14	9.128691e+03	4.056190e+03	1.781819e+03	0	4.501523e-04
1.230000e+09	3.132105e+12	0.000000e+00	6.180905e-01	1.058232e+14	3.675278e+14	1.928087e+14	9.126016e+03	4.053966e+03	1.780842e+03	0	4.489055e-04
1.240000e+09	3.106122e+12	0.000000e+00	6.180905e-01	1.055511e+14	3.657145e+14	1.919916e+14	9.123348e+03	4.051765e+03	1.779875e+03	0	4.476607e-04
1.250000e+09	3.080324e+12	0.000000e+00	6.180905e-01	1.052808e+14	3.639243e+14	1.911800e+14	9.120686e+03	4.049587e+03	1.778919e+03	0	4.464179e-04
1.260000e+09	3.054708e+12	0.000000e+00	6.180905e-01	1.050123e+14	3.621567e+14	1.903737e+14	9.118032e+03	4.047432e+03	1.777972e+03	0	4.451770e-04
1.270000e+09	3.029271e+12	0.000000e+00	6.180905e-01	1.047455e+14	3.604111e+14	1.895728e+14	9.115384e+03	4.045299e+03	1.777035e+03	0	4.439379e-04
1.280000e+09	3.004010e+12	0.000000e+00	6.180905e-01	1.044806e+14	3.586871e+14	1.887771e+14	9.112743e+03	4.043187e+03	1.776107e+03	0	4.427005e-04
1.290000e+09	2.978923e+12	0.000000e+00	6.180905e-01	1.042173e+14	3.569842e+14	1.879866e+14	9.110109e+03	4.041097e+03	1.775189e+03	0	4.414646e-04
1.300000e+09	2.954006e+12	0.000000e+00	6.180905e-01	1.039558e+14	3.553020e+14	1.872014e+14	9.107481e+03	4.039027e+03	1.774280e+03	0	4.402303e-04
1.310000e+09	2.929258e+12	0.000000e+00	6.180905e-01	1.036959e+14	3.536399e+14	1.864212e+14	9.104860e+03	4.036977e+03	1.773379e+03	0	4.389975e-04
1.320000e+09	2.904676e+12	0.000000e+00	6.180905e-01	1.034377e+14	3.519975e+14	1.856462e+14	9.102246e+03	4.034947e+03	1.772488e+03	0	4.377660e-04
1.330000e+09	2.880256e+12	0.000000e+00	6.180905e-01	1.031810e+14	3.503745e+14	1.848763e+14	9.099638e+03	4.032936e+03	1.771604e+03	0	4.365358e-04
1.340000e+09	2.855998e+12	0.000000e+00	6.180905e-01	1.029260e+14	3.487703e+14	1.841113e+14	9.097036e+03	4.030945e+03	1.770730e+03	0	4.353068e-04
1.350000e+09	2.831898e+12	0.000000e+00	6.180905e-01	1.026726e+14	3.471847e+14	1.833514e+14	9.094441e+03	4.028972e+03	1.769863e+03	0	4.340789e-04
1.360000e+09	2.807955e+12	0.000000e+00	6.180905e-01	1.024208e+14	3.456172e+14	1.825964e+14	9.091852e+03	4.027017e+03	1.769004e+03	0	4.328521e-04
