#t		Qconv[W]	Ri[Rp]		R*[Rp]		Qc[W]		Qm[W]		Qr[W]		Tcmb[K]		Tl[K]		Tup[K]		RiFlag		Bs[T]
0.000000e+00	1.520780e+13	0.000000e+00	6.130653e-01	2.577858e+14	3.438820e+15	4.038690e+14	1.063929e+04	6.182747e+03	2.543241e+03	0	7.620396e-04
1.000000e+07	1.492113e+13	0.000000e+00	6.130653e-01	2.550985e+14	3.208707e+15	4.016313e+14	1.063383e+04	6.105962e+03	2.511656e+03	0	7.572211e-04
2.000000e+07	1.463676e+13	0.000000e+00	6.130653e-01	2.524329e+14	3.005801e+15	3.994103e+14	1.062841e+04	6.035272e+03	2.482578e+03	0	7.523797e-04
3.000000e+07	1.435679e+13	0.000000e+00	6.130653e-01	2.498082e+14	2.825842e+15	3.972059e+14	1.062306e+04	5.969955e+03	2.455710e+03	0	7.475517e-04
4.000000e+07	1.408262e+13	0.000000e+00	6.130653e-01	2.472373e+14	2.665379e+15	3.950180e+14	1.061776e+04	5.909404e+03	2.430803e+03	0	7.427624e-04
5.000000e+07	1.381515e+13	0.000000e+00	6.130653e-01	2.447284e+14	2.521590e+15	3.928463e+14	1.061251e+04	5.853099e+03	2.407642e+03	0	7.380300e-04
6.000000e+07	1.355492e+13	0.000000e+00	6.130653e-01	2.422864e+14	2.392156e+15	3.906909e+14	1.060732e+04	5.800598e+03	2.386046e+03	0	7.333666e-04
7.000000e+07	1.330222e+13	0.000000e+00	6.130653e-01	2.399139e+14	2.275151e+15	3.885515e+14	1.060218e+04	5.751515e+03	2.365856e+03	0	7.287806e-04
8.000000e+07	1.305715e+13	0.000000e+00	6.130653e-01	2.376119e+14	2.168966e+15	3.864281e+14	1.059709e+04	5.705520e+03	2.346936e+03	0	7.242774e-04
9.000000e+07	1.281970e+13	0.000000e+00	6.130653e-01	2.353803e+14	2.072248e+15	3.843204e+14	1.059205e+04	5.662323e+03	2.329167e+03	0	7.198599e-04
1.000000e+08	1.258975e+13	0.000000e+00	6.130653e-01	2.332179e+14	1.983854e+15	3.822283e+14	1.058706e+04	5.621670e+03	2.312445e+03	0	7.155299e-04
1.100000e+08	1.236714e+13	0.000000e+00	6.130653e-01	2.311233e+14	1.902809e+15	3.801518e+14	1.058211e+04	5.583336e+03	2.296677e+03	0	7.112874e-04
1.200000e+08	1.215165e+13	0.000000e+00	6.130653e-01	2.290944e+14	1.828283e+15	3.780907e+14	1.057720e+04	5.547126e+03	2.281782e+03	0	7.071321e-04
1.300000e+08	1.194306e+13	0.000000e+00	6.130653e-01	2.271292e+14	1.759558e+15	3.760449e+14	1.057234e+04	5.512864e+03	2.267688e+03	0	7.030626e-04
1.400000e+08	1.174112e+13	0.000000e+00	6.130653e-01	2.252254e+14	1.696017e+15	3.740141e+14	1.056752e+04	5.480393e+03	2.254331e+03	0	6.990773e-04
1.500000e+08	1.154556e+13	0.000000e+00	6.130653e-01	2.233805e+14	1.637123e+15	3.719984e+14	1.056275e+04	5.449575e+03	2.241654e+03	0	6.951743e-04
1.600000e+08	1.135612e+13	0.000000e+00	6.130653e-01	2.215921e+14	1.582409e+15	3.699976e+14	1.055801e+04	5.420283e+03	2.229606e+03	0	6.913513e-04
1.700000e+08	1.117256e+13	0.000000e+00	6.130653e-01	2.198580e+14	1.531467e+15	3.680116e+14	1.055330e+04	5.392407e+03	2.218139e+03	0	6.876060e-04
1.800000e+08	1.099462e+13	0.000000e+00	6.130653e-01	2.181758e+14	1.483937e+15	3.660402e+14	1.054864e+04	5.365843e+03	2.207212e+03	0	6.839360e-04
1.900000e+08	1.082205e+13	0.000000e+00	6.130653e-01	2.165431e+14	1.439503e+15	3.640833e+14	1.054401e+04	5.340501e+03	2.196787e+03	0	6.803388e-04
2.000000e+08	1.065461e+13	0.000000e+00	6.130653e-01	2.149580e+14	1.397886e+15	3.621408e+14	1.053942e+04	5.316296e+03	2.186831e+03	0	6.768119e-04
2.100000e+08	1.049209e+13	0.000000e+00	6.130653e-01	2.134182e+14	1.358838e+15	3.602126e+14	1.053485e+04	5.293153e+03	2.177311e+03	0	6.733530e-04
2.200000e+08	1.033426e+13	0.000000e+00	6.130653e-01	2.119217e+14	1.322139e+15	3.582985e+14	1.053033e+04	5.271002e+03	2.168199e+03	0	6.699595e-04
2.300000e+08	1.018092e+13	0.000000e+00	6.130653e-01	2.104667e+14	1.287590e+15	3.563986e+14	1.052583e+04	5.249781e+03	2.159470e+03	0	6.666292e-04
2.400000e+08	1.003185e+13	0.000000e+00	6.130653e-01	2.090513e+14	1.255017e+15	3.545125e+14	1.052136e+04	5.229431e+03	2.151100e+03	0	6.633598e-04
2.500000e+08	9.886888e+12	0.000000e+00	6.130653e-01	2.076738e+14	1.224260e+15	3.526402e+14	1.051693e+04	5.209900e+03	2.143066e+03	0	6.601490e-04
2.600000e+08	9.745838e+12	0.000000e+00	6.130653e-01	2.063324e+14	1.195179e+15	3.507817e+14	1.051252e+04	5.191139e+03	2.135348e+03	0	6.569946e-04
2.700000e+08	9.608533e+12	0.000000e+00	6.130653e-01	2.050257e+14	1.167644e+15	3.489367e+14	1.050814e+04	5.173101e+03	2.127928e+03	0	6.538946e-04
2.800000e+08	9.474811e+12	0.000000e+00	6.130653e-01	2.037521e+14	1.141540e+15	3.471052e+14	1.050379e+04	5.155747e+03	2.120790e+03	0	6.508470e-04
2.900000e+08	9.344517e+12	0.000000e+00	6.130653e-01	2.025102e+14	1.116763e+15	3.452871e+14	1.049947e+04	5.139037e+03	2.113916e+03	0	6.478499e-04
3.000000e+08	9.217505e+12	0.000000e+00	6.130653e-01	2.012987e+14	1.093216e+15	3.434823e+14	1.049517e+04	5.122936e+03	2.107293e+03	0	6.449012e-04
3.100000e+08	9.093638e+12	0.000000e+00	6.130653e-01	2.001163e+14	1.070813e+15	3.416905e+14	1.049090e+04	5.107411e+03	2.100907e+03	0	6.419994e-04
3.200000e+08	8.972782e+12	0.000000e+00	6.130653e-01	1.989618e+14	1.049476e+15	3.399119e+14	1.048665e+04	5.092432e+03	2.094745e+03	0	6.391426e-04
3.300000e+08	8.854814e+12	0.000000e+00	6.130653e-01	1.978339e+14	1.029132e+15	3.381461e+14	1.048243e+04	5.077969e+03	2.088796e+03	0	6.363293e-04
3.400000e+08	8.739615e+12	0.000000e+00	6.130653e-01	1.967318e+14	1.009715e+15	3.363932e+14	1.047823e+04	5.063996e+03	2.083049e+03	0	6.335577e-04
3.500000e+08	8.627072e+12	0.000000e+00	6.130653e-01	1.956542e+14	9.911654e+14	3.346530e+14	1.047406e+04	5.050489e+03	2.077492e+03	0	6.308264e-04
3.600000e+08	8.517080e+12	0.000000e+00	6.130653e-01	1.946002e+14	9.734275e+14	3.329254e+14	1.046991e+04	5.037424e+03	2.072118e+03	0	6.281340e-04
3.700000e+08	8.409536e+12	0.000000e+00	6.130653e-01	1.935689e+14	9.564503e+14	3.312103e+14	1.046578e+04	5.024779e+03	2.066917e+03	0	6.254790e-04
3.800000e+08	8.304345e+12	0.000000e+00	6.130653e-01	1.925594e+14	9.401869e+14	3.295076e+14	1.046167e+04	5.012535e+03	2.061881e+03	0	6.228601e-04
3.900000e+08	8.201415e+12	0.000000e+00	6.130653e-01	1.915709e+14	9.245942e+14	3.278173e+14	1.045758e+04	5.000673e+03	2.057001e+03	0	6.202760e-04
4.000000e+08	8.100659e+12	0.000000e+00	6.130653e-01	1.906025e+14	9.096322e+14	3.261391e+14	1.045352e+04	4.989174e+03	2.052271e+03	0	6.177255e-04
4.100000e+08	8.001995e+12	0.000000e+00	6.130653e-01	1.896536e+14	8.952641e+14	3.244731e+14	1.044947e+04	4.978022e+03	2.047684e+03	0	6.152074e-04
4.200000e+08	7.905345e+12	0.000000e+00	6.130653e-01	1.887232e+14	8.814556e+14	3.228190e+14	1.044545e+04	4.967201e+03	2.043233e+03	0	6.127204e-04
4.300000e+08	7.810633e+12	0.000000e+00	6.130653e-01	1.878109e+14	8.681751e+14	3.211769e+14	1.044144e+04	4.956697e+03	2.038912e+03	0	6.102636e-04
4.400000e+08	7.717789e+12	0.000000e+00	6.130653e-01	1.869159e+14	8.553932e+14	3.195466e+14	1.043746e+04	4.946495e+03	2.034715e+03	0	6.078360e-04
4.500000e+08	7.626744e+12	0.000000e+00	6.130653e-01	1.860376e+14	8.430826e+14	3.179280e+14	1.043349e+04	4.936582e+03	2.030637e+03	0	6.054363e-04
4.600000e+08	7.537435e+12	0.000000e+00	6.130653e-01	1.851754e+14	8.312178e+14	3.163210e+14	1.042954e+04	4.926946e+03	2.026674e+03	0	6.030638e-04
4.700000e+08	7.449799e+12	0.000000e+00	6.130653e-01	1.843287e+14	8.197753e+14	3.147255e+14	1.042561e+04	4.917575e+03	2.022819e+03	0	6.007175e-04
4.800000e+08	7.363779e+12	0.000000e+00	6.130653e-01	1.834971e+14	8.087328e+14	3.131415e+14	1.042170e+04	4.908458e+03	2.019069e+03	0	5.983964e-04
4.900000e+08	7.279317e+12	0.000000e+00	6.130653e-01	1.826799e+14	7.980698e+14	3.115688e+14	1.041780e+04	4.899585e+03	2.015419e+03	0	5.960998e-04
5.000000e+08	7.196361e+12	0.000000e+00	6.130653e-01	1.818767e+14	7.877670e+14	3.100074e+14	1.041393e+04	4.890945e+03	2.011865e+03	0	5.938267e-04
5.100000e+08	7.114860e+12	0.000000e+00	6.130653e-01	1.810870e+14	7.778064e+14	3.084571e+14	1.041007e+04	4.882530e+03	2.008403e+03	0	5.915764e-04
5.200000e+08	7.034765e+12	0.000000e+00	6.130653e-01	1.803104e+14	7.681711e+14	3.069179e+14	1.040622e+04	4.874329e+03	2.005030e+03	0	5.893482e-04
5.300000e+08	6.956029e+12	0.000000e+00	6.130653e-01	1.795464e+14	7.588453e+14	3.053896e+14	1.040240e+04	4.866336e+03	2.001742e+03	0	5.871412e-04
5.400000e+08	6.878608e+12	0.000000e+00	6.130653e-01	1.787947e+14	7.498142e+14	3.038723e+14	1.039859e+04	4.858542e+03	1.998536e+03	0	5.849548e-04
5.500000e+08	6.802460e+12	0.000000e+00	6.130653e-01	1.780548e+14	7.410638e+14	3.023657e+14	1.039479e+04	4.850938e+03	1.995408e+03	0	5.827882e-04
5.600000e+08	6.727543e+12	0.000000e+00	6.130653e-01	1.773263e+14	7.325811e+14	3.008699e+14	1.039101e+04	4.843519e+03	1.992357e+03	0	5.806408e-04
5.700000e+08	6.653819e+12	0.000000e+00	6.130653e-01	1.766090e+14	7.243538e+14	2.993847e+14	1.038725e+04	4.836277e+03	1.989377e+03	0	5.785121e-04
5.800000e+08	6.581251e+12	0.000000e+00	6.130653e-01	1.759024e+14	7.163701e+14	2.979100e+14	1.038350e+04	4.829205e+03	1.986468e+03	0	5.764012e-04
5.900000e+08	6.509802e+12	0.000000e+00	6.130653e-01	1.752062e+14	7.086193e+14	2.964457e+14	1.037977e+04	4.822297e+03	1.983627e+03	0	5.743078e-04
6.000000e+08	6.439439e+12	0.000000e+00	6.130653e-01	1.745201e+14	7.010911e+14	2.949919e+14	1.037605e+04	4.815548e+03	1.980851e+03	0	5.722311e-04
6.100000e+08	6.370128e+12	0.000000e+00	6.130653e-01	1.738439e+14	6.937756e+14	2.935483e+14	1.037235e+04	4.808951e+03	1.978137e+03	0	5.701706e-04
6.200000e+08	6.301838e+12	0.000000e+00	6.130653e-01	1.731771e+14	6.866638e+14	2.921149e+14	1.036866e+04	4.802501e+03	1.975484e+03	0	5.681258e-04
6.300000e+08	6.234540e+12	0.000000e+00	6.130653e-01	1.725196e+14	6.797470e+14	2.906916e+14	1.036498e+04	4.796193e+03	1.972889e+03	0	5.660962e-04
6.400000e+08	6.168203e+12	0.000000e+00	6.130653e-01	1.718711e+14	6.730170e+14	2.892784e+14	1.036132e+04	4.790022e+03	1.970351e+03	0	5.640812e-04
6.500000e+08	6.102800e+12	0.000000e+00	6.130653e-01	1.712313e+14	6.664660e+14	2.878751e+14	1.035767e+04	4.783983e+03	1.967867e+03	0	5.620804e-04
6.600000e+08	6.038305e+12	0.000000e+00	6.130653e-01	1.705999e+14	6.600867e+14	2.864817e+14	1.035404e+04	4.778072e+03	1.965435e+03	0	5.600934e-04
6.700000e+08	5.974691e+12	0.000000e+00	6.130653e-01	1.699768e+14	6.538721e+14	2.850981e+14	1.035042e+04	4.772284e+03	1.963054e+03	0	5.581195e-04
6.800000e+08	5.911934e+12	0.000000e+00	6.130653e-01	1.693616e+14	6.478156e+14	2.837242e+14	1.034681e+04	4.766616e+03	1.960723e+03	0	5.561585e-04
6.900000e+08	5.850011e+12	0.000000e+00	6.130653e-01	1.687543e+14	6.419111e+14	2.823600e+14	1.034322e+04	4.761063e+03	1.958438e+03	0	5.542099e-04
7.000000e+08	5.788898e+12	0.000000e+00	6.130653e-01	1.681545e+14	6.361525e+14	2.810053e+14	1.033963e+04	4.755621e+03	1.956200e+03	0	5.522733e-04
7.100000e+08	5.728573e+12	0.000000e+00	6.130653e-01	1.675621e+14	6.305341e+14	2.796601e+14	1.033607e+04	4.750287e+03	1.954006e+03	0	5.503482e-04
7.200000e+08	5.669016e+12	0.000000e+00	6.130653e-01	1.669768e+14	6.250508e+14	2.783243e+14	1.033251e+04	4.745058e+03	1.951855e+03	0	5.484343e-04
7.300000e+08	5.610205e+12	0.000000e+00	6.130653e-01	1.663986e+14	6.196972e+14	2.769978e+14	1.032897e+04	4.739929e+03	1.949745e+03	0	5.465313e-04
7.400000e+08	5.552122e+12	0.000000e+00	6.130653e-01	1.658271e+14	6.144687e+14	2.756806e+14	1.032543e+04	4.734899e+03	1.947676e+03	0	5.446386e-04
7.500000e+08	5.494748e+12	0.000000e+00	6.130653e-01	1.652622e+14	6.093605e+14	2.743726e+14	1.032191e+04	4.729963e+03	1.945646e+03	0	5.427560e-04
7.600000e+08	5.438064e+12	0.000000e+00	6.130653e-01	1.647039e+14	6.043684e+14	2.730737e+14	1.031841e+04	4.725119e+03	1.943653e+03	0	5.408832e-04
7.700000e+08	5.382052e+12	0.000000e+00	6.130653e-01	1.641518e+14	5.994880e+14	2.717839e+14	1.031491e+04	4.720364e+03	1.941697e+03	0	5.390198e-04
7.800000e+08	5.326697e+12	0.000000e+00	6.130653e-01	1.636058e+14	5.947154e+14	2.705030e+14	1.031143e+04	4.715695e+03	1.939777e+03	0	5.371655e-04
7.900000e+08	5.271981e+12	0.000000e+00	6.130653e-01	1.630658e+14	5.900468e+14	2.692309e+14	1.030795e+04	4.711110e+03	1.937891e+03	0	5.353199e-04
8.000000e+08	5.217889e+12	0.000000e+00	6.130653e-01	1.625317e+14	5.854786e+14	2.679678e+14	1.030449e+04	4.706605e+03	1.936038e+03	0	5.334827e-04
8.100000e+08	5.164405e+12	0.000000e+00	6.130653e-01	1.620033e+14	5.810072e+14	2.667133e+14	1.030104e+04	4.702180e+03	1.934217e+03	0	5.316537e-04
8.200000e+08	5.111516e+12	0.000000e+00	6.130653e-01	1.614805e+14	5.766294e+14	2.654676e+14	1.029761e+04	4.697831e+03	1.932428e+03	0	5.298326e-04
8.300000e+08	5.059206e+12	0.000000e+00	6.130653e-01	1.609630e+14	5.723420e+14	2.642304e+14	1.029418e+04	4.693556e+03	1.930670e+03	0	5.280190e-04
8.400000e+08	5.007463e+12	0.000000e+00	6.130653e-01	1.604509e+14	5.681419e+14	2.630018e+14	1.029076e+04	4.689353e+03	1.928941e+03	0	5.262127e-04
8.500000e+08	4.956272e+12	0.000000e+00	6.130653e-01	1.599440e+14	5.640263e+14	2.617817e+14	1.028736e+04	4.685219e+03	1.927241e+03	0	5.244134e-04
8.600000e+08	4.905622e+12	0.000000e+00	6.130653e-01	1.594422e+14	5.599925e+14	2.605700e+14	1.028396e+04	4.681154e+03	1.925569e+03	0	5.226209e-04
8.700000e+08	4.855499e+12	0.000000e+00	6.130653e-01	1.589453e+14	5.560376e+14	2.593667e+14	1.028058e+04	4.677155e+03	1.923923e+03	0	5.208349e-04
8.800000e+08	4.805893e+12	0.000000e+00	6.130653e-01	1.584532e+14	5.521593e+14	2.581716e+14	1.027720e+04	4.673219e+03	1.922305e+03	0	5.190551e-04
8.900000e+08	4.756791e+12	0.000000e+00	6.130653e-01	1.579659e+14	5.483550e+14	2.569847e+14	1.027384e+04	4.669346e+03	1.920711e+03	0	5.172813e-04
9.000000e+08	4.708182e+12	0.000000e+00	6.130653e-01	1.574832e+14	5.446224e+14	2.558060e+14	1.027049e+04	4.665533e+03	1.919143e+03	0	5.155132e-04
9.100000e+08	4.660055e+12	0.000000e+00	6.130653e-01	1.570051e+14	5.409593e+14	2.546353e+14	1.026714e+04	4.661780e+03	1.917599e+03	0	5.137507e-04
9.200000e+08	4.612401e+12	0.000000e+00	6.130653e-01	1.565314e+14	5.373636e+14	2.534727e+14	1.026381e+04	4.658083e+03	1.916078e+03	0	5.119935e-04
9.300000e+08	4.565208e+12	0.000000e+00	6.130653e-01	1.560620e+14	5.338332e+14	2.523180e+14	1.026049e+04	4.654442e+03	1.914581e+03	0	5.102413e-04
9.400000e+08	4.518467e+12	0.000000e+00	6.130653e-01	1.555969e+14	5.303660e+14	2.511712e+14	1.025718e+04	4.650856e+03	1.913105e+03	0	5.084940e-04
9.500000e+08	4.472169e+12	0.000000e+00	6.130653e-01	1.551360e+14	5.269603e+14	2.500323e+14	1.025388e+04	4.647322e+03	1.911652e+03	0	5.067513e-04
9.600000e+08	4.426305e+12	0.000000e+00	6.130653e-01	1.546791e+14	5.236141e+14	2.489011e+14	1.025058e+04	4.643839e+03	1.910219e+03	0	5.050129e-04
9.700000e+08	4.380864e+12	0.000000e+00	6.130653e-01	1.542262e+14	5.203258e+14	2.477776e+14	1.024730e+04	4.640407e+03	1.908807e+03	0	5.032788e-04
9.800000e+08	4.335840e+12	0.000000e+00	6.130653e-01	1.537773e+14	5.170936e+14	2.466617e+14	1.024403e+04	4.637023e+03	1.907415e+03	0	5.015487e-04
9.900000e+08	4.291222e+12	0.000000e+00	6.130653e-01	1.533321e+14	5.139159e+14	2.455535e+14	1.024076e+04	4.633686e+03	1.906043e+03	0	4.998224e-04
1.000000e+09	4.247004e+12	0.000000e+00	6.130653e-01	1.528908e+14	5.107912e+14	2.444527e+14	1.023751e+04	4.630396e+03	1.904690e+03	0	4.980997e-04
1.010000e+09	4.203178e+12	0.000000e+00	6.130653e-01	1.524531e+14	5.077179e+14	2.433595e+14	1.023426e+04	4.627151e+03	1.903355e+03	0	4.963805e-04
1.020000e+09	4.159735e+12	0.000000e+00	6.130653e-01	1.520191e+14	5.046947e+14	2.422736e+14	1.023103e+04	4.623950e+03	1.902038e+03	0	4.946644e-04
1.030000e+09	4.116668e+12	0.000000e+00	6.130653e-01	1.515886e+14	5.017201e+14	2.411951e+14	1.022780e+04	4.620791e+03	1.900739e+03	0	4.929513e-04
1.040000e+09	4.073971e+12	0.000000e+00	6.130653e-01	1.511616e+14	4.987928e+14	2.401239e+14	1.022458e+04	4.617675e+03	1.899457e+03	0	4.912411e-04
1.050000e+09	4.031636e+12	0.000000e+00	6.130653e-01	1.507380e+14	4.959115e+14	2.390599e+14	1.022137e+04	4.614598e+03	1.898191e+03	0	4.895336e-04
1.060000e+09	3.989656e+12	0.000000e+00	6.130653e-01	1.503177e+14	4.930749e+14	2.380030e+14	1.021817e+04	4.611562e+03	1.896942e+03	0	4.878286e-04
1.070000e+09	3.948024e+12	0.000000e+00	6.130653e-01	1.499008e+14	4.902820e+14	2.369533e+14	1.021498e+04	4.608564e+03	1.895709e+03	0	4.861258e-04
1.080000e+09	3.906735e+12	0.000000e+00	6.130653e-01	1.494871e+14	4.875314e+14	2.359107e+14	1.021180e+04	4.605604e+03	1.894491e+03	0	4.844252e-04
1.090000e+09	3.865782e+12	0.000000e+00	6.130653e-01	1.490765e+14	4.848221e+14	2.348751e+14	1.020863e+04	4.602681e+03	1.893289e+03	0	4.827266e-04
1.100000e+09	3.825160e+12	0.000000e+00	6.130653e-01	1.486691e+14	4.821530e+14	2.338464e+14	1.020546e+04	4.599794e+03	1.892101e+03	0	4.810297e-04
1.110000e+09	3.784861e+12	0.000000e+00	6.130653e-01	1.482648e+14	4.795231e+14	2.328246e+14	1.020231e+04	4.596942e+03	1.890928e+03	0	4.793345e-04
1.120000e+09	3.744880e+12	0.000000e+00	6.130653e-01	1.478634e+14	4.769314e+14	2.318097e+14	1.019916e+04	4.594124e+03	1.889769e+03	0	4.776408e-04
1.130000e+09	3.705213e+12	0.000000e+00	6.130653e-01	1.474651e+14	4.743769e+14	2.308016e+14	1.019602e+04	4.591339e+03	1.888624e+03	0	4.759483e-04
1.140000e+09	3.665853e+12	0.000000e+00	6.130653e-01	1.470696e+14	4.718587e+14	2.298002e+14	1.019289e+04	4.588588e+03	1.887492e+03	0	4.742570e-04
1.150000e+09	3.626795e+12	0.000000e+00	6.130653e-01	1.466770e+14	4.693758e+14	2.288055e+14	1.018977e+04	4.585868e+03	1.886373e+03	0	4.725667e-04
1.160000e+09	3.588034e+12	0.000000e+00	6.130653e-01	1.462872e+14	4.669274e+14	2.278174e+14	1.018666e+04	4.583180e+03	1.885267e+03	0	4.708771e-04
1.170000e+09	3.549565e+12	0.000000e+00	6.130653e-01	1.459002e+14	4.645127e+14	2.268359e+14	1.018355e+04	4.580522e+03	1.884174e+03	0	4.691883e-04
1.180000e+09	3.511384e+12	0.000000e+00	6.130653e-01	1.455159e+14	4.621309e+14	2.258609e+14	1.018046e+04	4.577893e+03	1.883093e+03	0	4.674999e-04
1.190000e+09	3.473485e+12	0.000000e+00	6.130653e-01	1.451343e+14	4.597811e+14	2.248924e+14	1.017737e+04	4.575294e+03	1.882024e+03	0	4.658119e-04
1.200000e+09	3.435863e+12	0.000000e+00	6.130653e-01	1.447553e+14	4.574626e+14	2.239304e+14	1.017429e+04	4.572724e+03	1.880966e+03	0	4.641240e-04
1.210000e+09	3.398516e+12	0.000000e+00	6.130653e-01	1.443789e+14	4.551746e+14	2.229747e+14	1.017121e+04	4.570181e+03	1.879920e+03	0	4.624362e-04
1.220000e+09	3.361437e+12	0.000000e+00	6.130653e-01	1.440051e+14	4.529165e+14	2.220254e+14	1.016815e+04	4.567665e+03	1.878886e+03	0	4.607483e-04
1.230000e+09	3.324623e+12	0.000000e+00	6.130653e-01	1.436338e+14	4.506875e+14	2.210823e+14	1.016509e+04	4.565177e+03	1.877862e+03	0	4.590601e-04
1.240000e+09	3.288069e+12	0.000000e+00	6.130653e-01	1.432649e+14	4.484871e+14	2.201455e+14	1.016204e+04	4.562714e+03	1.876849e+03	0	4.573715e-04
1.250000e+09	3.251772e+12	0.000000e+00	6.130653e-01	1.428985e+14	4.463144e+14	2.192149e+14	1.015900e+04	4.560276e+03	1.875846e+03	0	4.556823e-04
1.260000e+09	3.215728e+12	0.000000e+00	6.130653e-01	1.425345e+14	4.441689e+14	2.182903e+14	1.015597e+04	4.557864e+03	1.874854e+03	0	4.539923e-04
1.270000e+09	3.179933e+12	0.000000e+00	6.130653e-01	1.421729e+14	4.420501e+14	2.173719e+14	1.015294e+04	4.555476e+03	1.873872e+03	0	4.523015e-04
1.280000e+09	3.144382e+12	0.000000e+00	6.130653e-01	1.418136e+14	4.399572e+14	2.164596e+14	1.014993e+04	4.553112e+03	1.872899e+03	0	4.506097e-04
1.290000e+09	3.109073e+12	0.000000e+00	6.130653e-01	1.414566e+14	4.378898e+14	2.155532e+14	1.014692e+04	4.550772e+03	1.871936e+03	0	4.489167e-04
1.300000e+09	3.074002e+12	0.000000e+00	6.130653e-01	1.411018e+14	4.358473e+14	2.146527e+14	1.014391e+04	4.548454e+03	1.870983e+03	0	4.472223e-04
1.310000e+09	3.039165e+12	0.000000e+00	6.130653e-01	1.407493e+14	4.338291e+14	2.137582e+14	1.014092e+04	4.546159e+03	1.870039e+03	0	4.455265e-04
1.320000e+09	3.004559e+12	0.000000e+00	6.130653e-01	1.403990e+14	4.318347e+14	2.128696e+14	1.013793e+04	4.543886e+03	1.869104e+03	0	4.438290e-04
1.330000e+09	2.970180e+12	0.000000e+00	6.130653e-01	1.400508e+14	4.298636e+14	2.119867e+14	1.013495e+04	4.541634e+03	1.868178e+03	0	4.421297e-04
1.340000e+09	2.936026e+12	0.000000e+00	6.130653e-01	1.397048e+14	4.279154e+14	2.111096e+14	1.013198e+04	4.539403e+03	1.867260e+03	0	4.404285e-04
1.350000e+09	2.902094e+12	0.000000e+00	6.130653e-01	1.393609e+14	4.259894e+14	2.102382e+14	1.012901e+04	4.537194e+03	1.866351e+03	0	4.387252e-04
1.360000e+09	2.868379e+12	0.000000e+00	6.130653e-01	1.390191e+14	4.240854e+14	2.093726e+14	1.012605e+04	4.535004e+03	1.865450e+03	0	4.370196e-04
