#t		Qconv[W]	Ri[Rp]		R*[Rp]		Qc[W]		Qm[W]		Qr[W]		Tcmb[K]		Tl[K]		Tup[K]		RiFlag		Bs[T]
0.000000e+00	1.687868e+13	0.000000e+00	6.130651e-01	3.160214e+14	3.603317e+15	4.531758e+14	1.148456e+04	6.607780e+03	2.592284e+03	0	7.849236e-04
1.000000e+07	1.654604e+13	0.000000e+00	6.130651e-01	3.130435e+14	3.389422e+15	4.506649e+14	1.147897e+04	6.536577e+03	2.564351e+03	0	7.797330e-04
2.000000e+07	1.621744e+13	0.000000e+00	6.130651e-01	3.101015e+14	3.198430e+15	4.481727e+14	1.147343e+04	6.470510e+03	2.538432e+03	0	7.745367e-04
3.000000e+07	1.589451e+13	0.000000e+00	6.130651e-01	3.072096e+14	3.027071e+15	4.456992e+14	1.146795e+04	6.409026e+03	2.514312e+03	0	7.693612e-04
4.000000e+07	1.557834e+13	0.000000e+00	6.130651e-01	3.043774e+14	2.872643e+15	4.432441e+14	1.146251e+04	6.351651e+03	2.491803e+03	0	7.642257e-04
5.000000e+07	1.526965e+13	0.000000e+00	6.130651e-01	3.016109e+14	2.732901e+15	4.408074e+14	1.145713e+04	6.297975e+03	2.470745e+03	0	7.591441e-04
6.000000e+07	1.496885e+13	0.000000e+00	6.130651e-01	2.989140e+14	2.605962e+15	4.383888e+14	1.145180e+04	6.247642e+03	2.450999e+03	0	7.541263e-04
7.000000e+07	1.467618e+13	0.000000e+00	6.130651e-01	2.962884e+14	2.490243e+15	4.359883e+14	1.144651e+04	6.200341e+03	2.432443e+03	0	7.491790e-04
8.000000e+07	1.439170e+13	0.000000e+00	6.130651e-01	2.937349e+14	2.384401e+15	4.336055e+14	1.144127e+04	6.155800e+03	2.414969e+03	0	7.443067e-04
9.000000e+07	1.411538e+13	0.000000e+00	6.130651e-01	2.912530e+14	2.287290e+15	4.312405e+14	1.143607e+04	6.113779e+03	2.398484e+03	0	7.395122e-04
1.000000e+08	1.384709e+13	0.000000e+00	6.130651e-01	2.888417e+14	2.197930e+15	4.288931e+14	1.143092e+04	6.074065e+03	2.382904e+03	0	7.347970e-04
1.100000e+08	1.358668e+13	0.000000e+00	6.130651e-01	2.864996e+14	2.115478e+15	4.265631e+14	1.142581e+04	6.036468e+03	2.368154e+03	0	7.301615e-04
1.200000e+08	1.333393e+13	0.000000e+00	6.130651e-01	2.842248e+14	2.039202e+15	4.242503e+14	1.142074e+04	6.000821e+03	2.354170e+03	0	7.256055e-04
1.300000e+08	1.308861e+13	0.000000e+00	6.130651e-01	2.820153e+14	1.968469e+15	4.219547e+14	1.141571e+04	5.966973e+03	2.340891e+03	0	7.211280e-04
1.400000e+08	1.285048e+13	0.000000e+00	6.130651e-01	2.798689e+14	1.902726e+15	4.196761e+14	1.141072e+04	5.934789e+03	2.328265e+03	0	7.167279e-04
1.500000e+08	1.261929e+13	0.000000e+00	6.130651e-01	2.777835e+14	1.841487e+15	4.174143e+14	1.140577e+04	5.904147e+03	2.316244e+03	0	7.124036e-04
1.600000e+08	1.239477e+13	0.000000e+00	6.130651e-01	2.757567e+14	1.784327e+15	4.151692e+14	1.140086e+04	5.874936e+03	2.304784e+03	0	7.081534e-04
1.700000e+08	1.217667e+13	0.000000e+00	6.130651e-01	2.737863e+14	1.730871e+15	4.129407e+14	1.139598e+04	5.847058e+03	2.293847e+03	0	7.039752e-04
1.800000e+08	1.196474e+13	0.000000e+00	6.130651e-01	2.718702e+14	1.680786e+15	4.107286e+14	1.139114e+04	5.820422e+03	2.283398e+03	0	6.998672e-04
1.900000e+08	1.175873e+13	0.000000e+00	6.130651e-01	2.700060e+14	1.633778e+15	4.085328e+14	1.138633e+04	5.794946e+03	2.273403e+03	0	6.958271e-04
2.000000e+08	1.155840e+13	0.000000e+00	6.130651e-01	2.681919e+14	1.589583e+15	4.063531e+14	1.138155e+04	5.770555e+03	2.263834e+03	0	6.918529e-04
2.100000e+08	1.136352e+13	0.000000e+00	6.130651e-01	2.664256e+14	1.547967e+15	4.041895e+14	1.137680e+04	5.747179e+03	2.254664e+03	0	6.879425e-04
2.200000e+08	1.117386e+13	0.000000e+00	6.130651e-01	2.647052e+14	1.508720e+15	4.020418e+14	1.137209e+04	5.724757e+03	2.245867e+03	0	6.840938e-04
2.300000e+08	1.098921e+13	0.000000e+00	6.130651e-01	2.630289e+14	1.471653e+15	3.999098e+14	1.136741e+04	5.703230e+03	2.237422e+03	0	6.803046e-04
2.400000e+08	1.080937e+13	0.000000e+00	6.130651e-01	2.613948e+14	1.436597e+15	3.977935e+14	1.136275e+04	5.682545e+03	2.229307e+03	0	6.765730e-04
2.500000e+08	1.063413e+13	0.000000e+00	6.130651e-01	2.598013e+14	1.403398e+15	3.956927e+14	1.135813e+04	5.662653e+03	2.221504e+03	0	6.728969e-04
2.600000e+08	1.046330e+13	0.000000e+00	6.130651e-01	2.582466e+14	1.371919e+15	3.936072e+14	1.135353e+04	5.643509e+03	2.213993e+03	0	6.692743e-04
2.700000e+08	1.029672e+13	0.000000e+00	6.130651e-01	2.567292e+14	1.342033e+15	3.915370e+14	1.134896e+04	5.625072e+03	2.206760e+03	0	6.657035e-04
2.800000e+08	1.013420e+13	0.000000e+00	6.130651e-01	2.552476e+14	1.313628e+15	3.894819e+14	1.134442e+04	5.607302e+03	2.199789e+03	0	6.621824e-04
2.900000e+08	9.975576e+12	0.000000e+00	6.130651e-01	2.538003e+14	1.286598e+15	3.874419e+14	1.133991e+04	5.590163e+03	2.193065e+03	0	6.587094e-04
3.000000e+08	9.820701e+12	0.000000e+00	6.130651e-01	2.523860e+14	1.260850e+15	3.854166e+14	1.133542e+04	5.573623e+03	2.186576e+03	0	6.552827e-04
3.100000e+08	9.669423e+12	0.000000e+00	6.130651e-01	2.510034e+14	1.236298e+15	3.834062e+14	1.133095e+04	5.557649e+03	2.180310e+03	0	6.519006e-04
3.200000e+08	9.521599e+12	0.000000e+00	6.130651e-01	2.496512e+14	1.212862e+15	3.814104e+14	1.132651e+04	5.542214e+03	2.174254e+03	0	6.485615e-04
3.300000e+08	9.377096e+12	0.000000e+00	6.130651e-01	2.483283e+14	1.190470e+15	3.794290e+14	1.132209e+04	5.527289e+03	2.168399e+03	0	6.452638e-04
3.400000e+08	9.235785e+12	0.000000e+00	6.130651e-01	2.470335e+14	1.169056e+15	3.774621e+14	1.131770e+04	5.512851e+03	2.162735e+03	0	6.420061e-04
3.500000e+08	9.097544e+12	0.000000e+00	6.130651e-01	2.457657e+14	1.148559e+15	3.755094e+14	1.131333e+04	5.498874e+03	2.157252e+03	0	6.387868e-04
3.600000e+08	8.962256e+12	0.000000e+00	6.130651e-01	2.445240e+14	1.128922e+15	3.735709e+14	1.130898e+04	5.485338e+03	2.151941e+03	0	6.356045e-04
3.700000e+08	8.829810e+12	0.000000e+00	6.130651e-01	2.433074e+14	1.110093e+15	3.716465e+14	1.130465e+04	5.472220e+03	2.146795e+03	0	6.324580e-04
3.800000e+08	8.700101e+12	0.000000e+00	6.130651e-01	2.421149e+14	1.092025e+15	3.697359e+14	1.130035e+04	5.459503e+03	2.141806e+03	0	6.293458e-04
3.900000e+08	8.573029e+12	0.000000e+00	6.130651e-01	2.409457e+14	1.074673e+15	3.678392e+14	1.129607e+04	5.447167e+03	2.136967e+03	0	6.262667e-04
4.000000e+08	8.448496e+12	0.000000e+00	6.130651e-01	2.397988e+14	1.057996e+15	3.659562e+14	1.129180e+04	5.435195e+03	2.132270e+03	0	6.232195e-04
4.100000e+08	8.326412e+12	0.000000e+00	6.130651e-01	2.386736e+14	1.041956e+15	3.640867e+14	1.128756e+04	5.423572e+03	2.127710e+03	0	6.202030e-04
4.200000e+08	8.206688e+12	0.000000e+00	6.130651e-01	2.375693e+14	1.026518e+15	3.622307e+14	1.128334e+04	5.412281e+03	2.123281e+03	0	6.172160e-04
4.300000e+08	8.089243e+12	0.000000e+00	6.130651e-01	2.364850e+14	1.011648e+15	3.603881e+14	1.127913e+04	5.401309e+03	2.118977e+03	0	6.142576e-04
4.400000e+08	7.973996e+12	0.000000e+00	6.130651e-01	2.354202e+14	9.973173e+14	3.585588e+14	1.127495e+04	5.390642e+03	2.114792e+03	0	6.113265e-04
4.500000e+08	7.860872e+12	0.000000e+00	6.130651e-01	2.343741e+14	9.834961e+14	3.567425e+14	1.127078e+04	5.380267e+03	2.110722e+03	0	6.084218e-04
4.600000e+08	7.749797e+12	0.000000e+00	6.130651e-01	2.333462e+14	9.701580e+14	3.549394e+14	1.126664e+04	5.370172e+03	2.106761e+03	0	6.055425e-04
4.700000e+08	7.640703e+12	0.000000e+00	6.130651e-01	2.323357e+14	9.572784e+14	3.531491e+14	1.126251e+04	5.360346e+03	2.102906e+03	0	6.026877e-04
4.800000e+08	7.533523e+12	0.000000e+00	6.130651e-01	2.313422e+14	9.448339e+14	3.513717e+14	1.125840e+04	5.350777e+03	2.099152e+03	0	5.998563e-04
4.900000e+08	7.428195e+12	0.000000e+00	6.130651e-01	2.303650e+14	9.328030e+14	3.496070e+14	1.125430e+04	5.341456e+03	2.095495e+03	0	5.970476e-04
5.000000e+08	7.324656e+12	0.000000e+00	6.130651e-01	2.294037e+14	9.211652e+14	3.478550e+14	1.125023e+04	5.332372e+03	2.091932e+03	0	5.942606e-04
5.100000e+08	7.222850e+12	0.000000e+00	6.130651e-01	2.284577e+14	9.099016e+14	3.461154e+14	1.124617e+04	5.323516e+03	2.088458e+03	0	5.914945e-04
5.200000e+08	7.122721e+12	0.000000e+00	6.130651e-01	2.275266e+14	8.989942e+14	3.443883e+14	1.124212e+04	5.314880e+03	2.085070e+03	0	5.887486e-04
5.300000e+08	7.024216e+12	0.000000e+00	6.130651e-01	2.266098e+14	8.884262e+14	3.426735e+14	1.123810e+04	5.306455e+03	2.081764e+03	0	5.860219e-04
5.400000e+08	6.927284e+12	0.000000e+00	6.130651e-01	2.257070e+14	8.781819e+14	3.409709e+14	1.123409e+04	5.298233e+03	2.078539e+03	0	5.833137e-04
5.500000e+08	6.831876e+12	0.000000e+00	6.130651e-01	2.248177e+14	8.682464e+14	3.392804e+14	1.123010e+04	5.290206e+03	2.075390e+03	0	5.806234e-04
5.600000e+08	6.737945e+12	0.000000e+00	6.130651e-01	2.239414e+14	8.586058e+14	3.376019e+14	1.122612e+04	5.282368e+03	2.072315e+03	0	5.779501e-04
5.700000e+08	6.645447e+12	0.000000e+00	6.130651e-01	2.230779e+14	8.492469e+14	3.359354e+14	1.122215e+04	5.274712e+03	2.069311e+03	0	5.752932e-04
5.800000e+08	6.554338e+12	0.000000e+00	6.130651e-01	2.222267e+14	8.401572e+14	3.342806e+14	1.121821e+04	5.267230e+03	2.066376e+03	0	5.726520e-04
5.900000e+08	6.464578e+12	0.000000e+00	6.130651e-01	2.213874e+14	8.313250e+14	3.326376e+14	1.121428e+04	5.259917e+03	2.063507e+03	0	5.700259e-04
6.000000e+08	6.376126e+12	0.000000e+00	6.130651e-01	2.205598e+14	8.227393e+14	3.310063e+14	1.121036e+04	5.252767e+03	2.060702e+03	0	5.674142e-04
6.100000e+08	6.288945e+12	0.000000e+00	6.130651e-01	2.197434e+14	8.143896e+14	3.293864e+14	1.120646e+04	5.245774e+03	2.057959e+03	0	5.648162e-04
6.200000e+08	6.202998e+12	0.000000e+00	6.130651e-01	2.189380e+14	8.062661e+14	3.277780e+14	1.120257e+04	5.238932e+03	2.055275e+03	0	5.622314e-04
6.300000e+08	6.118250e+12	0.000000e+00	6.130651e-01	2.181432e+14	7.983592e+14	3.261810e+14	1.119869e+04	5.232237e+03	2.052648e+03	0	5.596592e-04
6.400000e+08	6.034667e+12	0.000000e+00	6.130651e-01	2.173588e+14	7.906603e+14	3.245953e+14	1.119483e+04	5.225683e+03	2.050077e+03	0	5.570989e-04
6.500000e+08	5.952217e+12	0.000000e+00	6.130651e-01	2.165845e+14	7.831609e+14	3.230207e+14	1.119099e+04	5.219266e+03	2.047560e+03	0	5.545501e-04
6.600000e+08	5.870868e+12	0.000000e+00	6.130651e-01	2.158199e+14	7.758529e+14	3.214571e+14	1.118715e+04	5.212981e+03	2.045094e+03	0	5.520122e-04
6.700000e+08	5.790591e+12	0.000000e+00	6.130651e-01	2.150649e+14	7.687289e+14	3.199046e+14	1.118334e+04	5.206824e+03	2.042678e+03	0	5.494846e-04
6.800000e+08	5.711356e+12	0.000000e+00	6.130651e-01	2.143191e+14	7.617817e+14	3.183630e+14	1.117953e+04	5.200790e+03	2.040311e+03	0	5.469668e-04
6.900000e+08	5.633136e+12	0.000000e+00	6.130651e-01	2.135824e+14	7.550045e+14	3.168322e+14	1.117574e+04	5.194876e+03	2.037991e+03	0	5.444583e-04
7.000000e+08	5.555904e+12	0.000000e+00	6.130651e-01	2.128544e+14	7.483907e+14	3.153121e+14	1.117196e+04	5.189078e+03	2.035716e+03	0	5.419586e-04
7.100000e+08	5.479634e+12	0.000000e+00	6.130651e-01	2.121350e+14	7.419343e+14	3.138027e+14	1.116819e+04	5.183392e+03	2.033486e+03	0	5.394672e-04
7.200000e+08	5.404301e+12	0.000000e+00	6.130651e-01	2.114240e+14	7.356293e+14	3.123038e+14	1.116444e+04	5.177814e+03	2.031297e+03	0	5.369836e-04
7.300000e+08	5.329881e+12	0.000000e+00	6.130651e-01	2.107211e+14	7.294702e+14	3.108154e+14	1.116070e+04	5.172341e+03	2.029151e+03	0	5.345074e-04
7.400000e+08	5.256351e+12	0.000000e+00	6.130651e-01	2.100261e+14	7.234517e+14	3.093374e+14	1.115697e+04	5.166971e+03	2.027044e+03	0	5.320380e-04
7.500000e+08	5.183689e+12	0.000000e+00	6.130651e-01	2.093389e+14	7.175687e+14	3.078697e+14	1.115325e+04	5.161699e+03	2.024975e+03	0	5.295750e-04
7.600000e+08	5.111873e+12	0.000000e+00	6.130651e-01	2.086592e+14	7.118163e+14	3.064122e+14	1.114955e+04	5.156523e+03	2.022945e+03	0	5.271180e-04
7.700000e+08	5.040882e+12	0.000000e+00	6.130651e-01	2.079868e+14	7.061899e+14	3.049649e+14	1.114585e+04	5.151439e+03	2.020951e+03	0	5.246666e-04
7.800000e+08	4.970696e+12	0.000000e+00	6.130651e-01	2.073217e+14	7.006853e+14	3.035276e+14	1.114217e+04	5.146446e+03	2.018992e+03	0	5.222201e-04
7.900000e+08	4.901297e+12	0.000000e+00	6.130651e-01	2.066635e+14	6.952980e+14	3.021003e+14	1.113850e+04	5.141540e+03	2.017067e+03	0	5.197784e-04
8.000000e+08	4.832664e+12	0.000000e+00	6.130651e-01	2.060122e+14	6.900242e+14	3.006829e+14	1.113485e+04	5.136720e+03	2.015176e+03	0	5.173408e-04
8.100000e+08	4.764781e+12	0.000000e+00	6.130651e-01	2.053676e+14	6.848600e+14	2.992753e+14	1.113120e+04	5.131981e+03	2.013317e+03	0	5.149071e-04
8.200000e+08	4.697629e+12	0.000000e+00	6.130651e-01	2.047296e+14	6.798018e+14	2.978775e+14	1.112757e+04	5.127323e+03	2.011489e+03	0	5.124767e-04
8.300000e+08	4.631193e+12	0.000000e+00	6.130651e-01	2.040979e+14	6.748459e+14	2.964893e+14	1.112395e+04	5.122742e+03	2.009692e+03	0	5.100493e-04
8.400000e+08	4.565454e+12	0.000000e+00	6.130651e-01	2.034725e+14	6.699892e+14	2.951107e+14	1.112033e+04	5.118236e+03	2.007925e+03	0	5.076244e-04
8.500000e+08	4.500398e+12	0.000000e+00	6.130651e-01	2.028532e+14	6.652282e+14	2.937416e+14	1.111673e+04	5.113804e+03	2.006186e+03	0	5.052018e-04
8.600000e+08	4.436009e+12	0.000000e+00	6.130651e-01	2.022398e+14	6.605601e+14	2.923820e+14	1.111314e+04	5.109444e+03	2.004475e+03	0	5.027808e-04
8.700000e+08	4.372273e+12	0.000000e+00	6.130651e-01	2.016323e+14	6.559818e+14	2.910317e+14	1.110956e+04	5.105152e+03	2.002792e+03	0	5.003612e-04
8.800000e+08	4.309175e+12	0.000000e+00	6.130651e-01	2.010305e+14	6.514904e+14	2.896907e+14	1.110600e+04	5.100928e+03	2.001135e+03	0	4.979426e-04
8.900000e+08	4.246702e+12	0.000000e+00	6.130651e-01	2.004343e+14	6.470834e+14	2.883590e+14	1.110244e+04	5.096770e+03	1.999503e+03	0	4.955245e-04
9.000000e+08	4.184839e+12	0.000000e+00	6.130651e-01	1.998435e+14	6.427580e+14	2.870363e+14	1.109889e+04	5.092676e+03	1.997897e+03	0	4.931066e-04
9.100000e+08	4.123575e+12	0.000000e+00	6.130651e-01	1.992582e+14	6.385118e+14	2.857228e+14	1.109536e+04	5.088643e+03	1.996315e+03	0	4.906884e-04
9.200000e+08	4.062895e+12	0.000000e+00	6.130651e-01	1.986780e+14	6.343423e+14	2.844182e+14	1.109183e+04	5.084671e+03	1.994757e+03	0	4.882697e-04
9.300000e+08	4.002789e+12	0.000000e+00	6.130651e-01	1.981031e+14	6.302474e+14	2.831225e+14	1.108831e+04	5.080757e+03	1.993221e+03	0	4.858499e-04
9.400000e+08	3.943244e+12	0.000000e+00	6.130651e-01	1.975331e+14	6.262247e+14	2.818357e+14	1.108481e+04	5.076901e+03	1.991709e+03	0	4.834287e-04
9.500000e+08	3.884249e+12	0.000000e+00	6.130651e-01	1.969681e+14	6.222722e+14	2.805577e+14	1.108131e+04	5.073101e+03	1.990218e+03	0	4.810057e-04
9.600000e+08	3.825793e+12	0.000000e+00	6.130651e-01	1.964079e+14	6.183877e+14	2.792884e+14	1.107783e+04	5.069355e+03	1.988748e+03	0	4.785805e-04
9.700000e+08	3.767865e+12	0.000000e+00	6.130651e-01	1.958525e+14	6.145694e+14	2.780278e+14	1.107435e+04	5.065662e+03	1.987299e+03	0	4.761528e-04
9.800000e+08	3.710454e+12	0.000000e+00	6.130651e-01	1.953017e+14	6.108154e+14	2.767757e+14	1.107088e+04	5.062020e+03	1.985871e+03	0	4.737220e-04
9.900000e+08	3.653550e+12	0.000000e+00	6.130651e-01	1.947554e+14	6.071237e+14	2.755321e+14	1.106743e+04	5.058429e+03	1.984462e+03	0	4.712878e-04
1.000000e+09	3.597144e+12	0.000000e+00	6.130651e-01	1.942137e+14	6.034928e+14	2.742970e+14	1.106398e+04	5.054887e+03	1.983072e+03	0	4.688499e-04
1.010000e+09	3.541226e+12	0.000000e+00	6.130651e-01	1.936763e+14	5.999208e+14	2.730703e+14	1.106055e+04	5.051392e+03	1.981701e+03	0	4.664077e-04
1.020000e+09	3.485786e+12	0.000000e+00	6.130651e-01	1.931432e+14	5.964062e+14	2.718518e+14	1.105712e+04	5.047944e+03	1.980348e+03	0	4.639610e-04
1.030000e+09	3.430816e+12	0.000000e+00	6.130651e-01	1.926144e+14	5.929474e+14	2.706416e+14	1.105370e+04	5.044541e+03	1.979014e+03	0	4.615092e-04
1.040000e+09	3.376306e+12	0.000000e+00	6.130651e-01	1.920897e+14	5.895428e+14	2.694396e+14	1.105029e+04	5.041183e+03	1.977696e+03	0	4.590519e-04
1.050000e+09	3.322249e+12	0.000000e+00	6.130651e-01	1.915691e+14	5.861911e+14	2.682457e+14	1.104689e+04	5.037868e+03	1.976396e+03	0	4.565888e-04
1.060000e+09	3.268636e+12	0.000000e+00	6.130651e-01	1.910525e+14	5.828909e+14	2.670599e+14	1.104350e+04	5.034595e+03	1.975112e+03	0	4.541194e-04
1.070000e+09	3.215459e+12	0.000000e+00	6.130651e-01	1.905398e+14	5.796407e+14	2.658820e+14	1.104012e+04	5.031363e+03	1.973844e+03	0	4.516433e-04
1.080000e+09	3.162710e+12	0.000000e+00	6.130651e-01	1.900310e+14	5.764392e+14	2.647121e+14	1.103675e+04	5.028172e+03	1.972592e+03	0	4.491599e-04
1.090000e+09	3.110381e+12	0.000000e+00	6.130651e-01	1.895259e+14	5.732853e+14	2.635501e+14	1.103339e+04	5.025019e+03	1.971355e+03	0	4.466689e-04
1.100000e+09	3.058466e+12	0.000000e+00	6.130651e-01	1.890246e+14	5.701777e+14	2.623958e+14	1.103003e+04	5.021905e+03	1.970133e+03	0	4.441699e-04
1.110000e+09	3.006956e+12	0.000000e+00	6.130651e-01	1.885270e+14	5.671152e+14	2.612493e+14	1.102669e+04	5.018829e+03	1.968926e+03	0	4.416622e-04
1.120000e+09	2.955846e+12	0.000000e+00	6.130651e-01	1.880330e+14	5.640967e+14	2.601104e+14	1.102335e+04	5.015789e+03	1.967734e+03	0	4.391455e-04
1.130000e+09	2.905128e+12	0.000000e+00	6.130651e-01	1.875425e+14	5.611211e+14	2.589792e+14	1.102002e+04	5.012784e+03	1.966555e+03	0	4.366193e-04
1.140000e+09	2.854795e+12	0.000000e+00	6.130651e-01	1.870555e+14	5.581873e+14	2.578556e+14	1.101670e+04	5.009815e+03	1.965390e+03	0	4.340831e-04
1.150000e+09	2.804841e+12	0.000000e+00	6.130651e-01	1.865719e+14	5.552944e+14	2.567394e+14	1.101339e+04	5.006880e+03	1.964239e+03	0	4.315362e-04
1.160000e+09	2.755259e+12	0.000000e+00	6.130651e-01	1.860917e+14	5.524412e+14	2.556307e+14	1.101009e+04	5.003978e+03	1.963100e+03	0	4.289783e-04
1.170000e+09	2.706045e+12	0.000000e+00	6.130651e-01	1.856148e+14	5.496269e+14	2.545294e+14	1.100680e+04	5.001108e+03	1.961974e+03	0	4.264088e-04
1.180000e+09	2.657191e+12	0.000000e+00	6.130651e-01	1.851411e+14	5.468505e+14	2.534354e+14	1.100351e+04	4.998271e+03	1.960861e+03	0	4.238272e-04
1.190000e+09	2.608692e+12	0.000000e+00	6.130651e-01	1.846707e+14	5.441112e+14	2.523487e+14	1.100024e+04	4.995464e+03	1.959760e+03	0	4.212328e-04
1.200000e+09	2.560542e+12	0.000000e+00	6.130651e-01	1.842034e+14	5.414080e+14	2.512692e+14	1.099697e+04	4.992689e+03	1.958671e+03	0	4.186250e-04
1.210000e+09	2.512736e+12	0.000000e+00	6.130651e-01	1.837393e+14	5.387401e+14	2.501968e+14	1.099371e+04	4.989943e+03	1.957594e+03	0	4.160033e-04
1.220000e+09	2.465268e+12	0.000000e+00	6.130651e-01	1.832782e+14	5.361068e+14	2.491316e+14	1.099046e+04	4.987226e+03	1.956528e+03	0	4.133671e-04
1.230000e+09	2.418133e+12	0.000000e+00	6.130651e-01	1.828201e+14	5.335071e+14	2.480734e+14	1.098721e+04	4.984538e+03	1.955474e+03	0	4.107156e-04
1.240000e+09	2.371325e+12	0.000000e+00	6.130651e-01	1.823650e+14	5.309405e+14	2.470222e+14	1.098398e+04	4.981877e+03	1.954430e+03	0	4.080483e-04
1.250000e+09	2.324841e+12	0.000000e+00	6.130651e-01	1.819129e+14	5.284060e+14	2.459779e+14	1.098075e+04	4.979244e+03	1.953397e+03	0	4.053644e-04
1.260000e+09	2.278675e+12	0.000000e+00	6.130651e-01	1.814636e+14	5.259031e+14	2.449406e+14	1.097753e+04	4.976638e+03	1.952375e+03	0	4.026633e-04
1.270000e+09	2.232822e+12	0.000000e+00	6.130651e-01	1.810172e+14	5.234309e+14	2.439100e+14	1.097432e+04	4.974058e+03	1.951363e+03	0	3.999441e-04
1.280000e+09	2.187278e+12	0.000000e+00	6.130651e-01	1.805735e+14	5.209889e+14	2.428863e+14	1.097112e+04	4.971504e+03	1.950360e+03	0	3.972061e-04
1.290000e+09	2.142038e+12	0.000000e+00	6.130651e-01	1.801327e+14	5.185763e+14	2.418692e+14	1.096792e+04	4.968975e+03	1.949368e+03	0	3.944485e-04
1.300000e+09	2.097098e+12	0.000000e+00	6.130651e-01	1.796945e+14	5.161926e+14	2.408589e+14	1.096473e+04	4.966471e+03	1.948386e+03	0	3.916704e-04
1.310000e+09	2.052453e+12	0.000000e+00	6.130651e-01	1.792591e+14	5.138372e+14	2.398551e+14	1.096155e+04	4.963990e+03	1.947413e+03	0	3.888711e-04
1.320000e+09	2.008100e+12	0.000000e+00	6.130651e-01	1.788263e+14	5.115093e+14	2.388580e+14	1.095838e+04	4.961534e+03	1.946449e+03	0	3.860495e-04
1.330000e+09	1.964033e+12	0.000000e+00	6.130651e-01	1.783961e+14	5.092085e+14	2.378673e+14	1.095522e+04	4.959100e+03	1.945494e+03	0	3.832047e-04
1.340000e+09	1.920250e+12	0.000000e+00	6.130651e-01	1.779685e+14	5.069342e+14	2.368831e+14	1.095206e+04	4.956689e+03	1.944549e+03	0	3.803357e-04
1.350000e+09	1.876746e+12	0.000000e+00	6.130651e-01	1.775434e+14	5.046858e+14	2.359054e+14	1.094891e+04	4.954301e+03	1.943611e+03	0	3.774415e-04
1.360000e+09	1.833517e+12	0.000000e+00	6.130651e-01	1.771208e+14	5.024629e+14	2.349340e+14	1.094577e+04	4.951934e+03	1.942683e+03	0	3.745210e-04
