#t		Qconv[W]	Ri[Rp]		R*[Rp]		Qc[W]		Qm[W]		Qr[W]		Tcmb[K]		Tl[K]		Tup[K]		RiFlag		Bs[T]
0.000000e+00	1.868808e+13	0.000000e+00	6.080403e-01	4.398920e+14	3.713201e+15	5.364104e+14	1.317349e+04	7.453543e+03	2.679327e+03	0	8.142260e-04
1.000000e+07	1.828736e+13	0.000000e+00	6.080403e-01	4.364473e+14	3.539748e+15	5.334383e+14	1.316736e+04	7.392985e+03	2.657558e+03	0	8.083642e-04
2.000000e+07	1.789333e+13	0.000000e+00	6.080403e-01	4.330588e+14	3.381587e+15	5.304885e+14	1.316128e+04	7.336064e+03	2.637097e+03	0	8.025161e-04
3.000000e+07	1.750678e+13	0.000000e+00	6.080403e-01	4.297332e+14	3.236896e+15	5.275606e+14	1.315524e+04	7.282456e+03	2.617826e+03	0	7.966950e-04
4.000000e+07	1.712825e+13	0.000000e+00	6.080403e-01	4.264750e+14	3.104122e+15	5.246546e+14	1.314925e+04	7.231872e+03	2.599643e+03	0	7.909112e-04
5.000000e+07	1.675809e+13	0.000000e+00	6.080403e-01	4.232869e+14	2.981931e+15	5.217703e+14	1.314331e+04	7.184058e+03	2.582455e+03	0	7.851722e-04
6.000000e+07	1.639647e+13	0.000000e+00	6.080403e-01	4.201703e+14	2.869175e+15	5.189075e+14	1.313741e+04	7.138788e+03	2.566182e+03	0	7.794833e-04
7.000000e+07	1.604346e+13	0.000000e+00	6.080403e-01	4.171258e+14	2.764859e+15	5.160661e+14	1.313155e+04	7.095860e+03	2.550751e+03	0	7.738487e-04
8.000000e+07	1.569903e+13	0.000000e+00	6.080403e-01	4.141532e+14	2.668120e+15	5.132457e+14	1.312573e+04	7.055093e+03	2.536096e+03	0	7.682708e-04
9.000000e+07	1.536311e+13	0.000000e+00	6.080403e-01	4.112517e+14	2.578204e+15	5.104463e+14	1.311996e+04	7.016325e+03	2.522160e+03	0	7.627514e-04
1.000000e+08	1.503554e+13	0.000000e+00	6.080403e-01	4.084202e+14	2.494448e+15	5.076677e+14	1.311423e+04	6.979411e+03	2.508891e+03	0	7.572914e-04
1.100000e+08	1.471616e+13	0.000000e+00	6.080403e-01	4.056572e+14	2.416272e+15	5.049098e+14	1.310854e+04	6.944218e+03	2.496240e+03	0	7.518909e-04
1.200000e+08	1.440477e+13	0.000000e+00	6.080403e-01	4.029611e+14	2.343164e+15	5.021722e+14	1.310288e+04	6.910626e+03	2.484165e+03	0	7.465498e-04
1.300000e+08	1.410116e+13	0.000000e+00	6.080403e-01	4.003301e+14	2.274669e+15	4.994550e+14	1.309726e+04	6.878527e+03	2.472626e+03	0	7.412675e-04
1.400000e+08	1.380510e+13	0.000000e+00	6.080403e-01	3.977623e+14	2.210384e+15	4.967578e+14	1.309168e+04	6.847823e+03	2.461589e+03	0	7.360431e-04
1.500000e+08	1.351636e+13	0.000000e+00	6.080403e-01	3.952558e+14	2.149950e+15	4.940806e+14	1.308614e+04	6.818423e+03	2.451020e+03	0	7.308753e-04
1.600000e+08	1.323471e+13	0.000000e+00	6.080403e-01	3.928086e+14	2.093047e+15	4.914232e+14	1.308063e+04	6.790245e+03	2.440891e+03	0	7.257631e-04
1.700000e+08	1.295991e+13	0.000000e+00	6.080403e-01	3.904188e+14	2.039387e+15	4.887853e+14	1.307515e+04	6.763213e+03	2.431174e+03	0	7.207048e-04
1.800000e+08	1.269173e+13	0.000000e+00	6.080403e-01	3.880844e+14	1.988712e+15	4.861669e+14	1.306971e+04	6.737258e+03	2.421844e+03	0	7.156989e-04
1.900000e+08	1.242994e+13	0.000000e+00	6.080403e-01	3.858035e+14	1.940790e+15	4.835678e+14	1.306430e+04	6.712316e+03	2.412878e+03	0	7.107438e-04
2.000000e+08	1.217432e+13	0.000000e+00	6.080403e-01	3.835743e+14	1.895412e+15	4.809879e+14	1.305892e+04	6.688329e+03	2.404255e+03	0	7.058379e-04
2.100000e+08	1.192465e+13	0.000000e+00	6.080403e-01	3.813950e+14	1.852388e+15	4.784269e+14	1.305357e+04	6.665241e+03	2.395956e+03	0	7.009794e-04
2.200000e+08	1.168072e+13	0.000000e+00	6.080403e-01	3.792637e+14	1.811546e+15	4.758847e+14	1.304826e+04	6.643003e+03	2.387962e+03	0	6.961667e-04
2.300000e+08	1.144232e+13	0.000000e+00	6.080403e-01	3.771788e+14	1.772731e+15	4.733611e+14	1.304297e+04	6.621569e+03	2.380257e+03	0	6.913979e-04
2.400000e+08	1.120925e+13	0.000000e+00	6.080403e-01	3.751386e+14	1.735801e+15	4.708561e+14	1.303771e+04	6.600894e+03	2.372825e+03	0	6.866713e-04
2.500000e+08	1.098133e+13	0.000000e+00	6.080403e-01	3.731415e+14	1.700626e+15	4.683694e+14	1.303248e+04	6.580939e+03	2.365652e+03	0	6.819853e-04
2.600000e+08	1.075837e+13	0.000000e+00	6.080403e-01	3.711861e+14	1.667088e+15	4.659009e+14	1.302728e+04	6.561667e+03	2.358724e+03	0	6.773381e-04
2.700000e+08	1.054019e+13	0.000000e+00	6.080403e-01	3.692707e+14	1.635079e+15	4.634505e+14	1.302211e+04	6.543043e+03	2.352030e+03	0	6.727280e-04
2.800000e+08	1.032662e+13	0.000000e+00	6.080403e-01	3.673941e+14	1.604501e+15	4.610180e+14	1.301696e+04	6.525034e+03	2.345556e+03	0	6.681533e-04
2.900000e+08	1.011751e+13	0.000000e+00	6.080403e-01	3.655548e+14	1.575261e+15	4.586032e+14	1.301184e+04	6.507610e+03	2.339292e+03	0	6.636125e-04
3.000000e+08	9.912683e+12	0.000000e+00	6.080403e-01	3.637515e+14	1.547277e+15	4.562060e+14	1.300674e+04	6.490743e+03	2.333229e+03	0	6.591037e-04
3.100000e+08	9.712002e+12	0.000000e+00	6.080403e-01	3.619830e+14	1.520471e+15	4.538263e+14	1.300167e+04	6.474405e+03	2.327356e+03	0	6.546256e-04
3.200000e+08	9.515320e+12	0.000000e+00	6.080403e-01	3.602482e+14	1.494772e+15	4.514639e+14	1.299662e+04	6.458573e+03	2.321665e+03	0	6.501763e-04
3.300000e+08	9.322498e+12	0.000000e+00	6.080403e-01	3.585457e+14	1.470114e+15	4.491186e+14	1.299160e+04	6.443223e+03	2.316147e+03	0	6.457545e-04
3.400000e+08	9.133403e+12	0.000000e+00	6.080403e-01	3.568745e+14	1.446438e+15	4.467904e+14	1.298660e+04	6.428332e+03	2.310794e+03	0	6.413586e-04
3.500000e+08	8.947910e+12	0.000000e+00	6.080403e-01	3.552337e+14	1.423686e+15	4.444791e+14	1.298163e+04	6.413881e+03	2.305599e+03	0	6.369870e-04
3.600000e+08	8.765896e+12	0.000000e+00	6.080403e-01	3.536220e+14	1.401807e+15	4.421846e+14	1.297667e+04	6.399849e+03	2.300555e+03	0	6.326383e-04
3.700000e+08	8.587246e+12	0.000000e+00	6.080403e-01	3.520387e+14	1.380752e+15	4.399066e+14	1.297174e+04	6.386218e+03	2.295656e+03	0	6.283110e-04
3.800000e+08	8.411846e+12	0.000000e+00	6.080403e-01	3.504827e+14	1.360476e+15	4.376452e+14	1.296683e+04	6.372972e+03	2.290894e+03	0	6.240037e-04
3.900000e+08	8.239590e+12	0.000000e+00	6.080403e-01	3.489531e+14	1.340937e+15	4.354001e+14	1.296195e+04	6.360093e+03	2.286264e+03	0	6.197149e-04
4.000000e+08	8.070377e+12	0.000000e+00	6.080403e-01	3.474492e+14	1.322096e+15	4.331712e+14	1.295708e+04	6.347567e+03	2.281762e+03	0	6.154432e-04
4.100000e+08	7.904106e+12	0.000000e+00	6.080403e-01	3.459700e+14	1.303917e+15	4.309584e+14	1.295224e+04	6.335378e+03	2.277380e+03	0	6.111872e-04
4.200000e+08	7.740684e+12	0.000000e+00	6.080403e-01	3.445149e+14	1.286366e+15	4.287615e+14	1.294742e+04	6.323513e+03	2.273115e+03	0	6.069457e-04
4.300000e+08	7.580021e+12	0.000000e+00	6.080403e-01	3.430829e+14	1.269411e+15	4.265805e+14	1.294261e+04	6.311959e+03	2.268962e+03	0	6.027171e-04
4.400000e+08	7.422029e+12	0.000000e+00	6.080403e-01	3.416735e+14	1.253022e+15	4.244151e+14	1.293783e+04	6.300704e+03	2.264916e+03	0	5.985001e-04
4.500000e+08	7.266626e+12	0.000000e+00	6.080403e-01	3.402859e+14	1.237171e+15	4.222653e+14	1.293307e+04	6.289736e+03	2.260973e+03	0	5.942935e-04
4.600000e+08	7.113732e+12	0.000000e+00	6.080403e-01	3.389195e+14	1.221833e+15	4.201310e+14	1.292832e+04	6.279043e+03	2.257129e+03	0	5.900958e-04
4.700000e+08	6.963270e+12	0.000000e+00	6.080403e-01	3.375735e+14	1.206983e+15	4.180119e+14	1.292360e+04	6.268615e+03	2.253381e+03	0	5.859058e-04
4.800000e+08	6.815166e+12	0.000000e+00	6.080403e-01	3.362475e+14	1.192597e+15	4.159080e+14	1.291889e+04	6.258442e+03	2.249724e+03	0	5.817220e-04
4.900000e+08	6.669349e+12	0.000000e+00	6.080403e-01	3.349408e+14	1.178655e+15	4.138192e+14	1.291420e+04	6.248514e+03	2.246155e+03	0	5.775433e-04
5.000000e+08	6.525752e+12	0.000000e+00	6.080403e-01	3.336528e+14	1.165136e+15	4.117454e+14	1.290953e+04	6.238823e+03	2.242671e+03	0	5.733681e-04
5.100000e+08	6.384310e+12	0.000000e+00	6.080403e-01	3.323830e+14	1.152020e+15	4.096863e+14	1.290488e+04	6.229359e+03	2.239269e+03	0	5.691954e-04
5.200000e+08	6.244960e+12	0.000000e+00	6.080403e-01	3.311309e+14	1.139290e+15	4.076420e+14	1.290025e+04	6.220114e+03	2.235946e+03	0	5.650236e-04
5.300000e+08	6.107641e+12	0.000000e+00	6.080403e-01	3.298959e+14	1.126929e+15	4.056122e+14	1.289563e+04	6.211081e+03	2.232699e+03	0	5.608515e-04
5.400000e+08	5.972296e+12	0.000000e+00	6.080403e-01	3.286776e+14	1.114921e+15	4.035969e+14	1.289103e+04	6.202252e+03	2.229525e+03	0	5.566777e-04
5.500000e+08	5.838869e+12	0.000000e+00	6.080403e-01	3.274756e+14	1.103250e+15	4.015959e+14	1.288645e+04	6.193620e+03	2.226422e+03	0	5.525008e-04
5.600000e+08	5.707306e+12	0.000000e+00	6.080403e-01	3.262893e+14	1.091902e+15	3.996091e+14	1.288188e+04	6.185178e+03	2.223388e+03	0	5.483196e-04
5.700000e+08	5.577556e+12	0.000000e+00	6.080403e-01	3.251184e+14	1.080863e+15	3.976365e+14	1.287733e+04	6.176919e+03	2.220419e+03	0	5.441325e-04
5.800000e+08	5.449568e+12	0.000000e+00	6.080403e-01	3.239624e+14	1.070122e+15	3.956778e+14	1.287280e+04	6.168837e+03	2.217514e+03	0	5.399382e-04
5.900000e+08	5.323296e+12	0.000000e+00	6.080403e-01	3.228209e+14	1.059665e+15	3.937331e+14	1.286828e+04	6.160926e+03	2.214670e+03	0	5.357353e-04
6.000000e+08	5.198692e+12	0.000000e+00	6.080403e-01	3.216935e+14	1.049481e+15	3.918021e+14	1.286378e+04	6.153181e+03	2.211886e+03	0	5.315222e-04
6.100000e+08	5.075714e+12	0.000000e+00	6.080403e-01	3.205799e+14	1.039560e+15	3.898847e+14	1.285929e+04	6.145595e+03	2.209159e+03	0	5.272975e-04
6.200000e+08	4.954316e+12	0.000000e+00	6.080403e-01	3.194797e+14	1.029890e+15	3.879809e+14	1.285483e+04	6.138165e+03	2.206488e+03	0	5.230597e-04
6.300000e+08	4.834460e+12	0.000000e+00	6.080403e-01	3.183926e+14	1.020463e+15	3.860906e+14	1.285037e+04	6.130884e+03	2.203870e+03	0	5.188072e-04
6.400000e+08	4.716104e+12	0.000000e+00	6.080403e-01	3.173182e+14	1.011268e+15	3.842135e+14	1.284593e+04	6.123747e+03	2.201305e+03	0	5.145384e-04
6.500000e+08	4.599210e+12	0.000000e+00	6.080403e-01	3.162563e+14	1.002296e+15	3.823497e+14	1.284151e+04	6.116751e+03	2.198790e+03	0	5.102517e-04
6.600000e+08	4.483742e+12	0.000000e+00	6.080403e-01	3.152064e+14	9.935407e+14	3.804991e+14	1.283710e+04	6.109891e+03	2.196324e+03	0	5.059453e-04
6.700000e+08	4.369664e+12	0.000000e+00	6.080403e-01	3.141683e+14	9.849922e+14	3.786614e+14	1.283270e+04	6.103163e+03	2.193906e+03	0	5.016175e-04
6.800000e+08	4.256940e+12	0.000000e+00	6.080403e-01	3.131418e+14	9.766435e+14	3.768366e+14	1.282832e+04	6.096561e+03	2.191533e+03	0	4.972665e-04
6.900000e+08	4.145539e+12	0.000000e+00	6.080403e-01	3.121264e+14	9.684872e+14	3.750247e+14	1.282396e+04	6.090084e+03	2.189204e+03	0	4.928904e-04
7.000000e+08	4.035427e+12	0.000000e+00	6.080403e-01	3.111221e+14	9.605163e+14	3.732254e+14	1.281960e+04	6.083726e+03	2.186919e+03	0	4.884872e-04
7.100000e+08	3.926574e+12	0.000000e+00	6.080403e-01	3.101284e+14	9.527243e+14	3.714387e+14	1.281527e+04	6.077484e+03	2.184675e+03	0	4.840549e-04
7.200000e+08	3.818949e+12	0.000000e+00	6.080403e-01	3.091452e+14	9.451048e+14	3.696646e+14	1.281094e+04	6.071355e+03	2.182472e+03	0	4.795913e-04
7.300000e+08	3.712525e+12	0.000000e+00	6.080403e-01	3.081723e+14	9.376518e+14	3.679028e+14	1.280663e+04	6.065335e+03	2.180308e+03	0	4.750943e-04
7.400000e+08	3.607271e+12	0.000000e+00	6.080403e-01	3.072093e+14	9.303596e+14	3.661533e+14	1.280233e+04	6.059422e+03	2.178182e+03	0	4.705614e-04
7.500000e+08	3.503163e+12	0.000000e+00	6.080403e-01	3.062560e+14	9.232226e+14	3.644160e+14	1.279805e+04	6.053611e+03	2.176093e+03	0	4.659902e-04
7.600000e+08	3.400172e+12	0.000000e+00	6.080403e-01	3.053123e+14	9.162356e+14	3.626908e+14	1.279378e+04	6.047900e+03	2.174040e+03	0	4.613781e-04
7.700000e+08	3.298275e+12	0.000000e+00	6.080403e-01	3.043779e+14	9.093936e+14	3.609777e+14	1.278952e+04	6.042287e+03	2.172023e+03	0	4.567224e-04
7.800000e+08	3.197445e+12	0.000000e+00	6.080403e-01	3.034526e+14	9.026917e+14	3.592764e+14	1.278528e+04	6.036768e+03	2.170039e+03	0	4.520201e-04
7.900000e+08	3.097661e+12	0.000000e+00	6.080403e-01	3.025362e+14	8.961253e+14	3.575869e+14	1.278105e+04	6.031340e+03	2.168088e+03	0	4.472682e-04
8.000000e+08	2.998898e+12	0.000000e+00	6.080403e-01	3.016285e+14	8.896901e+14	3.559092e+14	1.277683e+04	6.026002e+03	2.166169e+03	0	4.424633e-04
8.100000e+08	2.901134e+12	0.000000e+00	6.080403e-01	3.007294e+14	8.833819e+14	3.542431e+14	1.277262e+04	6.020750e+03	2.164281e+03	0	4.376020e-04
8.200000e+08	2.804348e+12	0.000000e+00	6.080403e-01	2.998386e+14	8.771965e+14	3.525885e+14	1.276843e+04	6.015582e+03	2.162423e+03	0	4.326805e-04
8.300000e+08	2.708519e+12	0.000000e+00	6.080403e-01	2.989560e+14	8.711301e+14	3.509454e+14	1.276425e+04	6.010497e+03	2.160595e+03	0	4.276948e-04
8.400000e+08	2.613626e+12	0.000000e+00	6.080403e-01	2.980814e+14	8.651790e+14	3.493136e+14	1.276008e+04	6.005491e+03	2.158795e+03	0	4.226406e-04
8.500000e+08	2.519650e+12	0.000000e+00	6.080403e-01	2.972146e+14	8.593397e+14	3.476931e+14	1.275592e+04	6.000563e+03	2.157024e+03	0	4.175131e-04
8.600000e+08	2.426572e+12	0.000000e+00	6.080403e-01	2.963556e+14	8.536086e+14	3.460837e+14	1.275178e+04	5.995710e+03	2.155279e+03	0	4.123074e-04
8.700000e+08	2.334374e+12	0.000000e+00	6.080403e-01	2.955040e+14	8.479826e+14	3.444854e+14	1.274765e+04	5.990930e+03	2.153561e+03	0	4.070179e-04
8.800000e+08	2.243037e+12	0.000000e+00	6.080403e-01	2.946599e+14	8.424584e+14	3.428981e+14	1.274353e+04	5.986222e+03	2.151869e+03	0	4.016387e-04
8.900000e+08	2.152544e+12	0.000000e+00	6.080403e-01	2.938229e+14	8.370330e+14	3.413217e+14	1.273942e+04	5.981584e+03	2.150202e+03	0	3.961631e-04
9.000000e+08	2.062879e+12	0.000000e+00	6.080403e-01	2.929931e+14	8.317035e+14	3.397562e+14	1.273532e+04	5.977014e+03	2.148559e+03	0	3.905841e-04
9.100000e+08	1.974024e+12	0.000000e+00	6.080403e-01	2.921702e+14	8.264672e+14	3.382013e+14	1.273124e+04	5.972509e+03	2.146940e+03	0	3.848938e-04
9.200000e+08	1.885965e+12	0.000000e+00	6.080403e-01	2.913541e+14	8.213213e+14	3.366572e+14	1.272716e+04	5.968069e+03	2.145344e+03	0	3.790832e-04
9.300000e+08	1.798685e+12	0.000000e+00	6.080403e-01	2.905447e+14	8.162631e+14	3.351235e+14	1.272310e+04	5.963692e+03	2.143770e+03	0	3.731428e-04
9.400000e+08	1.712170e+12	0.000000e+00	6.080403e-01	2.897419e+14	8.112904e+14	3.336004e+14	1.271905e+04	5.959376e+03	2.142219e+03	0	3.670616e-04
9.500000e+08	1.626405e+12	0.000000e+00	6.080403e-01	2.889456e+14	8.064005e+14	3.320877e+14	1.271501e+04	5.955120e+03	2.140689e+03	0	3.608275e-04
9.600000e+08	1.541376e+12	0.000000e+00	6.080403e-01	2.881555e+14	8.015913e+14	3.305852e+14	1.271098e+04	5.950922e+03	2.139179e+03	0	3.544266e-04
9.700000e+08	1.457070e+12	0.000000e+00	6.080403e-01	2.873717e+14	7.968604e+14	3.290930e+14	1.270696e+04	5.946780e+03	2.137691e+03	0	3.478432e-04
9.800000e+08	1.373472e+12	0.000000e+00	6.080403e-01	2.865939e+14	7.922058e+14	3.276110e+14	1.270295e+04	5.942694e+03	2.136222e+03	0	3.410594e-04
9.900000e+08	1.290570e+12	0.000000e+00	6.080403e-01	2.858222e+14	7.876254e+14	3.261390e+14	1.269896e+04	5.938662e+03	2.134772e+03	0	3.340544e-04
1.000000e+09	1.208352e+12	0.000000e+00	6.080403e-01	2.850563e+14	7.831171e+14	3.246771e+14	1.269497e+04	5.934682e+03	2.133342e+03	0	3.268044e-04
1.010000e+09	1.126805e+12	0.000000e+00	6.080403e-01	2.842962e+14	7.786791e+14	3.232250e+14	1.269100e+04	5.930754e+03	2.131930e+03	0	3.192809e-04
1.020000e+09	1.045917e+12	0.000000e+00	6.080403e-01	2.835417e+14	7.743095e+14	3.217828e+14	1.268703e+04	5.926876e+03	2.130536e+03	0	3.114505e-04
1.030000e+09	9.656764e+11	0.000000e+00	6.080403e-01	2.827929e+14	7.700065e+14	3.203503e+14	1.268308e+04	5.923047e+03	2.129160e+03	0	3.032731e-04
1.040000e+09	8.860723e+11	0.000000e+00	6.080403e-01	2.820495e+14	7.657684e+14	3.189275e+14	1.267914e+04	5.919266e+03	2.127800e+03	0	2.946997e-04
1.050000e+09	8.070935e+11	0.000000e+00	6.080403e-01	2.813116e+14	7.615935e+14	3.175143e+14	1.267520e+04	5.915532e+03	2.126458e+03	0	2.856700e-04
1.060000e+09	7.287293e+11	0.000000e+00	6.080403e-01	2.805789e+14	7.574802e+14	3.161107e+14	1.267128e+04	5.911843e+03	2.125132e+03	0	2.761079e-04
1.070000e+09	6.509693e+11	0.000000e+00	6.080403e-01	2.798515e+14	7.534269e+14	3.147165e+14	1.266737e+04	5.908199e+03	2.123822e+03	0	2.659154e-04
1.080000e+09	5.738033e+11	0.000000e+00	6.080403e-01	2.791291e+14	7.494322e+14	3.133317e+14	1.266347e+04	5.904599e+03	2.122528e+03	0	2.549633e-04
1.090000e+09	4.972216e+11	0.000000e+00	6.080403e-01	2.784119e+14	7.454946e+14	3.119562e+14	1.265957e+04	5.901041e+03	2.121249e+03	0	2.430748e-04
1.100000e+09	4.212144e+11	0.000000e+00	6.080403e-01	2.776996e+14	7.416126e+14	3.105899e+14	1.265569e+04	5.897524e+03	2.119985e+03	0	2.299982e-04
1.110000e+09	3.457724e+11	0.000000e+00	6.080403e-01	2.769921e+14	7.377850e+14	3.092328e+14	1.265182e+04	5.894049e+03	2.118735e+03	0	2.153543e-04
1.120000e+09	2.708865e+11	0.000000e+00	6.080403e-01	2.762895e+14	7.340104e+14	3.078848e+14	1.264796e+04	5.890613e+03	2.117500e+03	0	1.985268e-04
1.130000e+09	1.965477e+11	0.000000e+00	6.080403e-01	2.755917e+14	7.302875e+14	3.065459e+14	1.264410e+04	5.887216e+03	2.116279e+03	0	1.783936e-04
1.140000e+09	1.227474e+11	0.000000e+00	6.080403e-01	2.748984e+14	7.266151e+14	3.052158e+14	1.264026e+04	5.883857e+03	2.115072e+03	0	1.524851e-04
1.150000e+09	4.947715e+10	0.000000e+00	6.080403e-01	2.742098e+14	7.229920e+14	3.038947e+14	1.263643e+04	5.880535e+03	2.113878e+03	0	1.126397e-04
1.160000e+09	-2.327133e+10	0.000000e+00	6.080403e-01	2.735257e+14	7.194171e+14	3.025823e+14	1.263260e+04	5.877250e+03	2.112697e+03	0	-nan
