#t		Qconv[W]	Ri[Rp]		R*[Rp]		Qc[W]		Qm[W]		Qr[W]		Tcmb[K]		Tl[K]		Tup[K]		RiFlag		Bs[T]
0.000000e+00	1.633003e+13	0.000000e+00	6.130652e-01	4.527325e+14	3.765476e+15	5.502000e+14	1.325296e+04	7.500809e+03	2.685827e+03	0	7.721149e-04
1.000000e+07	1.592681e+13	0.000000e+00	6.130652e-01	4.493285e+14	3.593231e+15	5.471515e+14	1.324717e+04	7.441296e+03	2.664517e+03	0	7.657069e-04
2.000000e+07	1.553011e+13	0.000000e+00	6.130652e-01	4.459784e+14	3.435908e+15	5.441258e+14	1.324143e+04	7.385299e+03	2.644466e+03	0	7.592961e-04
3.000000e+07	1.514075e+13	0.000000e+00	6.130652e-01	4.426887e+14	3.291760e+15	5.411227e+14	1.323573e+04	7.332510e+03	2.625564e+03	0	7.528967e-04
4.000000e+07	1.475926e+13	0.000000e+00	6.130652e-01	4.394638e+14	3.159292e+15	5.381420e+14	1.323007e+04	7.282653e+03	2.607711e+03	0	7.465195e-04
5.000000e+07	1.438600e+13	0.000000e+00	6.130652e-01	4.363064e+14	3.037216e+15	5.351836e+14	1.322445e+04	7.235487e+03	2.590822e+03	0	7.401726e-04
6.000000e+07	1.402117e+13	0.000000e+00	6.130652e-01	4.332183e+14	2.924423e+15	5.322472e+14	1.321887e+04	7.190794e+03	2.574819e+03	0	7.338619e-04
7.000000e+07	1.366483e+13	0.000000e+00	6.130652e-01	4.301999e+14	2.819948e+15	5.293326e+14	1.321334e+04	7.148380e+03	2.559632e+03	0	7.275917e-04
8.000000e+07	1.331700e+13	0.000000e+00	6.130652e-01	4.272512e+14	2.722951e+15	5.264398e+14	1.320784e+04	7.108074e+03	2.545199e+03	0	7.213650e-04
9.000000e+07	1.297758e+13	0.000000e+00	6.130652e-01	4.243716e+14	2.632700e+15	5.235684e+14	1.320238e+04	7.069719e+03	2.531465e+03	0	7.151836e-04
1.000000e+08	1.264647e+13	0.000000e+00	6.130652e-01	4.215601e+14	2.548548e+15	5.207184e+14	1.319695e+04	7.033173e+03	2.518380e+03	0	7.090486e-04
1.100000e+08	1.232350e+13	0.000000e+00	6.130652e-01	4.188153e+14	2.469929e+15	5.178895e+14	1.319156e+04	6.998311e+03	2.505897e+03	0	7.029605e-04
1.200000e+08	1.200848e+13	0.000000e+00	6.130652e-01	4.161358e+14	2.396339e+15	5.150816e+14	1.318621e+04	6.965017e+03	2.493975e+03	0	6.969189e-04
1.300000e+08	1.170121e+13	0.000000e+00	6.130652e-01	4.135199e+14	2.327336e+15	5.122945e+14	1.318089e+04	6.933185e+03	2.482577e+03	0	6.909233e-04
1.400000e+08	1.140148e+13	0.000000e+00	6.130652e-01	4.109658e+14	2.262521e+15	5.095280e+14	1.317560e+04	6.902720e+03	2.471668e+03	0	6.849728e-04
1.500000e+08	1.110906e+13	0.000000e+00	6.130652e-01	4.084716e+14	2.201544e+15	5.067820e+14	1.317035e+04	6.873535e+03	2.461218e+03	0	6.790661e-04
1.600000e+08	1.082373e+13	0.000000e+00	6.130652e-01	4.060356e+14	2.144087e+15	5.040562e+14	1.316513e+04	6.845550e+03	2.451197e+03	0	6.732017e-04
1.700000e+08	1.054526e+13	0.000000e+00	6.130652e-01	4.036559e+14	2.089867e+15	5.013506e+14	1.315994e+04	6.818692e+03	2.441580e+03	0	6.673781e-04
1.800000e+08	1.027341e+13	0.000000e+00	6.130652e-01	4.013305e+14	2.038630e+15	4.986649e+14	1.315477e+04	6.792893e+03	2.432342e+03	0	6.615934e-04
1.900000e+08	1.000798e+13	0.000000e+00	6.130652e-01	3.990578e+14	1.990147e+15	4.959990e+14	1.314964e+04	6.768090e+03	2.423461e+03	0	6.558458e-04
2.000000e+08	9.748738e+12	0.000000e+00	6.130652e-01	3.968359e+14	1.944211e+15	4.933527e+14	1.314454e+04	6.744228e+03	2.414916e+03	0	6.501333e-04
2.100000e+08	9.495470e+12	0.000000e+00	6.130652e-01	3.946630e+14	1.900632e+15	4.907259e+14	1.313947e+04	6.721252e+03	2.406689e+03	0	6.444537e-04
2.200000e+08	9.247970e+12	0.000000e+00	6.130652e-01	3.925375e+14	1.859242e+15	4.881183e+14	1.313442e+04	6.699114e+03	2.398763e+03	0	6.388051e-04
2.300000e+08	9.006034e+12	0.000000e+00	6.130652e-01	3.904577e+14	1.819886e+15	4.855299e+14	1.312941e+04	6.677769e+03	2.391119e+03	0	6.331853e-04
2.400000e+08	8.769468e+12	0.000000e+00	6.130652e-01	3.884221e+14	1.782422e+15	4.829605e+14	1.312441e+04	6.657173e+03	2.383745e+03	0	6.275919e-04
2.500000e+08	8.538083e+12	0.000000e+00	6.130652e-01	3.864289e+14	1.746722e+15	4.804099e+14	1.311945e+04	6.637289e+03	2.376625e+03	0	6.220229e-04
2.600000e+08	8.311695e+12	0.000000e+00	6.130652e-01	3.844769e+14	1.712669e+15	4.778779e+14	1.311451e+04	6.618079e+03	2.369746e+03	0	6.164759e-04
2.700000e+08	8.090131e+12	0.000000e+00	6.130652e-01	3.825645e+14	1.680154e+15	4.753645e+14	1.310959e+04	6.599510e+03	2.363097e+03	0	6.109487e-04
2.800000e+08	7.873220e+12	0.000000e+00	6.130652e-01	3.806903e+14	1.649079e+15	4.728694e+14	1.310470e+04	6.581549e+03	2.356666e+03	0	6.054390e-04
2.900000e+08	7.660800e+12	0.000000e+00	6.130652e-01	3.788531e+14	1.619353e+15	4.703925e+14	1.309983e+04	6.564167e+03	2.350442e+03	0	5.999443e-04
3.000000e+08	7.452715e+12	0.000000e+00	6.130652e-01	3.770515e+14	1.590892e+15	4.679337e+14	1.309499e+04	6.547335e+03	2.344415e+03	0	5.944625e-04
3.100000e+08	7.248816e+12	0.000000e+00	6.130652e-01	3.752844e+14	1.563620e+15	4.654928e+14	1.309017e+04	6.531029e+03	2.338576e+03	0	5.889909e-04
3.200000e+08	7.048958e+12	0.000000e+00	6.130652e-01	3.735506e+14	1.537465e+15	4.630697e+14	1.308537e+04	6.515223e+03	2.332916e+03	0	5.835274e-04
3.300000e+08	6.853003e+12	0.000000e+00	6.130652e-01	3.718488e+14	1.512362e+15	4.606642e+14	1.308060e+04	6.499895e+03	2.327428e+03	0	5.780693e-04
3.400000e+08	6.660819e+12	0.000000e+00	6.130652e-01	3.701781e+14	1.488250e+15	4.582761e+14	1.307584e+04	6.485023e+03	2.322102e+03	0	5.726142e-04
3.500000e+08	6.472280e+12	0.000000e+00	6.130652e-01	3.685375e+14	1.465073e+15	4.559054e+14	1.307111e+04	6.470586e+03	2.316933e+03	0	5.671597e-04
3.600000e+08	6.287262e+12	0.000000e+00	6.130652e-01	3.669258e+14	1.442777e+15	4.535519e+14	1.306640e+04	6.456565e+03	2.311913e+03	0	5.617031e-04
3.700000e+08	6.105650e+12	0.000000e+00	6.130652e-01	3.653423e+14	1.421316e+15	4.512154e+14	1.306171e+04	6.442943e+03	2.307035e+03	0	5.562417e-04
3.800000e+08	5.927332e+12	0.000000e+00	6.130652e-01	3.637858e+14	1.400642e+15	4.488958e+14	1.305704e+04	6.429703e+03	2.302294e+03	0	5.507730e-04
3.900000e+08	5.752199e+12	0.000000e+00	6.130652e-01	3.622557e+14	1.380716e+15	4.465930e+14	1.305238e+04	6.416827e+03	2.297684e+03	0	5.452942e-04
4.000000e+08	5.580148e+12	0.000000e+00	6.130652e-01	3.607509e+14	1.361496e+15	4.443068e+14	1.304775e+04	6.404302e+03	2.293199e+03	0	5.398024e-04
4.100000e+08	5.411082e+12	0.000000e+00	6.130652e-01	3.592708e+14	1.342947e+15	4.420371e+14	1.304314e+04	6.392112e+03	2.288834e+03	0	5.342948e-04
4.200000e+08	5.244904e+12	0.000000e+00	6.130652e-01	3.578145e+14	1.325035e+15	4.397838e+14	1.303855e+04	6.380245e+03	2.284584e+03	0	5.287684e-04
4.300000e+08	5.081525e+12	0.000000e+00	6.130652e-01	3.563814e+14	1.307726e+15	4.375466e+14	1.303397e+04	6.368686e+03	2.280446e+03	0	5.232199e-04
4.400000e+08	4.920855e+12	0.000000e+00	6.130652e-01	3.549706e+14	1.290993e+15	4.353256e+14	1.302942e+04	6.357425e+03	2.276413e+03	0	5.176463e-04
4.500000e+08	4.762813e+12	0.000000e+00	6.130652e-01	3.535815e+14	1.274806e+15	4.331206e+14	1.302488e+04	6.346449e+03	2.272483e+03	0	5.120442e-04
4.600000e+08	4.607316e+12	0.000000e+00	6.130652e-01	3.522134e+14	1.259138e+15	4.309313e+14	1.302036e+04	6.335747e+03	2.268651e+03	0	5.064100e-04
4.700000e+08	4.454288e+12	0.000000e+00	6.130652e-01	3.508658e+14	1.243967e+15	4.287578e+14	1.301585e+04	6.325309e+03	2.264913e+03	0	5.007401e-04
4.800000e+08	4.303655e+12	0.000000e+00	6.130652e-01	3.495379e+14	1.229267e+15	4.265999e+14	1.301137e+04	6.315125e+03	2.261267e+03	0	4.950306e-04
4.900000e+08	4.155344e+12	0.000000e+00	6.130652e-01	3.482293e+14	1.215018e+15	4.244574e+14	1.300690e+04	6.305185e+03	2.257708e+03	0	4.892775e-04
5.000000e+08	4.009288e+12	0.000000e+00	6.130652e-01	3.469393e+14	1.201199e+15	4.223302e+14	1.300245e+04	6.295481e+03	2.254233e+03	0	4.834765e-04
5.100000e+08	3.865420e+12	0.000000e+00	6.130652e-01	3.456674e+14	1.187790e+15	4.202182e+14	1.299801e+04	6.286004e+03	2.250839e+03	0	4.776229e-04
5.200000e+08	3.723677e+12	0.000000e+00	6.130652e-01	3.444131e+14	1.174774e+15	4.181213e+14	1.299359e+04	6.276745e+03	2.247524e+03	0	4.717120e-04
5.300000e+08	3.583999e+12	0.000000e+00	6.130652e-01	3.431759e+14	1.162133e+15	4.160393e+14	1.298919e+04	6.267697e+03	2.244284e+03	0	4.657386e-04
5.400000e+08	3.446325e+12	0.000000e+00	6.130652e-01	3.419554e+14	1.149851e+15	4.139722e+14	1.298480e+04	6.258853e+03	2.241117e+03	0	4.596970e-04
5.500000e+08	3.310601e+12	0.000000e+00	6.130652e-01	3.407510e+14	1.137912e+15	4.119198e+14	1.298043e+04	6.250204e+03	2.238021e+03	0	4.535814e-04
5.600000e+08	3.176771e+12	0.000000e+00	6.130652e-01	3.395623e+14	1.126302e+15	4.098819e+14	1.297607e+04	6.241746e+03	2.234992e+03	0	4.473851e-04
5.700000e+08	3.044783e+12	0.000000e+00	6.130652e-01	3.383888e+14	1.115007e+15	4.078586e+14	1.297173e+04	6.233470e+03	2.232029e+03	0	4.411013e-04
5.800000e+08	2.914587e+12	0.000000e+00	6.130652e-01	3.372303e+14	1.104015e+15	4.058496e+14	1.296740e+04	6.225371e+03	2.229129e+03	0	4.347223e-04
5.900000e+08	2.786134e+12	0.000000e+00	6.130652e-01	3.360862e+14	1.093313e+15	4.038548e+14	1.296309e+04	6.217443e+03	2.226290e+03	0	4.282397e-04
6.000000e+08	2.659378e+12	0.000000e+00	6.130652e-01	3.349562e+14	1.082889e+15	4.018742e+14	1.295879e+04	6.209680e+03	2.223510e+03	0	4.216444e-04
6.100000e+08	2.534273e+12	0.000000e+00	6.130652e-01	3.338399e+14	1.072733e+15	3.999075e+14	1.295451e+04	6.202077e+03	2.220788e+03	0	4.149261e-04
6.200000e+08	2.410777e+12	0.000000e+00	6.130652e-01	3.327370e+14	1.062833e+15	3.979548e+14	1.295024e+04	6.194629e+03	2.218121e+03	0	4.080737e-04
6.300000e+08	2.288847e+12	0.000000e+00	6.130652e-01	3.316471e+14	1.053180e+15	3.960159e+14	1.294599e+04	6.187330e+03	2.215507e+03	0	4.010746e-04
6.400000e+08	2.168442e+12	0.000000e+00	6.130652e-01	3.305698e+14	1.043765e+15	3.940906e+14	1.294175e+04	6.180176e+03	2.212945e+03	0	3.939147e-04
6.500000e+08	2.049524e+12	0.000000e+00	6.130652e-01	3.295050e+14	1.034578e+15	3.921789e+14	1.293752e+04	6.173162e+03	2.210434e+03	0	3.865781e-04
6.600000e+08	1.932055e+12	0.000000e+00	6.130652e-01	3.284522e+14	1.025610e+15	3.902806e+14	1.293331e+04	6.166283e+03	2.207971e+03	0	3.790468e-04
6.700000e+08	1.816000e+12	0.000000e+00	6.130652e-01	3.274112e+14	1.016855e+15	3.883957e+14	1.292911e+04	6.159537e+03	2.205555e+03	0	3.712999e-04
6.800000e+08	1.701322e+12	0.000000e+00	6.130652e-01	3.263816e+14	1.008303e+15	3.865240e+14	1.292492e+04	6.152917e+03	2.203185e+03	0	3.633137e-04
6.900000e+08	1.587987e+12	0.000000e+00	6.130652e-01	3.253633e+14	9.999474e+14	3.846655e+14	1.292075e+04	6.146422e+03	2.200859e+03	0	3.550602e-04
7.000000e+08	1.475965e+12	0.000000e+00	6.130652e-01	3.243558e+14	9.917814e+14	3.828199e+14	1.291659e+04	6.140046e+03	2.198576e+03	0	3.465067e-04
7.100000e+08	1.365221e+12	0.000000e+00	6.130652e-01	3.233591e+14	9.837981e+14	3.809874e+14	1.291244e+04	6.133786e+03	2.196335e+03	0	3.376141e-04
7.200000e+08	1.255727e+12	0.000000e+00	6.130652e-01	3.223728e+14	9.759910e+14	3.791676e+14	1.290830e+04	6.127639e+03	2.194134e+03	0	3.283357e-04
7.300000e+08	1.147453e+12	0.000000e+00	6.130652e-01	3.213966e+14	9.683540e+14	3.773605e+14	1.290418e+04	6.121602e+03	2.191972e+03	0	3.186138e-04
7.400000e+08	1.040369e+12	0.000000e+00	6.130652e-01	3.204304e+14	9.608813e+14	3.755661e+14	1.290007e+04	6.115670e+03	2.189848e+03	0	3.083771e-04
7.500000e+08	9.344495e+11	0.000000e+00	6.130652e-01	3.194739e+14	9.535673e+14	3.737841e+14	1.289598e+04	6.109842e+03	2.187761e+03	0	2.975351e-04
7.600000e+08	8.296663e+11	0.000000e+00	6.130652e-01	3.185269e+14	9.464066e+14	3.720146e+14	1.289189e+04	6.104114e+03	2.185710e+03	0	2.859702e-04
7.700000e+08	7.259939e+11	0.000000e+00	6.130652e-01	3.175892e+14	9.393941e+14	3.702574e+14	1.288782e+04	6.098484e+03	2.183694e+03	0	2.735251e-04
7.800000e+08	6.234074e+11	0.000000e+00	6.130652e-01	3.166605e+14	9.325249e+14	3.685124e+14	1.288376e+04	6.092947e+03	2.181711e+03	0	2.599822e-04
7.900000e+08	5.218826e+11	0.000000e+00	6.130652e-01	3.157408e+14	9.257943e+14	3.667795e+14	1.287971e+04	6.087503e+03	2.179762e+03	0	2.450251e-04
8.000000e+08	4.213961e+11	0.000000e+00	6.130652e-01	3.148297e+14	9.191979e+14	3.650586e+14	1.287567e+04	6.082148e+03	2.177844e+03	0	2.281654e-04
8.100000e+08	3.219250e+11	0.000000e+00	6.130652e-01	3.139271e+14	9.127313e+14	3.633497e+14	1.287165e+04	6.076880e+03	2.175958e+03	0	2.085793e-04
8.200000e+08	2.234475e+11	0.000000e+00	6.130652e-01	3.130329e+14	9.063905e+14	3.616526e+14	1.286763e+04	6.071696e+03	2.174102e+03	0	1.846764e-04
8.300000e+08	1.259422e+11	0.000000e+00	6.130652e-01	3.121468e+14	9.001714e+14	3.599672e+14	1.286363e+04	6.066594e+03	2.172275e+03	0	1.525492e-04
8.400000e+08	2.938849e+10	0.000000e+00	6.130652e-01	3.112687e+14	8.940703e+14	3.582934e+14	1.285964e+04	6.061573e+03	2.170477e+03	0	9.391724e-05
8.500000e+08	-6.623371e+10	0.000000e+00	6.130652e-01	3.103983e+14	8.880835e+14	3.566313e+14	1.285566e+04	6.056629e+03	2.168707e+03	0	-nan
