#t		Qconv[W]	Ri[Rp]		R*[Rp]		Qc[W]		Qm[W]		Qr[W]		Tcmb[K]		Tl[K]		Tup[K]		RiFlag		Bs[T]
0.000000e+00	1.534164e+13	0.000000e+00	6.080402e-01	5.465424e+14	3.756087e+15	6.038639e+14	1.439674e+04	8.074796e+03	2.738608e+03	0	7.600480e-04
1.000000e+07	1.491018e+13	0.000000e+00	6.080402e-01	5.429210e+14	3.611259e+15	6.005180e+14	1.439056e+04	8.022317e+03	2.720809e+03	0	7.528552e-04
2.000000e+07	1.448618e+13	0.000000e+00	6.080402e-01	5.393602e+14	3.477387e+15	5.971972e+14	1.438442e+04	7.972577e+03	2.703940e+03	0	7.456502e-04
3.000000e+07	1.407005e+13	0.000000e+00	6.080402e-01	5.358634e+14	3.353340e+15	5.939012e+14	1.437832e+04	7.925364e+03	2.687927e+03	0	7.384409e-04
4.000000e+07	1.366207e+13	0.000000e+00	6.080402e-01	5.324326e+14	3.238133e+15	5.906298e+14	1.437225e+04	7.880487e+03	2.672707e+03	0	7.312333e-04
5.000000e+07	1.326238e+13	0.000000e+00	6.080402e-01	5.290691e+14	3.130901e+15	5.873828e+14	1.436623e+04	7.837772e+03	2.658220e+03	0	7.240318e-04
6.000000e+07	1.287106e+13	0.000000e+00	6.080402e-01	5.257734e+14	3.030888e+15	5.841600e+14	1.436025e+04	7.797066e+03	2.644414e+03	0	7.168395e-04
7.000000e+07	1.248809e+13	0.000000e+00	6.080402e-01	5.225454e+14	2.937425e+15	5.809612e+14	1.435430e+04	7.758228e+03	2.631242e+03	0	7.096581e-04
8.000000e+07	1.211342e+13	0.000000e+00	6.080402e-01	5.193846e+14	2.849921e+15	5.777862e+14	1.434839e+04	7.721130e+03	2.618660e+03	0	7.024887e-04
9.000000e+07	1.174693e+13	0.000000e+00	6.080402e-01	5.162901e+14	2.767851e+15	5.746348e+14	1.434251e+04	7.685655e+03	2.606629e+03	0	6.953316e-04
1.000000e+08	1.138850e+13	0.000000e+00	6.080402e-01	5.132609e+14	2.690747e+15	5.715068e+14	1.433667e+04	7.651700e+03	2.595112e+03	0	6.881864e-04
1.100000e+08	1.103797e+13	0.000000e+00	6.080402e-01	5.102956e+14	2.618194e+15	5.684020e+14	1.433087e+04	7.619166e+03	2.584078e+03	0	6.810520e-04
1.200000e+08	1.069516e+13	0.000000e+00	6.080402e-01	5.073929e+14	2.549818e+15	5.653202e+14	1.432509e+04	7.587965e+03	2.573497e+03	0	6.739272e-04
1.300000e+08	1.035989e+13	0.000000e+00	6.080402e-01	5.045511e+14	2.485284e+15	5.622613e+14	1.431935e+04	7.558017e+03	2.563339e+03	0	6.668101e-04
1.400000e+08	1.003195e+13	0.000000e+00	6.080402e-01	5.017688e+14	2.424292e+15	5.592250e+14	1.431365e+04	7.529246e+03	2.553582e+03	0	6.596986e-04
1.500000e+08	9.711141e+12	0.000000e+00	6.080402e-01	4.990443e+14	2.366570e+15	5.562111e+14	1.430797e+04	7.501583e+03	2.544200e+03	0	6.525902e-04
1.600000e+08	9.397269e+12	0.000000e+00	6.080402e-01	4.963760e+14	2.311873e+15	5.532195e+14	1.430233e+04	7.474966e+03	2.535172e+03	0	6.454823e-04
1.700000e+08	9.090125e+12	0.000000e+00	6.080402e-01	4.937622e+14	2.259978e+15	5.502499e+14	1.429671e+04	7.449335e+03	2.526479e+03	0	6.383719e-04
1.800000e+08	8.789507e+12	0.000000e+00	6.080402e-01	4.912013e+14	2.210684e+15	5.473023e+14	1.429112e+04	7.424636e+03	2.518103e+03	0	6.312557e-04
1.900000e+08	8.495215e+12	0.000000e+00	6.080402e-01	4.886917e+14	2.163808e+15	5.443764e+14	1.428557e+04	7.400819e+03	2.510025e+03	0	6.241303e-04
2.000000e+08	8.207051e+12	0.000000e+00	6.080402e-01	4.862317e+14	2.119182e+15	5.414720e+14	1.428004e+04	7.377836e+03	2.502230e+03	0	6.169920e-04
2.100000e+08	7.924824e+12	0.000000e+00	6.080402e-01	4.838199e+14	2.076654e+15	5.385889e+14	1.427454e+04	7.355645e+03	2.494704e+03	0	6.098369e-04
2.200000e+08	7.648344e+12	0.000000e+00	6.080402e-01	4.814547e+14	2.036084e+15	5.357270e+14	1.426907e+04	7.334205e+03	2.487433e+03	0	6.026608e-04
2.300000e+08	7.377430e+12	0.000000e+00	6.080402e-01	4.791347e+14	1.997345e+15	5.328862e+14	1.426362e+04	7.313478e+03	2.480403e+03	0	5.954594e-04
2.400000e+08	7.111902e+12	0.000000e+00	6.080402e-01	4.768584e+14	1.960319e+15	5.300661e+14	1.425820e+04	7.293429e+03	2.473603e+03	0	5.882281e-04
2.500000e+08	6.851588e+12	0.000000e+00	6.080402e-01	4.746244e+14	1.924899e+15	5.272667e+14	1.425280e+04	7.274024e+03	2.467022e+03	0	5.809618e-04
2.600000e+08	6.596321e+12	0.000000e+00	6.080402e-01	4.724313e+14	1.890985e+15	5.244878e+14	1.424743e+04	7.255233e+03	2.460649e+03	0	5.736554e-04
2.700000e+08	6.345939e+12	0.000000e+00	6.080402e-01	4.702780e+14	1.858487e+15	5.217293e+14	1.424209e+04	7.237027e+03	2.454474e+03	0	5.663033e-04
2.800000e+08	6.100286e+12	0.000000e+00	6.080402e-01	4.681630e+14	1.827318e+15	5.189908e+14	1.423677e+04	7.219379e+03	2.448489e+03	0	5.588997e-04
2.900000e+08	5.859211e+12	0.000000e+00	6.080402e-01	4.660853e+14	1.797402e+15	5.162724e+14	1.423147e+04	7.202262e+03	2.442683e+03	0	5.514382e-04
3.000000e+08	5.622568e+12	0.000000e+00	6.080402e-01	4.640435e+14	1.768667e+15	5.135738e+14	1.422620e+04	7.185654e+03	2.437051e+03	0	5.439121e-04
3.100000e+08	5.390218e+12	0.000000e+00	6.080402e-01	4.620367e+14	1.741044e+15	5.108948e+14	1.422095e+04	7.169531e+03	2.431582e+03	0	5.363142e-04
3.200000e+08	5.162026e+12	0.000000e+00	6.080402e-01	4.600637e+14	1.714473e+15	5.082353e+14	1.421572e+04	7.153872e+03	2.426272e+03	0	5.286366e-04
3.300000e+08	4.937860e+12	0.000000e+00	6.080402e-01	4.581234e+14	1.688894e+15	5.055952e+14	1.421052e+04	7.138658e+03	2.421112e+03	0	5.208709e-04
3.400000e+08	4.717595e+12	0.000000e+00	6.080402e-01	4.562149e+14	1.664256e+15	5.029742e+14	1.420533e+04	7.123869e+03	2.416096e+03	0	5.130079e-04
3.500000e+08	4.501112e+12	0.000000e+00	6.080402e-01	4.543371e+14	1.640507e+15	5.003722e+14	1.420017e+04	7.109487e+03	2.411218e+03	0	5.050377e-04
3.600000e+08	4.288293e+12	0.000000e+00	6.080402e-01	4.524892e+14	1.617601e+15	4.977891e+14	1.419503e+04	7.095495e+03	2.406473e+03	0	4.969492e-04
3.700000e+08	4.079027e+12	0.000000e+00	6.080402e-01	4.506703e+14	1.595494e+15	4.952248e+14	1.418991e+04	7.081878e+03	2.401855e+03	0	4.887304e-04
3.800000e+08	3.873205e+12	0.000000e+00	6.080402e-01	4.488793e+14	1.574145e+15	4.926789e+14	1.418482e+04	7.068621e+03	2.397358e+03	0	4.803679e-04
3.900000e+08	3.670725e+12	0.000000e+00	6.080402e-01	4.471157e+14	1.553518e+15	4.901515e+14	1.417974e+04	7.055708e+03	2.392979e+03	0	4.718469e-04
4.000000e+08	3.471487e+12	0.000000e+00	6.080402e-01	4.453784e+14	1.533575e+15	4.876423e+14	1.417468e+04	7.043127e+03	2.388712e+03	0	4.631507e-04
4.100000e+08	3.275394e+12	0.000000e+00	6.080402e-01	4.436668e+14	1.514284e+15	4.851513e+14	1.416964e+04	7.030864e+03	2.384553e+03	0	4.542605e-04
4.200000e+08	3.082354e+12	0.000000e+00	6.080402e-01	4.419801e+14	1.495613e+15	4.826782e+14	1.416462e+04	7.018907e+03	2.380498e+03	0	4.451551e-04
4.300000e+08	2.892278e+12	0.000000e+00	6.080402e-01	4.403176e+14	1.477533e+15	4.802228e+14	1.415962e+04	7.007245e+03	2.376542e+03	0	4.358100e-04
4.400000e+08	2.705080e+12	0.000000e+00	6.080402e-01	4.386786e+14	1.460016e+15	4.777852e+14	1.415464e+04	6.995866e+03	2.372683e+03	0	4.261972e-04
4.500000e+08	2.520679e+12	0.000000e+00	6.080402e-01	4.370624e+14	1.443036e+15	4.753651e+14	1.414967e+04	6.984760e+03	2.368917e+03	0	4.162839e-04
4.600000e+08	2.338993e+12	0.000000e+00	6.080402e-01	4.354685e+14	1.426569e+15	4.729623e+14	1.414473e+04	6.973917e+03	2.365239e+03	0	4.060319e-04
4.700000e+08	2.159947e+12	0.000000e+00	6.080402e-01	4.338961e+14	1.410592e+15	4.705768e+14	1.413980e+04	6.963328e+03	2.361648e+03	0	3.953953e-04
4.800000e+08	1.983468e+12	0.000000e+00	6.080402e-01	4.323446e+14	1.395082e+15	4.682084e+14	1.413489e+04	6.952982e+03	2.358139e+03	0	3.843193e-04
4.900000e+08	1.809483e+12	0.000000e+00	6.080402e-01	4.308136e+14	1.380021e+15	4.658569e+14	1.413000e+04	6.942872e+03	2.354710e+03	0	3.727366e-04
5.000000e+08	1.637925e+12	0.000000e+00	6.080402e-01	4.293024e+14	1.365387e+15	4.635222e+14	1.412513e+04	6.932990e+03	2.351358e+03	0	3.605635e-04
5.100000e+08	1.468727e+12	0.000000e+00	6.080402e-01	4.278106e+14	1.351163e+15	4.612043e+14	1.412027e+04	6.923326e+03	2.348081e+03	0	3.476943e-04
5.200000e+08	1.301826e+12	0.000000e+00	6.080402e-01	4.263375e+14	1.337332e+15	4.589028e+14	1.411543e+04	6.913875e+03	2.344875e+03	0	3.339911e-04
5.300000e+08	1.137161e+12	0.000000e+00	6.080402e-01	4.248828e+14	1.323877e+15	4.566178e+14	1.411061e+04	6.904627e+03	2.341739e+03	0	3.192698e-04
5.400000e+08	9.746721e+11	0.000000e+00	6.080402e-01	4.234459e+14	1.310783e+15	4.543490e+14	1.410580e+04	6.895578e+03	2.338670e+03	0	3.032750e-04
5.500000e+08	8.143024e+11	0.000000e+00	6.080402e-01	4.220263e+14	1.298035e+15	4.520964e+14	1.410101e+04	6.886719e+03	2.335665e+03	0	2.856356e-04
5.600000e+08	6.559967e+11	0.000000e+00	6.080402e-01	4.206237e+14	1.285620e+15	4.498599e+14	1.409623e+04	6.878045e+03	2.332724e+03	0	2.657772e-04
5.700000e+08	4.997021e+11	0.000000e+00	6.080402e-01	4.192376e+14	1.273523e+15	4.476391e+14	1.409148e+04	6.869550e+03	2.329842e+03	0	2.427286e-04
5.800000e+08	3.453671e+11	0.000000e+00	6.080402e-01	4.178676e+14	1.261733e+15	4.454342e+14	1.408673e+04	6.861227e+03	2.327020e+03	0	2.146071e-04
5.900000e+08	1.929423e+11	0.000000e+00	6.080402e-01	4.165133e+14	1.250237e+15	4.432449e+14	1.408200e+04	6.853072e+03	2.324254e+03	0	1.767501e-04
6.000000e+08	4.237975e+10	0.000000e+00	6.080402e-01	4.151742e+14	1.239025e+15	4.410711e+14	1.407729e+04	6.845079e+03	2.321543e+03	0	1.066440e-04
6.100000e+08	-1.063667e+11	0.000000e+00	6.080402e-01	4.138501e+14	1.228085e+15	4.389126e+14	1.407259e+04	6.837242e+03	2.318885e+03	0	-nan
