#t		Qconv[W]	Ri[Rp]		R*[Rp]		Qc[W]		Qm[W]		Qr[W]		Tcmb[K]		Tl[K]		Tup[K]		RiFlag		Bs[T]
0.000000e+00	1.253416e+13	0.000000e+00	5.813953e-01	2.676897e+14	1.134397e+15	1.217190e+14	8.436353e+03	3.332138e+03	2.409231e+03	0	7.993831e-04
1.000000e+07	1.205154e+13	0.000000e+00	5.813953e-01	2.578882e+14	1.028077e+15	1.210446e+14	8.394422e+03	3.279859e+03	2.371432e+03	0	7.889885e-04
2.000000e+07	1.160876e+13	0.000000e+00	5.813953e-01	2.488926e+14	9.404934e+14	1.203753e+14	8.354012e+03	3.234102e+03	2.338348e+03	0	7.792051e-04
3.000000e+07	1.120049e+13	0.000000e+00	5.813953e-01	2.405950e+14	8.672642e+14	1.197109e+14	8.315000e+03	3.193682e+03	2.309124e+03	0	7.699613e-04
4.000000e+07	1.082235e+13	0.000000e+00	5.813953e-01	2.329068e+14	8.052423e+14	1.190515e+14	8.277278e+03	3.157690e+03	2.283100e+03	0	7.611970e-04
5.000000e+07	1.047070e+13	0.000000e+00	5.813953e-01	2.257546e+14	7.521163e+14	1.183970e+14	8.240751e+03	3.125415e+03	2.259765e+03	0	7.528616e-04
6.000000e+07	1.014251e+13	0.000000e+00	5.813953e-01	2.190771e+14	7.061550e+14	1.177474e+14	8.205337e+03	3.096292e+03	2.238707e+03	0	7.449120e-04
7.000000e+07	9.835204e+12	0.000000e+00	5.813953e-01	2.128226e+14	6.660386e+14	1.171026e+14	8.170962e+03	3.069866e+03	2.219601e+03	0	7.373115e-04
8.000000e+07	9.546618e+12	0.000000e+00	5.813953e-01	2.069469e+14	6.307456e+14	1.164626e+14	8.137561e+03	3.045766e+03	2.202176e+03	0	7.300283e-04
9.000000e+07	9.274884e+12	0.000000e+00	5.813953e-01	2.014125e+14	5.994739e+14	1.158274e+14	8.105075e+03	3.023689e+03	2.186214e+03	0	7.230351e-04
1.000000e+08	9.018397e+12	0.000000e+00	5.813953e-01	1.961870e+14	5.715862e+14	1.151969e+14	8.073451e+03	3.003381e+03	2.171531e+03	0	7.163078e-04
1.100000e+08	8.775764e+12	0.000000e+00	5.813953e-01	1.912420e+14	5.465700e+14	1.145711e+14	8.042643e+03	2.984630e+03	2.157973e+03	0	7.098254e-04
1.200000e+08	8.545768e+12	0.000000e+00	5.813953e-01	1.865532e+14	5.240092e+14	1.139499e+14	8.012605e+03	2.967255e+03	2.145410e+03	0	7.035694e-04
1.300000e+08	8.327344e+12	0.000000e+00	5.813953e-01	1.820988e+14	5.035628e+14	1.133333e+14	7.983298e+03	2.951103e+03	2.133732e+03	0	6.975233e-04
1.400000e+08	8.119550e+12	0.000000e+00	5.813953e-01	1.778600e+14	4.849487e+14	1.127213e+14	7.954687e+03	2.936045e+03	2.122845e+03	0	6.916725e-04
1.500000e+08	7.921552e+12	0.000000e+00	5.813953e-01	1.738197e+14	4.679320e+14	1.121138e+14	7.926736e+03	2.921967e+03	2.112666e+03	0	6.860040e-04
1.600000e+08	7.732608e+12	0.000000e+00	5.813953e-01	1.699630e+14	4.523154e+14	1.115108e+14	7.899417e+03	2.908771e+03	2.103124e+03	0	6.805059e-04
1.700000e+08	7.552055e+12	0.000000e+00	5.813953e-01	1.662765e+14	4.379322e+14	1.109122e+14	7.872700e+03	2.896372e+03	2.094159e+03	0	6.751676e-04
1.800000e+08	7.379297e+12	0.000000e+00	5.813953e-01	1.627482e+14	4.246408e+14	1.103181e+14	7.846559e+03	2.884694e+03	2.085717e+03	0	6.699795e-04
1.900000e+08	7.213798e+12	0.000000e+00	5.813953e-01	1.593671e+14	4.123199e+14	1.097283e+14	7.820968e+03	2.873674e+03	2.077748e+03	0	6.649330e-04
2.000000e+08	7.055074e+12	0.000000e+00	5.813953e-01	1.561235e+14	4.008653e+14	1.091429e+14	7.795907e+03	2.863252e+03	2.070213e+03	0	6.600199e-04
2.100000e+08	6.902685e+12	0.000000e+00	5.813953e-01	1.530084e+14	3.901870e+14	1.085618e+14	7.771352e+03	2.853378e+03	2.063074e+03	0	6.552332e-04
2.200000e+08	6.756232e+12	0.000000e+00	5.813953e-01	1.500139e+14	3.802069e+14	1.079849e+14	7.747284e+03	2.844005e+03	2.056297e+03	0	6.505661e-04
2.300000e+08	6.615352e+12	0.000000e+00	5.813953e-01	1.471325e+14	3.708566e+14	1.074123e+14	7.723684e+03	2.835093e+03	2.049853e+03	0	6.460124e-04
2.400000e+08	6.479711e+12	0.000000e+00	5.813953e-01	1.443575e+14	3.620765e+14	1.068439e+14	7.700535e+03	2.826605e+03	2.043716e+03	0	6.415666e-04
2.500000e+08	6.349004e+12	0.000000e+00	5.813953e-01	1.416828e+14	3.538141e+14	1.062796e+14	7.677820e+03	2.818509e+03	2.037863e+03	0	6.372234e-04
2.600000e+08	6.222951e+12	0.000000e+00	5.813953e-01	1.391025e+14	3.460231e+14	1.057195e+14	7.655523e+03	2.810776e+03	2.032271e+03	0	6.329781e-04
2.700000e+08	6.101293e+12	0.000000e+00	5.813953e-01	1.366116e+14	3.386625e+14	1.051634e+14	7.633631e+03	2.803377e+03	2.026922e+03	0	6.288260e-04
2.800000e+08	5.983794e+12	0.000000e+00	5.813953e-01	1.342051e+14	3.316958e+14	1.046114e+14	7.612128e+03	2.796291e+03	2.021798e+03	0	6.247632e-04
2.900000e+08	5.870231e+12	0.000000e+00	5.813953e-01	1.318787e+14	3.250905e+14	1.040635e+14	7.591002e+03	2.789494e+03	2.016884e+03	0	6.207856e-04
3.000000e+08	5.760403e+12	0.000000e+00	5.813953e-01	1.296282e+14	3.188177e+14	1.035195e+14	7.570239e+03	2.782966e+03	2.012164e+03	0	6.168897e-04
3.100000e+08	5.654119e+12	0.000000e+00	5.813953e-01	1.274498e+14	3.128511e+14	1.029795e+14	7.549830e+03	2.776691e+03	2.007627e+03	0	6.130721e-04
3.200000e+08	5.551204e+12	0.000000e+00	5.813953e-01	1.253398e+14	3.071676e+14	1.024435e+14	7.529761e+03	2.770650e+03	2.003259e+03	0	6.093296e-04
3.300000e+08	5.451493e+12	0.000000e+00	5.813953e-01	1.232950e+14	3.017459e+14	1.019113e+14	7.510023e+03	2.764829e+03	1.999051e+03	0	6.056593e-04
3.400000e+08	5.354834e+12	0.000000e+00	5.813953e-01	1.213123e+14	2.965671e+14	1.013830e+14	7.490606e+03	2.759215e+03	1.994991e+03	0	6.020583e-04
3.500000e+08	5.261084e+12	0.000000e+00	5.813953e-01	1.193888e+14	2.916139e+14	1.008585e+14	7.471499e+03	2.753794e+03	1.991072e+03	0	5.985241e-04
3.600000e+08	5.170110e+12	0.000000e+00	5.813953e-01	1.175217e+14	2.868706e+14	1.003379e+14	7.452693e+03	2.748555e+03	1.987284e+03	0	5.950541e-04
3.700000e+08	5.081787e+12	0.000000e+00	5.813953e-01	1.157086e+14	2.823230e+14	9.982098e+13	7.434180e+03	2.743486e+03	1.983619e+03	0	5.916461e-04
3.800000e+08	4.995997e+12	0.000000e+00	5.813953e-01	1.139471e+14	2.779582e+14	9.930783e+13	7.415951e+03	2.738579e+03	1.980071e+03	0	5.882979e-04
3.900000e+08	4.912631e+12	0.000000e+00	5.813953e-01	1.122349e+14	2.737642e+14	9.879838e+13	7.397999e+03	2.733823e+03	1.976632e+03	0	5.850073e-04
4.000000e+08	4.831585e+12	0.000000e+00	5.813953e-01	1.105700e+14	2.697303e+14	9.829262e+13	7.380315e+03	2.729211e+03	1.973298e+03	0	5.817724e-04
4.100000e+08	4.752761e+12	0.000000e+00	5.813953e-01	1.089503e+14	2.658465e+14	9.779050e+13	7.362892e+03	2.724734e+03	1.970061e+03	0	5.785913e-04
4.200000e+08	4.676068e+12	0.000000e+00	5.813953e-01	1.073739e+14	2.621036e+14	9.729200e+13	7.345723e+03	2.720386e+03	1.966917e+03	0	5.754622e-04
4.300000e+08	4.601419e+12	0.000000e+00	5.813953e-01	1.058393e+14	2.584934e+14	9.679709e+13	7.328801e+03	2.716158e+03	1.963860e+03	0	5.723835e-04
4.400000e+08	4.528732e+12	0.000000e+00	5.813953e-01	1.043446e+14	2.550080e+14	9.630574e+13	7.312120e+03	2.712046e+03	1.960887e+03	0	5.693536e-04
4.500000e+08	4.457930e+12	0.000000e+00	5.813953e-01	1.028883e+14	2.516404e+14	9.581792e+13	7.295673e+03	2.708043e+03	1.957992e+03	0	5.663709e-04
4.600000e+08	4.388940e+12	0.000000e+00	5.813953e-01	1.014689e+14	2.483839e+14	9.533361e+13	7.279455e+03	2.704143e+03	1.955173e+03	0	5.634340e-04
4.700000e+08	4.321693e+12	0.000000e+00	5.813953e-01	1.000850e+14	2.452324e+14	9.485276e+13	7.263459e+03	2.700342e+03	1.952425e+03	0	5.605416e-04
4.800000e+08	4.256122e+12	0.000000e+00	5.813953e-01	9.873538e+13	2.421804e+14	9.437537e+13	7.247681e+03	2.696635e+03	1.949744e+03	0	5.576922e-04
4.900000e+08	4.192166e+12	0.000000e+00	5.813953e-01	9.741863e+13	2.392225e+14	9.390139e+13	7.232115e+03	2.693017e+03	1.947128e+03	0	5.548846e-04
5.000000e+08	4.129766e+12	0.000000e+00	5.813953e-01	9.613360e+13	2.363539e+14	9.343080e+13	7.216755e+03	2.689484e+03	1.944574e+03	0	5.521177e-04
5.100000e+08	4.068865e+12	0.000000e+00	5.813953e-01	9.487915e+13	2.335700e+14	9.296357e+13	7.201597e+03	2.686033e+03	1.942079e+03	0	5.493903e-04
5.200000e+08	4.009410e+12	0.000000e+00	5.813953e-01	9.365419e+13	2.308666e+14	9.249968e+13	7.186636e+03	2.682659e+03	1.939639e+03	0	5.467012e-04
5.300000e+08	3.951350e+12	0.000000e+00	5.813953e-01	9.245769e+13	2.282398e+14	9.203909e+13	7.171867e+03	2.679358e+03	1.937253e+03	0	5.440495e-04
5.400000e+08	3.894637e+12	0.000000e+00	5.813953e-01	9.128866e+13	2.256860e+14	9.158179e+13	7.157286e+03	2.676129e+03	1.934918e+03	0	5.414340e-04
5.500000e+08	3.839224e+12	0.000000e+00	5.813953e-01	9.014617e+13	2.232015e+14	9.112774e+13	7.142889e+03	2.672967e+03	1.932632e+03	0	5.388539e-04
5.600000e+08	3.785068e+12	0.000000e+00	5.813953e-01	8.902933e+13	2.207834e+14	9.067691e+13	7.128671e+03	2.669871e+03	1.930393e+03	0	5.363082e-04
5.700000e+08	3.732127e+12	0.000000e+00	5.813953e-01	8.793728e+13	2.184284e+14	9.022929e+13	7.114629e+03	2.666836e+03	1.928199e+03	0	5.337960e-04
5.800000e+08	3.680359e+12	0.000000e+00	5.813953e-01	8.686921e+13	2.161339e+14	8.978485e+13	7.100758e+03	2.663861e+03	1.926048e+03	0	5.313165e-04
5.900000e+08	3.629729e+12	0.000000e+00	5.813953e-01	8.582433e+13	2.138971e+14	8.934355e+13	7.087055e+03	2.660943e+03	1.923938e+03	0	5.288688e-04
6.000000e+08	3.580197e+12	0.000000e+00	5.813953e-01	8.480190e+13	2.117155e+14	8.890538e+13	7.073516e+03	2.658080e+03	1.921868e+03	0	5.264521e-04
6.100000e+08	3.531730e+12	0.000000e+00	5.813953e-01	8.380122e+13	2.095869e+14	8.847031e+13	7.060138e+03	2.655269e+03	1.919836e+03	0	5.240657e-04
6.200000e+08	3.484295e+12	0.000000e+00	5.813953e-01	8.282160e+13	2.075089e+14	8.803831e+13	7.046917e+03	2.652509e+03	1.917840e+03	0	5.217088e-04
6.300000e+08	3.437858e+12	0.000000e+00	5.813953e-01	8.186238e+13	2.054796e+14	8.760936e+13	7.033850e+03	2.649798e+03	1.915880e+03	0	5.193807e-04
6.400000e+08	3.392389e+12	0.000000e+00	5.813953e-01	8.092294e+13	2.034969e+14	8.718344e+13	7.020933e+03	2.647134e+03	1.913954e+03	0	5.170808e-04
6.500000e+08	3.347859e+12	0.000000e+00	5.813953e-01	8.000269e+13	2.015590e+14	8.676052e+13	7.008165e+03	2.644515e+03	1.912060e+03	0	5.148084e-04
6.600000e+08	3.304239e+12	0.000000e+00	5.813953e-01	7.910103e+13	1.996642e+14	8.634057e+13	6.995541e+03	2.641940e+03	1.910198e+03	0	5.125627e-04
6.700000e+08	3.261503e+12	0.000000e+00	5.813953e-01	7.821744e+13	1.978107e+14	8.592358e+13	6.983058e+03	2.639406e+03	1.908366e+03	0	5.103433e-04
6.800000e+08	3.219623e+12	0.000000e+00	5.813953e-01	7.735136e+13	1.959971e+14	8.550951e+13	6.970715e+03	2.636913e+03	1.906564e+03	0	5.081496e-04
6.900000e+08	3.178576e+12	0.000000e+00	5.813953e-01	7.650230e+13	1.942218e+14	8.509835e+13	6.958508e+03	2.634459e+03	1.904790e+03	0	5.059808e-04
7.000000e+08	3.138337e+12	0.000000e+00	5.813953e-01	7.566977e+13	1.924834e+14	8.469007e+13	6.946434e+03	2.632043e+03	1.903043e+03	0	5.038366e-04
7.100000e+08	3.098883e+12	0.000000e+00	5.813953e-01	7.485329e+13	1.907806e+14	8.428465e+13	6.934491e+03	2.629663e+03	1.901322e+03	0	5.017164e-04
7.200000e+08	3.060192e+12	0.000000e+00	5.813953e-01	7.405241e+13	1.891121e+14	8.388207e+13	6.922677e+03	2.627319e+03	1.899627e+03	0	4.996195e-04
7.300000e+08	3.022242e+12	0.000000e+00	5.813953e-01	7.326669e+13	1.874768e+14	8.348230e+13	6.910988e+03	2.625008e+03	1.897956e+03	0	4.975457e-04
7.400000e+08	2.985012e+12	0.000000e+00	5.813953e-01	7.249573e+13	1.858734e+14	8.308532e+13	6.899424e+03	2.622731e+03	1.896309e+03	0	4.954942e-04
7.500000e+08	2.948484e+12	0.000000e+00	5.813953e-01	7.173910e+13	1.843010e+14	8.269110e+13	6.887980e+03	2.620485e+03	1.894686e+03	0	4.934648e-04
7.600000e+08	2.912638e+12	0.000000e+00	5.813953e-01	7.099643e+13	1.827584e+14	8.229964e+13	6.876655e+03	2.618271e+03	1.893085e+03	0	4.914568e-04
7.700000e+08	2.877455e+12	0.000000e+00	5.813953e-01	7.026734e+13	1.812446e+14	8.191089e+13	6.865448e+03	2.616086e+03	1.891505e+03	0	4.894700e-04
7.800000e+08	2.842917e+12	0.000000e+00	5.813953e-01	6.955146e+13	1.797588e+14	8.152485e+13	6.854355e+03	2.613930e+03	1.889946e+03	0	4.875037e-04
7.900000e+08	2.809009e+12	0.000000e+00	5.813953e-01	6.884846e+13	1.783001e+14	8.114149e+13	6.843374e+03	2.611803e+03	1.888408e+03	0	4.855578e-04
8.000000e+08	2.775712e+12	0.000000e+00	5.813953e-01	6.815799e+13	1.768675e+14	8.076079e+13	6.832504e+03	2.609703e+03	1.886890e+03	0	4.836316e-04
8.100000e+08	2.743011e+12	0.000000e+00	5.813953e-01	6.747972e+13	1.754602e+14	8.038272e+13	6.821743e+03	2.607629e+03	1.885390e+03	0	4.817249e-04
8.200000e+08	2.710891e+12	0.000000e+00	5.813953e-01	6.681335e+13	1.740776e+14	8.000728e+13	6.811089e+03	2.605581e+03	1.883910e+03	0	4.798372e-04
8.300000e+08	2.679337e+12	0.000000e+00	5.813953e-01	6.615857e+13	1.727188e+14	7.963443e+13	6.800539e+03	2.603558e+03	1.882447e+03	0	4.779682e-04
8.400000e+08	2.648334e+12	0.000000e+00	5.813953e-01	6.551508e+13	1.713831e+14	7.926415e+13	6.790092e+03	2.601559e+03	1.881002e+03	0	4.761175e-04
8.500000e+08	2.617869e+12	0.000000e+00	5.813953e-01	6.488262e+13	1.700698e+14	7.889643e+13	6.779747e+03	2.599584e+03	1.879574e+03	0	4.742848e-04
8.600000e+08	2.587929e+12	0.000000e+00	5.813953e-01	6.426089e+13	1.687783e+14	7.853124e+13	6.769501e+03	2.597632e+03	1.878163e+03	0	4.724697e-04
8.700000e+08	2.558499e+12	0.000000e+00	5.813953e-01	6.364965e+13	1.675080e+14	7.816857e+13	6.759353e+03	2.595703e+03	1.876767e+03	0	4.706719e-04
8.800000e+08	2.529568e+12	0.000000e+00	5.813953e-01	6.304863e+13	1.662583e+14	7.780839e+13	6.749302e+03	2.593795e+03	1.875388e+03	0	4.688911e-04
8.900000e+08	2.501124e+12	0.000000e+00	5.813953e-01	6.245758e+13	1.650285e+14	7.745069e+13	6.739345e+03	2.591908e+03	1.874024e+03	0	4.671270e-04
9.000000e+08	2.473154e+12	0.000000e+00	5.813953e-01	6.187626e+13	1.638182e+14	7.709544e+13	6.729481e+03	2.590042e+03	1.872675e+03	0	4.653792e-04
9.100000e+08	2.445648e+12	0.000000e+00	5.813953e-01	6.130446e+13	1.626267e+14	7.674263e+13	6.719708e+03	2.588196e+03	1.871340e+03	0	4.636475e-04
9.200000e+08	2.418595e+12	0.000000e+00	5.813953e-01	6.074193e+13	1.614537e+14	7.639223e+13	6.710026e+03	2.586370e+03	1.870020e+03	0	4.619315e-04
9.300000e+08	2.391983e+12	0.000000e+00	5.813953e-01	6.018846e+13	1.602985e+14	7.604423e+13	6.700432e+03	2.584563e+03	1.868713e+03	0	4.602310e-04
9.400000e+08	2.365803e+12	0.000000e+00	5.813953e-01	5.964384e+13	1.591608e+14	7.569861e+13	6.690925e+03	2.582774e+03	1.867420e+03	0	4.585458e-04
9.500000e+08	2.340044e+12	0.000000e+00	5.813953e-01	5.910787e+13	1.580401e+14	7.535535e+13	6.681504e+03	2.581004e+03	1.866140e+03	0	4.568755e-04
9.600000e+08	2.314696e+12	0.000000e+00	5.813953e-01	5.858034e+13	1.569359e+14	7.501442e+13	6.672167e+03	2.579252e+03	1.864873e+03	0	4.552199e-04
9.700000e+08	2.289751e+12	0.000000e+00	5.813953e-01	5.806108e+13	1.558478e+14	7.467582e+13	6.662914e+03	2.577516e+03	1.863618e+03	0	4.535787e-04
9.800000e+08	2.265200e+12	0.000000e+00	5.813953e-01	5.754988e+13	1.547755e+14	7.433953e+13	6.653742e+03	2.575798e+03	1.862376e+03	0	4.519517e-04
9.900000e+08	2.241032e+12	0.000000e+00	5.813953e-01	5.704657e+13	1.537185e+14	7.400552e+13	6.644651e+03	2.574096e+03	1.861145e+03	0	4.503387e-04
1.000000e+09	2.217240e+12	0.000000e+00	5.813953e-01	5.655097e+13	1.526764e+14	7.367377e+13	6.635639e+03	2.572411e+03	1.859926e+03	0	4.487393e-04
1.010000e+09	2.193816e+12	0.000000e+00	5.813953e-01	5.606292e+13	1.516489e+14	7.334428e+13	6.626705e+03	2.570741e+03	1.858719e+03	0	4.471535e-04
1.020000e+09	2.170751e+12	0.000000e+00	5.813953e-01	5.558225e+13	1.506357e+14	7.301702e+13	6.617848e+03	2.569087e+03	1.857523e+03	0	4.455809e-04
1.030000e+09	2.148037e+12	0.000000e+00	5.813953e-01	5.510879e+13	1.496364e+14	7.269197e+13	6.609066e+03	2.567447e+03	1.856338e+03	0	4.440213e-04
1.040000e+09	2.125667e+12	0.000000e+00	5.813953e-01	5.464240e+13	1.486506e+14	7.236913e+13	6.600360e+03	2.565823e+03	1.855163e+03	0	4.424746e-04
1.050000e+09	2.103634e+12	0.000000e+00	5.813953e-01	5.418291e+13	1.476782e+14	7.204846e+13	6.591726e+03	2.564213e+03	1.853999e+03	0	4.409404e-04
1.060000e+09	2.081929e+12	0.000000e+00	5.813953e-01	5.373019e+13	1.467187e+14	7.172995e+13	6.583165e+03	2.562617e+03	1.852845e+03	0	4.394187e-04
1.070000e+09	2.060547e+12	0.000000e+00	5.813953e-01	5.328408e+13	1.457719e+14	7.141359e+13	6.574676e+03	2.561035e+03	1.851702e+03	0	4.379092e-04
1.080000e+09	2.039480e+12	0.000000e+00	5.813953e-01	5.284446e+13	1.448374e+14	7.109936e+13	6.566256e+03	2.559467e+03	1.850568e+03	0	4.364117e-04
1.090000e+09	2.018722e+12	0.000000e+00	5.813953e-01	5.241118e+13	1.439151e+14	7.078724e+13	6.557906e+03	2.557912e+03	1.849443e+03	0	4.349260e-04
1.100000e+09	1.998266e+12	0.000000e+00	5.813953e-01	5.198412e+13	1.430047e+14	7.047721e+13	6.549625e+03	2.556370e+03	1.848328e+03	0	4.334519e-04
1.110000e+09	1.978106e+12	0.000000e+00	5.813953e-01	5.156314e+13	1.421058e+14	7.016927e+13	6.541410e+03	2.554840e+03	1.847223e+03	0	4.319893e-04
1.120000e+09	1.958235e+12	0.000000e+00	5.813953e-01	5.114813e+13	1.412183e+14	6.986339e+13	6.533262e+03	2.553324e+03	1.846126e+03	0	4.305380e-04
1.130000e+09	1.938649e+12	0.000000e+00	5.813953e-01	5.073895e+13	1.403419e+14	6.955955e+13	6.525179e+03	2.551819e+03	1.845038e+03	0	4.290978e-04
1.140000e+09	1.919341e+12	0.000000e+00	5.813953e-01	5.033549e+13	1.394764e+14	6.925775e+13	6.517161e+03	2.550327e+03	1.843959e+03	0	4.276685e-04
1.150000e+09	1.900306e+12	0.000000e+00	5.813953e-01	4.993765e+13	1.386215e+14	6.895796e+13	6.509207e+03	2.548846e+03	1.842889e+03	0	4.262500e-04
1.160000e+09	1.881538e+12	0.000000e+00	5.813953e-01	4.954529e+13	1.377771e+14	6.866017e+13	6.501315e+03	2.547377e+03	1.841826e+03	0	4.248421e-04
1.170000e+09	1.863031e+12	0.000000e+00	5.813953e-01	4.915833e+13	1.369428e+14	6.836437e+13	6.493484e+03	2.545919e+03	1.840773e+03	0	4.234446e-04
1.180000e+09	1.844781e+12	0.000000e+00	5.813953e-01	4.877664e+13	1.361186e+14	6.807053e+13	6.485715e+03	2.544473e+03	1.839727e+03	0	4.220574e-04
1.190000e+09	1.826783e+12	0.000000e+00	5.813953e-01	4.840014e+13	1.353042e+14	6.777864e+13	6.478006e+03	2.543037e+03	1.838689e+03	0	4.206803e-04
1.200000e+09	1.809032e+12	0.000000e+00	5.813953e-01	4.802870e+13	1.344994e+14	6.748870e+13	6.470357e+03	2.541613e+03	1.837659e+03	0	4.193133e-04
1.210000e+09	1.791522e+12	0.000000e+00	5.813953e-01	4.766225e+13	1.337040e+14	6.720068e+13	6.462766e+03	2.540199e+03	1.836636e+03	0	4.179560e-04
1.220000e+09	1.774249e+12	0.000000e+00	5.813953e-01	4.730068e+13	1.329179e+14	6.691456e+13	6.455232e+03	2.538795e+03	1.835621e+03	0	4.166085e-04
1.230000e+09	1.757209e+12	0.000000e+00	5.813953e-01	4.694390e+13	1.321409e+14	6.663034e+13	6.447756e+03	2.537401e+03	1.834614e+03	0	4.152705e-04
1.240000e+09	1.740397e+12	0.000000e+00	5.813953e-01	4.659182e+13	1.313727e+14	6.634800e+13	6.440336e+03	2.536018e+03	1.833613e+03	0	4.139419e-04
1.250000e+09	1.723809e+12	0.000000e+00	5.813953e-01	4.624435e+13	1.306133e+14	6.606752e+13	6.432972e+03	2.534644e+03	1.832620e+03	0	4.126225e-04
1.260000e+09	1.707441e+12	0.000000e+00	5.813953e-01	4.590141e+13	1.298625e+14	6.578889e+13	6.425662e+03	2.533280e+03	1.831634e+03	0	4.113124e-04
1.270000e+09	1.691288e+12	0.000000e+00	5.813953e-01	4.556290e+13	1.291200e+14	6.551209e+13	6.418406e+03	2.531926e+03	1.830655e+03	0	4.100112e-04
1.280000e+09	1.675347e+12	0.000000e+00	5.813953e-01	4.522875e+13	1.283858e+14	6.523712e+13	6.411204e+03	2.530581e+03	1.829682e+03	0	4.087190e-04
1.290000e+09	1.659613e+12	0.000000e+00	5.813953e-01	4.489888e+13	1.276598e+14	6.496395e+13	6.404054e+03	2.529245e+03	1.828716e+03	0	4.074355e-04
1.300000e+09	1.644083e+12	0.000000e+00	5.813953e-01	4.457321e+13	1.269416e+14	6.469258e+13	6.396957e+03	2.527918e+03	1.827757e+03	0	4.061606e-04
1.310000e+09	1.628753e+12	0.000000e+00	5.813953e-01	4.425166e+13	1.262313e+14	6.442298e+13	6.389910e+03	2.526600e+03	1.826804e+03	0	4.048943e-04
1.320000e+09	1.613619e+12	0.000000e+00	5.813953e-01	4.393416e+13	1.255287e+14	6.415515e+13	6.382915e+03	2.525291e+03	1.825858e+03	0	4.036363e-04
1.330000e+09	1.598678e+12	0.000000e+00	5.813953e-01	4.362063e+13	1.248336e+14	6.388908e+13	6.375969e+03	2.523991e+03	1.824918e+03	0	4.023867e-04
1.340000e+09	1.583927e+12	0.000000e+00	5.813953e-01	4.331101e+13	1.241459e+14	6.362474e+13	6.369073e+03	2.522699e+03	1.823984e+03	0	4.011452e-04
1.350000e+09	1.569361e+12	0.000000e+00	5.813953e-01	4.300522e+13	1.234655e+14	6.336212e+13	6.362226e+03	2.521416e+03	1.823056e+03	0	3.999118e-04
1.360000e+09	1.554978e+12	0.000000e+00	5.813953e-01	4.270319e+13	1.227923e+14	6.310122e+13	6.355427e+03	2.520141e+03	1.822134e+03	0	3.986863e-04
