#t		Qconv[W]	Ri[Rp]		R*[Rp]		Qc[W]		Qm[W]		Qr[W]		Tcmb[K]		Tl[K]		Tup[K]		RiFlag		Bs[T]
0.000000e+00	2.560846e+13	0.000000e+00	5.813951e-01	4.504288e+14	1.377374e+15	1.653322e+14	1.021554e+04	3.660674e+03	2.527317e+03	0	9.978205e-04
1.000000e+07	2.471511e+13	0.000000e+00	5.813951e-01	4.357562e+14	1.279529e+15	1.644161e+14	1.016577e+04	3.620107e+03	2.499310e+03	0	9.860800e-04
2.000000e+07	2.388474e+13	0.000000e+00	5.813951e-01	4.221115e+14	1.195828e+15	1.635069e+14	1.011761e+04	3.583811e+03	2.474251e+03	0	9.749105e-04
3.000000e+07	2.311000e+13	0.000000e+00	5.813951e-01	4.093752e+14	1.123480e+15	1.626045e+14	1.007094e+04	3.551123e+03	2.451683e+03	0	9.642536e-04
4.000000e+07	2.238475e+13	0.000000e+00	5.813951e-01	3.974470e+14	1.060367e+15	1.617088e+14	1.002566e+04	3.521509e+03	2.431238e+03	0	9.540594e-04
5.000000e+07	2.170380e+13	0.000000e+00	5.813951e-01	3.862423e+14	1.004856e+15	1.608198e+14	9.981700e+03	3.494538e+03	2.412618e+03	0	9.442852e-04
6.000000e+07	2.106269e+13	0.000000e+00	5.813951e-01	3.756888e+14	9.556703e+14	1.599374e+14	9.938966e+03	3.469856e+03	2.395577e+03	0	9.348944e-04
7.000000e+07	2.045762e+13	0.000000e+00	5.813951e-01	3.657243e+14	9.117980e+14	1.590616e+14	9.897391e+03	3.447170e+03	2.379915e+03	0	9.258551e-04
8.000000e+07	1.988529e+13	0.000000e+00	5.813951e-01	3.562950e+14	8.724276e+14	1.581923e+14	9.856910e+03	3.426234e+03	2.365461e+03	0	9.171393e-04
9.000000e+07	1.934283e+13	0.000000e+00	5.813951e-01	3.473542e+14	8.369019e+14	1.573295e+14	9.817465e+03	3.406843e+03	2.352073e+03	0	9.087225e-04
1.000000e+08	1.882771e+13	0.000000e+00	5.813951e-01	3.388606e+14	8.046832e+14	1.564731e+14	9.779003e+03	3.388821e+03	2.339631e+03	0	9.005831e-04
1.100000e+08	1.833772e+13	0.000000e+00	5.813951e-01	3.307781e+14	7.753281e+14	1.556230e+14	9.741475e+03	3.372019e+03	2.328031e+03	0	8.927018e-04
1.200000e+08	1.787089e+13	0.000000e+00	5.813951e-01	3.230747e+14	7.484674e+14	1.547793e+14	9.704835e+03	3.356308e+03	2.317184e+03	0	8.850613e-04
1.300000e+08	1.742547e+13	0.000000e+00	5.813951e-01	3.157218e+14	7.237920e+14	1.539418e+14	9.669043e+03	3.341577e+03	2.307014e+03	0	8.776462e-04
1.400000e+08	1.699991e+13	0.000000e+00	5.813951e-01	3.086939e+14	7.010409e+14	1.531104e+14	9.634060e+03	3.327729e+03	2.297453e+03	0	8.704426e-04
1.500000e+08	1.659279e+13	0.000000e+00	5.813951e-01	3.019681e+14	6.799926e+14	1.522853e+14	9.599851e+03	3.314681e+03	2.288445e+03	0	8.634378e-04
1.600000e+08	1.620285e+13	0.000000e+00	5.813951e-01	2.955239e+14	6.604578e+14	1.514662e+14	9.566382e+03	3.302357e+03	2.279937e+03	0	8.566205e-04
1.700000e+08	1.582897e+13	0.000000e+00	5.813951e-01	2.893426e+14	6.422740e+14	1.506532e+14	9.533623e+03	3.290694e+03	2.271885e+03	0	8.499802e-04
1.800000e+08	1.547009e+13	0.000000e+00	5.813951e-01	2.834072e+14	6.253008e+14	1.498461e+14	9.501545e+03	3.279634e+03	2.264248e+03	0	8.435074e-04
1.900000e+08	1.512528e+13	0.000000e+00	5.813951e-01	2.777026e+14	6.094164e+14	1.490450e+14	9.470120e+03	3.269125e+03	2.256993e+03	0	8.371933e-04
2.000000e+08	1.479368e+13	0.000000e+00	5.813951e-01	2.722145e+14	5.945148e+14	1.482498e+14	9.439324e+03	3.259122e+03	2.250087e+03	0	8.310300e-04
2.100000e+08	1.447451e+13	0.000000e+00	5.813951e-01	2.669302e+14	5.805031e+14	1.474605e+14	9.409133e+03	3.249585e+03	2.243503e+03	0	8.250101e-04
2.200000e+08	1.416704e+13	0.000000e+00	5.813951e-01	2.618379e+14	5.672997e+14	1.466769e+14	9.379525e+03	3.240477e+03	2.237214e+03	0	8.191266e-04
2.300000e+08	1.387062e+13	0.000000e+00	5.813951e-01	2.569269e+14	5.548327e+14	1.458991e+14	9.350478e+03	3.231765e+03	2.231200e+03	0	8.133734e-04
2.400000e+08	1.358464e+13	0.000000e+00	5.813951e-01	2.521871e+14	5.430384e+14	1.451270e+14	9.321972e+03	3.223420e+03	2.225439e+03	0	8.077444e-04
2.500000e+08	1.330852e+13	0.000000e+00	5.813951e-01	2.476094e+14	5.318602e+14	1.443606e+14	9.293990e+03	3.215415e+03	2.219912e+03	0	8.022344e-04
2.600000e+08	1.304176e+13	0.000000e+00	5.813951e-01	2.431853e+14	5.212478e+14	1.435998e+14	9.266512e+03	3.207727e+03	2.214604e+03	0	7.968381e-04
2.700000e+08	1.278387e+13	0.000000e+00	5.813951e-01	2.389068e+14	5.111560e+14	1.428445e+14	9.239523e+03	3.200334e+03	2.209500e+03	0	7.915508e-04
2.800000e+08	1.253440e+13	0.000000e+00	5.813951e-01	2.347666e+14	5.015446e+14	1.420947e+14	9.213006e+03	3.193214e+03	2.204585e+03	0	7.863681e-04
2.900000e+08	1.229294e+13	0.000000e+00	5.813951e-01	2.307579e+14	4.923772e+14	1.413504e+14	9.186946e+03	3.186352e+03	2.199847e+03	0	7.812857e-04
3.000000e+08	1.205909e+13	0.000000e+00	5.813951e-01	2.268744e+14	4.836212e+14	1.406116e+14	9.161328e+03	3.179729e+03	2.195275e+03	0	7.762999e-04
3.100000e+08	1.183250e+13	0.000000e+00	5.813951e-01	2.231102e+14	4.752470e+14	1.398781e+14	9.136139e+03	3.173331e+03	2.190857e+03	0	7.714069e-04
3.200000e+08	1.161283e+13	0.000000e+00	5.813951e-01	2.194597e+14	4.672279e+14	1.391500e+14	9.111366e+03	3.167144e+03	2.186586e+03	0	7.666032e-04
3.300000e+08	1.139975e+13	0.000000e+00	5.813951e-01	2.159176e+14	4.595396e+14	1.384271e+14	9.086996e+03	3.161155e+03	2.182451e+03	0	7.618856e-04
3.400000e+08	1.119298e+13	0.000000e+00	5.813951e-01	2.124793e+14	4.521600e+14	1.377095e+14	9.063018e+03	3.155352e+03	2.178445e+03	0	7.572510e-04
3.500000e+08	1.099223e+13	0.000000e+00	5.813951e-01	2.091400e+14	4.450689e+14	1.369971e+14	9.039419e+03	3.149726e+03	2.174560e+03	0	7.526965e-04
3.600000e+08	1.079725e+13	0.000000e+00	5.813951e-01	2.058955e+14	4.382481e+14	1.362899e+14	9.016189e+03	3.144264e+03	2.170790e+03	0	7.482194e-04
3.700000e+08	1.060778e+13	0.000000e+00	5.813951e-01	2.027418e+14	4.316807e+14	1.355878e+14	8.993318e+03	3.138959e+03	2.167127e+03	0	7.438170e-04
3.800000e+08	1.042359e+13	0.000000e+00	5.813951e-01	1.996751e+14	4.253512e+14	1.348908e+14	8.970796e+03	3.133803e+03	2.163567e+03	0	7.394868e-04
3.900000e+08	1.024447e+13	0.000000e+00	5.813951e-01	1.966918e+14	4.192455e+14	1.341988e+14	8.948612e+03	3.128786e+03	2.160103e+03	0	7.352266e-04
4.000000e+08	1.007022e+13	0.000000e+00	5.813951e-01	1.937885e+14	4.133505e+14	1.335118e+14	8.926758e+03	3.123901e+03	2.156731e+03	0	7.310340e-04
4.100000e+08	9.900623e+12	0.000000e+00	5.813951e-01	1.909621e+14	4.076542e+14	1.328298e+14	8.905226e+03	3.119143e+03	2.153446e+03	0	7.269069e-04
4.200000e+08	9.735511e+12	0.000000e+00	5.813951e-01	1.882094e+14	4.021455e+14	1.321527e+14	8.884005e+03	3.114504e+03	2.150243e+03	0	7.228434e-04
4.300000e+08	9.574705e+12	0.000000e+00	5.813951e-01	1.855277e+14	3.968142e+14	1.314804e+14	8.863090e+03	3.109979e+03	2.147119e+03	0	7.188414e-04
4.400000e+08	9.418040e+12	0.000000e+00	5.813951e-01	1.829143e+14	3.916507e+14	1.308130e+14	8.842471e+03	3.105562e+03	2.144070e+03	0	7.148992e-04
4.500000e+08	9.265360e+12	0.000000e+00	5.813951e-01	1.803665e+14	3.866463e+14	1.301504e+14	8.822141e+03	3.101248e+03	2.141091e+03	0	7.110149e-04
4.600000e+08	9.116517e+12	0.000000e+00	5.813951e-01	1.778819e+14	3.817927e+14	1.294926e+14	8.802092e+03	3.097031e+03	2.138180e+03	0	7.071870e-04
4.700000e+08	8.971368e+12	0.000000e+00	5.813951e-01	1.754583e+14	3.770824e+14	1.288394e+14	8.782319e+03	3.092909e+03	2.135334e+03	0	7.034138e-04
4.800000e+08	8.829781e+12	0.000000e+00	5.813951e-01	1.730934e+14	3.725082e+14	1.281910e+14	8.762814e+03	3.088876e+03	2.132550e+03	0	6.996936e-04
4.900000e+08	8.691626e+12	0.000000e+00	5.813951e-01	1.707851e+14	3.680636e+14	1.275472e+14	8.743571e+03	3.084928e+03	2.129824e+03	0	6.960252e-04
5.000000e+08	8.556784e+12	0.000000e+00	5.813951e-01	1.685315e+14	3.637424e+14	1.269080e+14	8.724583e+03	3.081062e+03	2.127155e+03	0	6.924070e-04
5.100000e+08	8.425138e+12	0.000000e+00	5.813951e-01	1.663306e+14	3.595388e+14	1.262733e+14	8.705845e+03	3.077275e+03	2.124540e+03	0	6.888378e-04
5.200000e+08	8.296578e+12	0.000000e+00	5.813951e-01	1.641806e+14	3.554474e+14	1.256432e+14	8.687350e+03	3.073562e+03	2.121977e+03	0	6.853161e-04
5.300000e+08	8.170998e+12	0.000000e+00	5.813951e-01	1.620799e+14	3.514632e+14	1.250176e+14	8.669093e+03	3.069921e+03	2.119463e+03	0	6.818408e-04
5.400000e+08	8.048300e+12	0.000000e+00	5.813951e-01	1.600267e+14	3.475814e+14	1.243964e+14	8.651069e+03	3.066349e+03	2.116997e+03	0	6.784107e-04
5.500000e+08	7.928385e+12	0.000000e+00	5.813951e-01	1.580194e+14	3.437976e+14	1.237797e+14	8.633273e+03	3.062843e+03	2.114577e+03	0	6.750245e-04
5.600000e+08	7.811165e+12	0.000000e+00	5.813951e-01	1.560567e+14	3.401076e+14	1.231673e+14	8.615698e+03	3.059401e+03	2.112201e+03	0	6.716812e-04
5.700000e+08	7.696549e+12	0.000000e+00	5.813951e-01	1.541370e+14	3.365074e+14	1.225593e+14	8.598341e+03	3.056020e+03	2.109866e+03	0	6.683798e-04
5.800000e+08	7.584455e+12	0.000000e+00	5.813951e-01	1.522589e+14	3.329935e+14	1.219556e+14	8.581197e+03	3.052698e+03	2.107573e+03	0	6.651191e-04
5.900000e+08	7.474804e+12	0.000000e+00	5.813951e-01	1.504212e+14	3.295622e+14	1.213562e+14	8.564261e+03	3.049433e+03	2.105318e+03	0	6.618982e-04
6.000000e+08	7.367516e+12	0.000000e+00	5.813951e-01	1.486226e+14	3.262102e+14	1.207610e+14	8.547528e+03	3.046222e+03	2.103101e+03	0	6.587162e-04
6.100000e+08	7.262521e+12	0.000000e+00	5.813951e-01	1.468619e+14	3.229346e+14	1.201701e+14	8.530994e+03	3.043063e+03	2.100921e+03	0	6.555720e-04
6.200000e+08	7.159746e+12	0.000000e+00	5.813951e-01	1.451378e+14	3.197322e+14	1.195833e+14	8.514656e+03	3.039956e+03	2.098776e+03	0	6.524649e-04
6.300000e+08	7.059124e+12	0.000000e+00	5.813951e-01	1.434494e+14	3.166004e+14	1.190006e+14	8.498509e+03	3.036897e+03	2.096664e+03	0	6.493939e-04
6.400000e+08	6.960590e+12	0.000000e+00	5.813951e-01	1.417955e+14	3.135365e+14	1.184221e+14	8.482548e+03	3.033886e+03	2.094585e+03	0	6.463583e-04
6.500000e+08	6.864082e+12	0.000000e+00	5.813951e-01	1.401752e+14	3.105380e+14	1.178476e+14	8.466772e+03	3.030920e+03	2.092537e+03	0	6.433571e-04
6.600000e+08	6.769541e+12	0.000000e+00	5.813951e-01	1.385873e+14	3.076026e+14	1.172772e+14	8.451174e+03	3.027999e+03	2.090520e+03	0	6.403897e-04
6.700000e+08	6.676908e+12	0.000000e+00	5.813951e-01	1.370311e+14	3.047280e+14	1.167108e+14	8.435753e+03	3.025120e+03	2.088533e+03	0	6.374553e-04
6.800000e+08	6.586128e+12	0.000000e+00	5.813951e-01	1.355055e+14	3.019120e+14	1.161484e+14	8.420504e+03	3.022283e+03	2.086574e+03	0	6.345532e-04
6.900000e+08	6.497149e+12	0.000000e+00	5.813951e-01	1.340097e+14	2.991527e+14	1.155899e+14	8.405424e+03	3.019485e+03	2.084643e+03	0	6.316826e-04
7.000000e+08	6.409918e+12	0.000000e+00	5.813951e-01	1.325429e+14	2.964481e+14	1.150353e+14	8.390511e+03	3.016727e+03	2.082738e+03	0	6.288428e-04
7.100000e+08	6.324387e+12	0.000000e+00	5.813951e-01	1.311042e+14	2.937963e+14	1.144847e+14	8.375759e+03	3.014006e+03	2.080860e+03	0	6.260333e-04
7.200000e+08	6.240509e+12	0.000000e+00	5.813951e-01	1.296929e+14	2.911957e+14	1.139378e+14	8.361168e+03	3.011321e+03	2.079006e+03	0	6.232534e-04
7.300000e+08	6.158237e+12	0.000000e+00	5.813951e-01	1.283082e+14	2.886446e+14	1.133948e+14	8.346733e+03	3.008672e+03	2.077177e+03	0	6.205024e-04
7.400000e+08	6.077529e+12	0.000000e+00	5.813951e-01	1.269494e+14	2.861413e+14	1.128556e+14	8.332451e+03	3.006057e+03	2.075372e+03	0	6.177797e-04
7.500000e+08	5.998340e+12	0.000000e+00	5.813951e-01	1.256158e+14	2.836844e+14	1.123201e+14	8.318320e+03	3.003476e+03	2.073590e+03	0	6.150848e-04
7.600000e+08	5.920631e+12	0.000000e+00	5.813951e-01	1.243068e+14	2.812724e+14	1.117884e+14	8.304337e+03	3.000926e+03	2.071830e+03	0	6.124171e-04
7.700000e+08	5.844362e+12	0.000000e+00	5.813951e-01	1.230216e+14	2.789039e+14	1.112604e+14	8.290499e+03	2.998409e+03	2.070092e+03	0	6.097760e-04
7.800000e+08	5.769495e+12	0.000000e+00	5.813951e-01	1.217596e+14	2.765777e+14	1.107360e+14	8.276804e+03	2.995922e+03	2.068374e+03	0	6.071610e-04
7.900000e+08	5.695993e+12	0.000000e+00	5.813951e-01	1.205203e+14	2.742923e+14	1.102153e+14	8.263249e+03	2.993464e+03	2.066678e+03	0	6.045716e-04
8.000000e+08	5.623820e+12	0.000000e+00	5.813951e-01	1.193030e+14	2.720467e+14	1.096982e+14	8.249831e+03	2.991036e+03	2.065001e+03	0	6.020073e-04
8.100000e+08	5.552944e+12	0.000000e+00	5.813951e-01	1.181072e+14	2.698397e+14	1.091846e+14	8.236549e+03	2.988635e+03	2.063344e+03	0	5.994676e-04
8.200000e+08	5.483329e+12	0.000000e+00	5.813951e-01	1.169324e+14	2.676701e+14	1.086747e+14	8.223399e+03	2.986262e+03	2.061706e+03	0	5.969520e-04
8.300000e+08	5.414945e+12	0.000000e+00	5.813951e-01	1.157780e+14	2.655369e+14	1.081682e+14	8.210379e+03	2.983916e+03	2.060086e+03	0	5.944600e-04
8.400000e+08	5.347761e+12	0.000000e+00	5.813951e-01	1.146435e+14	2.634391e+14	1.076653e+14	8.197488e+03	2.981596e+03	2.058484e+03	0	5.919912e-04
8.500000e+08	5.281746e+12	0.000000e+00	5.813951e-01	1.135284e+14	2.613757e+14	1.071658e+14	8.184722e+03	2.979302e+03	2.056900e+03	0	5.895452e-04
8.600000e+08	5.216871e+12	0.000000e+00	5.813951e-01	1.124322e+14	2.593457e+14	1.066697e+14	8.172080e+03	2.977032e+03	2.055333e+03	0	5.871215e-04
8.700000e+08	5.153110e+12	0.000000e+00	5.813951e-01	1.113546e+14	2.573483e+14	1.061771e+14	8.159560e+03	2.974786e+03	2.053782e+03	0	5.847197e-04
8.800000e+08	5.090433e+12	0.000000e+00	5.813951e-01	1.102949e+14	2.553825e+14	1.056879e+14	8.147160e+03	2.972564e+03	2.052248e+03	0	5.823395e-04
8.900000e+08	5.028817e+12	0.000000e+00	5.813951e-01	1.092529e+14	2.534476e+14	1.052020e+14	8.134877e+03	2.970364e+03	2.050730e+03	0	5.799803e-04
9.000000e+08	4.968234e+12	0.000000e+00	5.813951e-01	1.082280e+14	2.515427e+14	1.047195e+14	8.122709e+03	2.968188e+03	2.049227e+03	0	5.776418e-04
9.100000e+08	4.908660e+12	0.000000e+00	5.813951e-01	1.072199e+14	2.496670e+14	1.042402e+14	8.110656e+03	2.966033e+03	2.047739e+03	0	5.753237e-04
9.200000e+08	4.850071e+12	0.000000e+00	5.813951e-01	1.062282e+14	2.478198e+14	1.037643e+14	8.098714e+03	2.963899e+03	2.046266e+03	0	5.730256e-04
9.300000e+08	4.792445e+12	0.000000e+00	5.813951e-01	1.052524e+14	2.460005e+14	1.032916e+14	8.086883e+03	2.961787e+03	2.044808e+03	0	5.707471e-04
9.400000e+08	4.735759e+12	0.000000e+00	5.813951e-01	1.042923e+14	2.442082e+14	1.028221e+14	8.075160e+03	2.959695e+03	2.043364e+03	0	5.684878e-04
9.500000e+08	4.679992e+12	0.000000e+00	5.813951e-01	1.033475e+14	2.424424e+14	1.023559e+14	8.063543e+03	2.957623e+03	2.041933e+03	0	5.662475e-04
9.600000e+08	4.625121e+12	0.000000e+00	5.813951e-01	1.024176e+14	2.407023e+14	1.018928e+14	8.052032e+03	2.955571e+03	2.040516e+03	0	5.640258e-04
9.700000e+08	4.571127e+12	0.000000e+00	5.813951e-01	1.015023e+14	2.389875e+14	1.014329e+14	8.040623e+03	2.953537e+03	2.039113e+03	0	5.618224e-04
9.800000e+08	4.517990e+12	0.000000e+00	5.813951e-01	1.006012e+14	2.372971e+14	1.009761e+14	8.029317e+03	2.951523e+03	2.037722e+03	0	5.596370e-04
9.900000e+08	4.465691e+12	0.000000e+00	5.813951e-01	9.971411e+13	2.356308e+14	1.005224e+14	8.018110e+03	2.949527e+03	2.036344e+03	0	5.574692e-04
1.000000e+09	4.414211e+12	0.000000e+00	5.813951e-01	9.884062e+13	2.339879e+14	1.000718e+14	8.007002e+03	2.947549e+03	2.034978e+03	0	5.553187e-04
1.010000e+09	4.363531e+12	0.000000e+00	5.813951e-01	9.798046e+13	2.323679e+14	9.962424e+13	7.995991e+03	2.945589e+03	2.033625e+03	0	5.531853e-04
1.020000e+09	4.313635e+12	0.000000e+00	5.813951e-01	9.713334e+13	2.307702e+14	9.917972e+13	7.985075e+03	2.943645e+03	2.032283e+03	0	5.510687e-04
1.030000e+09	4.264505e+12	0.000000e+00	5.813951e-01	9.629898e+13	2.291944e+14	9.873821e+13	7.974254e+03	2.941719e+03	2.030953e+03	0	5.489686e-04
1.040000e+09	4.216125e+12	0.000000e+00	5.813951e-01	9.547710e+13	2.276400e+14	9.829968e+13	7.963525e+03	2.939809e+03	2.029635e+03	0	5.468847e-04
1.050000e+09	4.168478e+12	0.000000e+00	5.813951e-01	9.466744e+13	2.261064e+14	9.786411e+13	7.952888e+03	2.937916e+03	2.028328e+03	0	5.448168e-04
1.060000e+09	4.121549e+12	0.000000e+00	5.813951e-01	9.386973e+13	2.245933e+14	9.743148e+13	7.942340e+03	2.936039e+03	2.027031e+03	0	5.427645e-04
1.070000e+09	4.075322e+12	0.000000e+00	5.813951e-01	9.308374e+13	2.231002e+14	9.700176e+13	7.931881e+03	2.934177e+03	2.025746e+03	0	5.407277e-04
1.080000e+09	4.029783e+12	0.000000e+00	5.813951e-01	9.230920e+13	2.216266e+14	9.657494e+13	7.921510e+03	2.932330e+03	2.024471e+03	0	5.387060e-04
1.090000e+09	3.984917e+12	0.000000e+00	5.813951e-01	9.154588e+13	2.201722e+14	9.615098e+13	7.911224e+03	2.930499e+03	2.023207e+03	0	5.366993e-04
1.100000e+09	3.940710e+12	0.000000e+00	5.813951e-01	9.079355e+13	2.187366e+14	9.572988e+13	7.901023e+03	2.928682e+03	2.021953e+03	0	5.347073e-04
1.110000e+09	3.897148e+12	0.000000e+00	5.813951e-01	9.005199e+13	2.173192e+14	9.531159e+13	7.890906e+03	2.926880e+03	2.020709e+03	0	5.327297e-04
1.120000e+09	3.854219e+12	0.000000e+00	5.813951e-01	8.932097e+13	2.159199e+14	9.489611e+13	7.880871e+03	2.925092e+03	2.019474e+03	0	5.307664e-04
1.130000e+09	3.811909e+12	0.000000e+00	5.813951e-01	8.860027e+13	2.145381e+14	9.448341e+13	7.870918e+03	2.923319e+03	2.018250e+03	0	5.288171e-04
1.140000e+09	3.770206e+12	0.000000e+00	5.813951e-01	8.788970e+13	2.131736e+14	9.407347e+13	7.861045e+03	2.921558e+03	2.017034e+03	0	5.268815e-04
1.150000e+09	3.729097e+12	0.000000e+00	5.813951e-01	8.718905e+13	2.118260e+14	9.366626e+13	7.851250e+03	2.919812e+03	2.015829e+03	0	5.249596e-04
1.160000e+09	3.688571e+12	0.000000e+00	5.813951e-01	8.649812e+13	2.104950e+14	9.326177e+13	7.841534e+03	2.918079e+03	2.014632e+03	0	5.230509e-04
1.170000e+09	3.648615e+12	0.000000e+00	5.813951e-01	8.581672e+13	2.091802e+14	9.285998e+13	7.831894e+03	2.916358e+03	2.013444e+03	0	5.211555e-04
1.180000e+09	3.609219e+12	0.000000e+00	5.813951e-01	8.514466e+13	2.078813e+14	9.246085e+13	7.822330e+03	2.914651e+03	2.012265e+03	0	5.192730e-04
1.190000e+09	3.570372e+12	0.000000e+00	5.813951e-01	8.448176e+13	2.065980e+14	9.206439e+13	7.812840e+03	2.912956e+03	2.011095e+03	0	5.174032e-04
1.200000e+09	3.532062e+12	0.000000e+00	5.813951e-01	8.382784e+13	2.053300e+14	9.167055e+13	7.803425e+03	2.911274e+03	2.009934e+03	0	5.155460e-04
1.210000e+09	3.494280e+12	0.000000e+00	5.813951e-01	8.318273e+13	2.040770e+14	9.127933e+13	7.794082e+03	2.909603e+03	2.008781e+03	0	5.137011e-04
1.220000e+09	3.457015e+12	0.000000e+00	5.813951e-01	8.254626e+13	2.028388e+14	9.089069e+13	7.784811e+03	2.907945e+03	2.007636e+03	0	5.118685e-04
1.230000e+09	3.420257e+12	0.000000e+00	5.813951e-01	8.191826e+13	2.016150e+14	9.050463e+13	7.775610e+03	2.906299e+03	2.006499e+03	0	5.100478e-04
1.240000e+09	3.383996e+12	0.000000e+00	5.813951e-01	8.129857e+13	2.004054e+14	9.012112e+13	7.766479e+03	2.904664e+03	2.005371e+03	0	5.082389e-04
1.250000e+09	3.348223e+12	0.000000e+00	5.813951e-01	8.068704e+13	1.992097e+14	8.974014e+13	7.757418e+03	2.903041e+03	2.004250e+03	0	5.064417e-04
1.260000e+09	3.312930e+12	0.000000e+00	5.813951e-01	8.008351e+13	1.980277e+14	8.936168e+13	7.748424e+03	2.901429e+03	2.003137e+03	0	5.046559e-04
1.270000e+09	3.278105e+12	0.000000e+00	5.813951e-01	7.948784e+13	1.968591e+14	8.898571e+13	7.739497e+03	2.899828e+03	2.002032e+03	0	5.028814e-04
1.280000e+09	3.243742e+12	0.000000e+00	5.813951e-01	7.889988e+13	1.957036e+14	8.861221e+13	7.730637e+03	2.898238e+03	2.000934e+03	0	5.011181e-04
1.290000e+09	3.209831e+12	0.000000e+00	5.813951e-01	7.831948e+13	1.945612e+14	8.824116e+13	7.721841e+03	2.896659e+03	1.999844e+03	0	4.993657e-04
1.300000e+09	3.176365e+12	0.000000e+00	5.813951e-01	7.774651e+13	1.934314e+14	8.787255e+13	7.713111e+03	2.895090e+03	1.998761e+03	0	4.976241e-04
1.310000e+09	3.143334e+12	0.000000e+00	5.813951e-01	7.718083e+13	1.923141e+14	8.750636e+13	7.704444e+03	2.893532e+03	1.997685e+03	0	4.958932e-04
1.320000e+09	3.110731e+12	0.000000e+00	5.813951e-01	7.662231e+13	1.912091e+14	8.714256e+13	7.695840e+03	2.891984e+03	1.996616e+03	0	4.941727e-04
1.330000e+09	3.078548e+12	0.000000e+00	5.813951e-01	7.607082e+13	1.901162e+14	8.678115e+13	7.687298e+03	2.890446e+03	1.995554e+03	0	4.924626e-04
1.340000e+09	3.046777e+12	0.000000e+00	5.813951e-01	7.552624e+13	1.890351e+14	8.642209e+13	7.678818e+03	2.888918e+03	1.994500e+03	0	4.907627e-04
1.350000e+09	3.015412e+12	0.000000e+00	5.813951e-01	7.498844e+13	1.879657e+14	8.606538e+13	7.670398e+03	2.887400e+03	1.993452e+03	0	4.890728e-04
1.360000e+09	2.984444e+12	0.000000e+00	5.813951e-01	7.445731e+13	1.869077e+14	8.571100e+13	7.662038e+03	2.885892e+03	1.992410e+03	0	4.873928e-04
