#t		Qconv[W]	Ri[Rp]		R*[Rp]		Qc[W]		Qm[W]		Qr[W]		Tcmb[K]		Tl[K]		Tup[K]		RiFlag		Bs[T]
0.000000e+00	3.932125e+13	0.000000e+00	5.781249e-01	6.317097e+14	1.479652e+15	1.992385e+14	1.179426e+04	3.911238e+03	2.623217e+03	0	1.147472e-03
1.000000e+07	3.806134e+13	0.000000e+00	5.781249e-01	6.130622e+14	1.402830e+15	1.981345e+14	1.173735e+04	3.881948e+03	2.603573e+03	0	1.135083e-03
2.000000e+07	3.687639e+13	0.000000e+00	5.781249e-01	5.955158e+14	1.334789e+15	1.970389e+14	1.168211e+04	3.855182e+03	2.585620e+03	0	1.123179e-03
3.000000e+07	3.575920e+13	0.000000e+00	5.781249e-01	5.789647e+14	1.274102e+15	1.959514e+14	1.162843e+04	3.830605e+03	2.569137e+03	0	1.111720e-03
4.000000e+07	3.470350e+13	0.000000e+00	5.781249e-01	5.633175e+14	1.219633e+15	1.948720e+14	1.157624e+04	3.807942e+03	2.553937e+03	0	1.100671e-03
5.000000e+07	3.370388e+13	0.000000e+00	5.781249e-01	5.484946e+14	1.170464e+15	1.938007e+14	1.152544e+04	3.786960e+03	2.539865e+03	0	1.089999e-03
6.000000e+07	3.275558e+13	0.000000e+00	5.781249e-01	5.344263e+14	1.125845e+15	1.927374e+14	1.147597e+04	3.767463e+03	2.526789e+03	0	1.079679e-03
7.000000e+07	3.185442e+13	0.000000e+00	5.781249e-01	5.210513e+14	1.085161e+15	1.916820e+14	1.142776e+04	3.749286e+03	2.514598e+03	0	1.069686e-03
8.000000e+07	3.099670e+13	0.000000e+00	5.781249e-01	5.083154e+14	1.047902e+15	1.906344e+14	1.138075e+04	3.732285e+03	2.503195e+03	0	1.059997e-03
9.000000e+07	3.017911e+13	0.000000e+00	5.781249e-01	4.961704e+14	1.013639e+15	1.895946e+14	1.133488e+04	3.716338e+03	2.492500e+03	0	1.050595e-03
1.000000e+08	2.939873e+13	0.000000e+00	5.781249e-01	4.845730e+14	9.820143e+14	1.885626e+14	1.129009e+04	3.701338e+03	2.482440e+03	0	1.041460e-03
1.100000e+08	2.865292e+13	0.000000e+00	5.781249e-01	4.734846e+14	9.527221e+14	1.875382e+14	1.124635e+04	3.687193e+03	2.472953e+03	0	1.032577e-03
1.200000e+08	2.793930e+13	0.000000e+00	5.781249e-01	4.628703e+14	9.255026e+14	1.865214e+14	1.120360e+04	3.673823e+03	2.463986e+03	0	1.023933e-03
1.300000e+08	2.725572e+13	0.000000e+00	5.781249e-01	4.526987e+14	9.001332e+14	1.855121e+14	1.116180e+04	3.661156e+03	2.455490e+03	0	1.015513e-03
1.400000e+08	2.660023e+13	0.000000e+00	5.781249e-01	4.429413e+14	8.764216e+14	1.845103e+14	1.112091e+04	3.649130e+03	2.447424e+03	0	1.007306e-03
1.500000e+08	2.597108e+13	0.000000e+00	5.781249e-01	4.335719e+14	8.542013e+14	1.835159e+14	1.108090e+04	3.637690e+03	2.439751e+03	0	9.993009e-04
1.600000e+08	2.536664e+13	0.000000e+00	5.781249e-01	4.245669e+14	8.333275e+14	1.825289e+14	1.104173e+04	3.626786e+03	2.432438e+03	0	9.914876e-04
1.700000e+08	2.478543e+13	0.000000e+00	5.781249e-01	4.159046e+14	8.136735e+14	1.815491e+14	1.100337e+04	3.616375e+03	2.425456e+03	0	9.838566e-04
1.800000e+08	2.422611e+13	0.000000e+00	5.781249e-01	4.075651e+14	7.951281e+14	1.805766e+14	1.096579e+04	3.606418e+03	2.418778e+03	0	9.763994e-04
1.900000e+08	2.368742e+13	0.000000e+00	5.781249e-01	3.995302e+14	7.775932e+14	1.796112e+14	1.092895e+04	3.596881e+03	2.412381e+03	0	9.691081e-04
2.000000e+08	2.316822e+13	0.000000e+00	5.781249e-01	3.917829e+14	7.609821e+14	1.786529e+14	1.089284e+04	3.587731e+03	2.406245e+03	0	9.619752e-04
2.100000e+08	2.266746e+13	0.000000e+00	5.781249e-01	3.843078e+14	7.452179e+14	1.777017e+14	1.085742e+04	3.578940e+03	2.400349e+03	0	9.549938e-04
2.200000e+08	2.218414e+13	0.000000e+00	5.781249e-01	3.770903e+14	7.302319e+14	1.767574e+14	1.082267e+04	3.570483e+03	2.394677e+03	0	9.481576e-04
2.300000e+08	2.171737e+13	0.000000e+00	5.781249e-01	3.701172e+14	7.159631e+14	1.758201e+14	1.078858e+04	3.562337e+03	2.389213e+03	0	9.414603e-04
2.400000e+08	2.126629e+13	0.000000e+00	5.781249e-01	3.633760e+14	7.023564e+14	1.748897e+14	1.075511e+04	3.554480e+03	2.383944e+03	0	9.348965e-04
2.500000e+08	2.083013e+13	0.000000e+00	5.781249e-01	3.568552e+14	6.893625e+14	1.739660e+14	1.072224e+04	3.546893e+03	2.378855e+03	0	9.284609e-04
2.600000e+08	2.040815e+13	0.000000e+00	5.781249e-01	3.505441e+14	6.769370e+14	1.730492e+14	1.068996e+04	3.539560e+03	2.373937e+03	0	9.221485e-04
2.700000e+08	1.999968e+13	0.000000e+00	5.781249e-01	3.444326e+14	6.650398e+14	1.721390e+14	1.065825e+04	3.532464e+03	2.369178e+03	0	9.159546e-04
2.800000e+08	1.960406e+13	0.000000e+00	5.781249e-01	3.385113e+14	6.536344e+14	1.712355e+14	1.062709e+04	3.525590e+03	2.364567e+03	0	9.098748e-04
2.900000e+08	1.922072e+13	0.000000e+00	5.781249e-01	3.327715e+14	6.426878e+14	1.703386e+14	1.059647e+04	3.518925e+03	2.360098e+03	0	9.039051e-04
3.000000e+08	1.884908e+13	0.000000e+00	5.781249e-01	3.272049e+14	6.321701e+14	1.694482e+14	1.056635e+04	3.512457e+03	2.355760e+03	0	8.980413e-04
3.100000e+08	1.848862e+13	0.000000e+00	5.781249e-01	3.218038e+14	6.220537e+14	1.685643e+14	1.053674e+04	3.506175e+03	2.351546e+03	0	8.922800e-04
3.200000e+08	1.813886e+13	0.000000e+00	5.781249e-01	3.165609e+14	6.123136e+14	1.676868e+14	1.050762e+04	3.500068e+03	2.347450e+03	0	8.866174e-04
3.300000e+08	1.779932e+13	0.000000e+00	5.781249e-01	3.114695e+14	6.029270e+14	1.668157e+14	1.047897e+04	3.494127e+03	2.343466e+03	0	8.810504e-04
3.400000e+08	1.746957e+13	0.000000e+00	5.781249e-01	3.065230e+14	5.938727e+14	1.659510e+14	1.045077e+04	3.488342e+03	2.339586e+03	0	8.755758e-04
3.500000e+08	1.714921e+13	0.000000e+00	5.781249e-01	3.017155e+14	5.851314e+14	1.650925e+14	1.042302e+04	3.482706e+03	2.335806e+03	0	8.701905e-04
3.600000e+08	1.683783e+13	0.000000e+00	5.781249e-01	2.970412e+14	5.766853e+14	1.642402e+14	1.039571e+04	3.477211e+03	2.332120e+03	0	8.648916e-04
3.700000e+08	1.653508e+13	0.000000e+00	5.781249e-01	2.924947e+14	5.685180e+14	1.633941e+14	1.036881e+04	3.471849e+03	2.328524e+03	0	8.596765e-04
3.800000e+08	1.624061e+13	0.000000e+00	5.781249e-01	2.880709e+14	5.606143e+14	1.625542e+14	1.034233e+04	3.466615e+03	2.325014e+03	0	8.545426e-04
3.900000e+08	1.595409e+13	0.000000e+00	5.781249e-01	2.837650e+14	5.529602e+14	1.617203e+14	1.031624e+04	3.461501e+03	2.321584e+03	0	8.494874e-04
4.000000e+08	1.567521e+13	0.000000e+00	5.781249e-01	2.795723e+14	5.455425e+14	1.608924e+14	1.029054e+04	3.456503e+03	2.318232e+03	0	8.445086e-04
4.100000e+08	1.540367e+13	0.000000e+00	5.781249e-01	2.754886e+14	5.383493e+14	1.600705e+14	1.026522e+04	3.451615e+03	2.314954e+03	0	8.396038e-04
4.200000e+08	1.513920e+13	0.000000e+00	5.781249e-01	2.715098e+14	5.313693e+14	1.592545e+14	1.024027e+04	3.446832e+03	2.311746e+03	0	8.347709e-04
4.300000e+08	1.488154e+13	0.000000e+00	5.781249e-01	2.676318e+14	5.245921e+14	1.584444e+14	1.021568e+04	3.442149e+03	2.308605e+03	0	8.300079e-04
4.400000e+08	1.463042e+13	0.000000e+00	5.781249e-01	2.638511e+14	5.180078e+14	1.576401e+14	1.019143e+04	3.437562e+03	2.305529e+03	0	8.253127e-04
4.500000e+08	1.438561e+13	0.000000e+00	5.781249e-01	2.601640e+14	5.116073e+14	1.568416e+14	1.016753e+04	3.433067e+03	2.302514e+03	0	8.206835e-04
4.600000e+08	1.414688e+13	0.000000e+00	5.781249e-01	2.565673e+14	5.053823e+14	1.560489e+14	1.014396e+04	3.428660e+03	2.299558e+03	0	8.161185e-04
4.700000e+08	1.391402e+13	0.000000e+00	5.781249e-01	2.530576e+14	4.993246e+14	1.552618e+14	1.012071e+04	3.424338e+03	2.296659e+03	0	8.116159e-04
4.800000e+08	1.368682e+13	0.000000e+00	5.781249e-01	2.496321e+14	4.934268e+14	1.544804e+14	1.009778e+04	3.420096e+03	2.293814e+03	0	8.071740e-04
4.900000e+08	1.346508e+13	0.000000e+00	5.781249e-01	2.462876e+14	4.876820e+14	1.537045e+14	1.007516e+04	3.415932e+03	2.291022e+03	0	8.027913e-04
5.000000e+08	1.324862e+13	0.000000e+00	5.781249e-01	2.430215e+14	4.820836e+14	1.529342e+14	1.005284e+04	3.411843e+03	2.288279e+03	0	7.984661e-04
5.100000e+08	1.303725e+13	0.000000e+00	5.781249e-01	2.398312e+14	4.766253e+14	1.521694e+14	1.003082e+04	3.407826e+03	2.285585e+03	0	7.941970e-04
5.200000e+08	1.283080e+13	0.000000e+00	5.781249e-01	2.367140e+14	4.713014e+14	1.514101e+14	1.000908e+04	3.403878e+03	2.282937e+03	0	7.899826e-04
5.300000e+08	1.262911e+13	0.000000e+00	5.781249e-01	2.336676e+14	4.661063e+14	1.506562e+14	9.987626e+03	3.399996e+03	2.280333e+03	0	7.858214e-04
5.400000e+08	1.243202e+13	0.000000e+00	5.781249e-01	2.306897e+14	4.610350e+14	1.499076e+14	9.966445e+03	3.396179e+03	2.277773e+03	0	7.817122e-04
5.500000e+08	1.223939e+13	0.000000e+00	5.781249e-01	2.277780e+14	4.560825e+14	1.491644e+14	9.945534e+03	3.392424e+03	2.275255e+03	0	7.776536e-04
5.600000e+08	1.205106e+13	0.000000e+00	5.781249e-01	2.249304e+14	4.512443e+14	1.484265e+14	9.924885e+03	3.388728e+03	2.272776e+03	0	7.736445e-04
5.700000e+08	1.186691e+13	0.000000e+00	5.781249e-01	2.221449e+14	4.465159e+14	1.476938e+14	9.904493e+03	3.385090e+03	2.270336e+03	0	7.696836e-04
5.800000e+08	1.168680e+13	0.000000e+00	5.781249e-01	2.194196e+14	4.418933e+14	1.469663e+14	9.884353e+03	3.381508e+03	2.267934e+03	0	7.657697e-04
5.900000e+08	1.151060e+13	0.000000e+00	5.781249e-01	2.167525e+14	4.373726e+14	1.462439e+14	9.864459e+03	3.377980e+03	2.265568e+03	0	7.619018e-04
6.000000e+08	1.133820e+13	0.000000e+00	5.781249e-01	2.141419e+14	4.329499e+14	1.455267e+14	9.844806e+03	3.374504e+03	2.263236e+03	0	7.580788e-04
6.100000e+08	1.116947e+13	0.000000e+00	5.781249e-01	2.115861e+14	4.286220e+14	1.448145e+14	9.825388e+03	3.371079e+03	2.260939e+03	0	7.542996e-04
6.200000e+08	1.100431e+13	0.000000e+00	5.781249e-01	2.090835e+14	4.243853e+14	1.441074e+14	9.806201e+03	3.367702e+03	2.258674e+03	0	7.505633e-04
6.300000e+08	1.084261e+13	0.000000e+00	5.781249e-01	2.066323e+14	4.202367e+14	1.434053e+14	9.787241e+03	3.364373e+03	2.256442e+03	0	7.468688e-04
6.400000e+08	1.068427e+13	0.000000e+00	5.781249e-01	2.042312e+14	4.161732e+14	1.427081e+14	9.768501e+03	3.361090e+03	2.254240e+03	0	7.432152e-04
6.500000e+08	1.052918e+13	0.000000e+00	5.781249e-01	2.018787e+14	4.121920e+14	1.420158e+14	9.749979e+03	3.357852e+03	2.252068e+03	0	7.396016e-04
6.600000e+08	1.037726e+13	0.000000e+00	5.781249e-01	1.995733e+14	4.082903e+14	1.413284e+14	9.731669e+03	3.354656e+03	2.249924e+03	0	7.360272e-04
6.700000e+08	1.022841e+13	0.000000e+00	5.781249e-01	1.973137e+14	4.044654e+14	1.406459e+14	9.713567e+03	3.351503e+03	2.247810e+03	0	7.324910e-04
6.800000e+08	1.008254e+13	0.000000e+00	5.781249e-01	1.950986e+14	4.007150e+14	1.399681e+14	9.695670e+03	3.348390e+03	2.245722e+03	0	7.289922e-04
6.900000e+08	9.939566e+12	0.000000e+00	5.781249e-01	1.929268e+14	3.970366e+14	1.392951e+14	9.677973e+03	3.345317e+03	2.243661e+03	0	7.255301e-04
7.000000e+08	9.799413e+12	0.000000e+00	5.781249e-01	1.907970e+14	3.934280e+14	1.386268e+14	9.660472e+03	3.342283e+03	2.241626e+03	0	7.221038e-04
7.100000e+08	9.661998e+12	0.000000e+00	5.781249e-01	1.887080e+14	3.898870e+14	1.379632e+14	9.643163e+03	3.339286e+03	2.239616e+03	0	7.187126e-04
7.200000e+08	9.527246e+12	0.000000e+00	5.781249e-01	1.866589e+14	3.864115e+14	1.373042e+14	9.626043e+03	3.336325e+03	2.237630e+03	0	7.153558e-04
7.300000e+08	9.395085e+12	0.000000e+00	5.781249e-01	1.846484e+14	3.829996e+14	1.366498e+14	9.609109e+03	3.333400e+03	2.235668e+03	0	7.120326e-04
7.400000e+08	9.265443e+12	0.000000e+00	5.781249e-01	1.826755e+14	3.796493e+14	1.360000e+14	9.592356e+03	3.330510e+03	2.233730e+03	0	7.087423e-04
7.500000e+08	9.138254e+12	0.000000e+00	5.781249e-01	1.807393e+14	3.763589e+14	1.353547e+14	9.575782e+03	3.327653e+03	2.231814e+03	0	7.054843e-04
7.600000e+08	9.013451e+12	0.000000e+00	5.781249e-01	1.788387e+14	3.731266e+14	1.347139e+14	9.559382e+03	3.324829e+03	2.229920e+03	0	7.022579e-04
7.700000e+08	8.890971e+12	0.000000e+00	5.781249e-01	1.769728e+14	3.699507e+14	1.340776e+14	9.543155e+03	3.322037e+03	2.228047e+03	0	6.990625e-04
7.800000e+08	8.770753e+12	0.000000e+00	5.781249e-01	1.751408e+14	3.668296e+14	1.334457e+14	9.527096e+03	3.319276e+03	2.226195e+03	0	6.958975e-04
7.900000e+08	8.652739e+12	0.000000e+00	5.781249e-01	1.733417e+14	3.637619e+14	1.328182e+14	9.511203e+03	3.316545e+03	2.224364e+03	0	6.927622e-04
8.000000e+08	8.536872e+12	0.000000e+00	5.781249e-01	1.715747e+14	3.607460e+14	1.321950e+14	9.495472e+03	3.313844e+03	2.222553e+03	0	6.896561e-04
8.100000e+08	8.423096e+12	0.000000e+00	5.781249e-01	1.698389e+14	3.577804e+14	1.315762e+14	9.479902e+03	3.311173e+03	2.220761e+03	0	6.865785e-04
8.200000e+08	8.311358e+12	0.000000e+00	5.781249e-01	1.681337e+14	3.548639e+14	1.309616e+14	9.464488e+03	3.308529e+03	2.218988e+03	0	6.835290e-04
8.300000e+08	8.201607e+12	0.000000e+00	5.781249e-01	1.664582e+14	3.519952e+14	1.303513e+14	9.449229e+03	3.305913e+03	2.217233e+03	0	6.805070e-04
8.400000e+08	8.093794e+12	0.000000e+00	5.781249e-01	1.648116e+14	3.491729e+14	1.297452e+14	9.434121e+03	3.303324e+03	2.215497e+03	0	6.775120e-04
8.500000e+08	7.987869e+12	0.000000e+00	5.781249e-01	1.631934e+14	3.463959e+14	1.291433e+14	9.419162e+03	3.300762e+03	2.213778e+03	0	6.745435e-04
8.600000e+08	7.883786e+12	0.000000e+00	5.781249e-01	1.616027e+14	3.436629e+14	1.285456e+14	9.404349e+03	3.298225e+03	2.212077e+03	0	6.716009e-04
8.700000e+08	7.781501e+12	0.000000e+00	5.781249e-01	1.600389e+14	3.409729e+14	1.279519e+14	9.389681e+03	3.295714e+03	2.210393e+03	0	6.686837e-04
8.800000e+08	7.680970e+12	0.000000e+00	5.781249e-01	1.585014e+14	3.383248e+14	1.273623e+14	9.375153e+03	3.293227e+03	2.208725e+03	0	6.657916e-04
8.900000e+08	7.582150e+12	0.000000e+00	5.781249e-01	1.569896e+14	3.357174e+14	1.267768e+14	9.360765e+03	3.290765e+03	2.207073e+03	0	6.629240e-04
9.000000e+08	7.485001e+12	0.000000e+00	5.781249e-01	1.555028e+14	3.331500e+14	1.261953e+14	9.346514e+03	3.288326e+03	2.205437e+03	0	6.600805e-04
9.100000e+08	7.389482e+12	0.000000e+00	5.781249e-01	1.540404e+14	3.306213e+14	1.256178e+14	9.332397e+03	3.285910e+03	2.203817e+03	0	6.572606e-04
9.200000e+08	7.295555e+12	0.000000e+00	5.781249e-01	1.526018e+14	3.281305e+14	1.250443e+14	9.318413e+03	3.283517e+03	2.202212e+03	0	6.544640e-04
9.300000e+08	7.203184e+12	0.000000e+00	5.781249e-01	1.511866e+14	3.256767e+14	1.244746e+14	9.304559e+03	3.281146e+03	2.200622e+03	0	6.516901e-04
9.400000e+08	7.112331e+12	0.000000e+00	5.781249e-01	1.497942e+14	3.232591e+14	1.239089e+14	9.290833e+03	3.278797e+03	2.199047e+03	0	6.489386e-04
9.500000e+08	7.022962e+12	0.000000e+00	5.781249e-01	1.484240e+14	3.208767e+14	1.233470e+14	9.277232e+03	3.276469e+03	2.197485e+03	0	6.462091e-04
9.600000e+08	6.935043e+12	0.000000e+00	5.781249e-01	1.470756e+14	3.185287e+14	1.227890e+14	9.263756e+03	3.274162e+03	2.195938e+03	0	6.435012e-04
9.700000e+08	6.848541e+12	0.000000e+00	5.781249e-01	1.457484e+14	3.162144e+14	1.222347e+14	9.250402e+03	3.271876e+03	2.194405e+03	0	6.408145e-04
9.800000e+08	6.763423e+12	0.000000e+00	5.781249e-01	1.444420e+14	3.139329e+14	1.216843e+14	9.237168e+03	3.269610e+03	2.192885e+03	0	6.381486e-04
9.900000e+08	6.679659e+12	0.000000e+00	5.781249e-01	1.431559e+14	3.116836e+14	1.211375e+14	9.224053e+03	3.267363e+03	2.191378e+03	0	6.355032e-04
1.000000e+09	6.597218e+12	0.000000e+00	5.781249e-01	1.418897e+14	3.094657e+14	1.205945e+14	9.211053e+03	3.265136e+03	2.189884e+03	0	6.328779e-04
1.010000e+09	6.516072e+12	0.000000e+00	5.781249e-01	1.406429e+14	3.072785e+14	1.200552e+14	9.198169e+03	3.262928e+03	2.188403e+03	0	6.302723e-04
1.020000e+09	6.436190e+12	0.000000e+00	5.781249e-01	1.394151e+14	3.051214e+14	1.195195e+14	9.185397e+03	3.260738e+03	2.186935e+03	0	6.276862e-04
1.030000e+09	6.357547e+12	0.000000e+00	5.781249e-01	1.382059e+14	3.029936e+14	1.189874e+14	9.172736e+03	3.258567e+03	2.185479e+03	0	6.251192e-04
1.040000e+09	6.280115e+12	0.000000e+00	5.781249e-01	1.370150e+14	3.008946e+14	1.184590e+14	9.160185e+03	3.256413e+03	2.184034e+03	0	6.225709e-04
1.050000e+09	6.203868e+12	0.000000e+00	5.781249e-01	1.358418e+14	2.988238e+14	1.179341e+14	9.147742e+03	3.254278e+03	2.182602e+03	0	6.200411e-04
1.060000e+09	6.128780e+12	0.000000e+00	5.781249e-01	1.346860e+14	2.967805e+14	1.174127e+14	9.135405e+03	3.252159e+03	2.181181e+03	0	6.175294e-04
1.070000e+09	6.054827e+12	0.000000e+00	5.781249e-01	1.335474e+14	2.947641e+14	1.168949e+14	9.123173e+03	3.250058e+03	2.179772e+03	0	6.150355e-04
1.080000e+09	5.981985e+12	0.000000e+00	5.781249e-01	1.324254e+14	2.927742e+14	1.163805e+14	9.111044e+03	3.247974e+03	2.178374e+03	0	6.125592e-04
1.090000e+09	5.910230e+12	0.000000e+00	5.781249e-01	1.313197e+14	2.908101e+14	1.158696e+14	9.099016e+03	3.245905e+03	2.176987e+03	0	6.101001e-04
1.100000e+09	5.839540e+12	0.000000e+00	5.781249e-01	1.302301e+14	2.888714e+14	1.153621e+14	9.087088e+03	3.243854e+03	2.175611e+03	0	6.076579e-04
1.110000e+09	5.769892e+12	0.000000e+00	5.781249e-01	1.291562e+14	2.869575e+14	1.148581e+14	9.075260e+03	3.241817e+03	2.174245e+03	0	6.052324e-04
1.120000e+09	5.701266e+12	0.000000e+00	5.781249e-01	1.280976e+14	2.850679e+14	1.143574e+14	9.063528e+03	3.239797e+03	2.172890e+03	0	6.028233e-04
1.130000e+09	5.633639e+12	0.000000e+00	5.781249e-01	1.270541e+14	2.832021e+14	1.138601e+14	9.051892e+03	3.237792e+03	2.171545e+03	0	6.004304e-04
1.140000e+09	5.566992e+12	0.000000e+00	5.781249e-01	1.260254e+14	2.813597e+14	1.133660e+14	9.040351e+03	3.235802e+03	2.170211e+03	0	5.980532e-04
1.150000e+09	5.501305e+12	0.000000e+00	5.781249e-01	1.250111e+14	2.795402e+14	1.128753e+14	9.028903e+03	3.233827e+03	2.168886e+03	0	5.956917e-04
1.160000e+09	5.436558e+12	0.000000e+00	5.781249e-01	1.240109e+14	2.777432e+14	1.123879e+14	9.017547e+03	3.231867e+03	2.167571e+03	0	5.933455e-04
1.170000e+09	5.372734e+12	0.000000e+00	5.781249e-01	1.230247e+14	2.759682e+14	1.119037e+14	9.006282e+03	3.229921e+03	2.166266e+03	0	5.910144e-04
1.180000e+09	5.309812e+12	0.000000e+00	5.781249e-01	1.220520e+14	2.742147e+14	1.114227e+14	8.995106e+03	3.227989e+03	2.164970e+03	0	5.886982e-04
1.190000e+09	5.247776e+12	0.000000e+00	5.781249e-01	1.210927e+14	2.724825e+14	1.109449e+14	8.984018e+03	3.226071e+03	2.163684e+03	0	5.863965e-04
1.200000e+09	5.186607e+12	0.000000e+00	5.781249e-01	1.201465e+14	2.707711e+14	1.104703e+14	8.973017e+03	3.224167e+03	2.162407e+03	0	5.841093e-04
1.210000e+09	5.126290e+12	0.000000e+00	5.781249e-01	1.192131e+14	2.690801e+14	1.099989e+14	8.962101e+03	3.222276e+03	2.161139e+03	0	5.818361e-04
1.220000e+09	5.066807e+12	0.000000e+00	5.781249e-01	1.182923e+14	2.674091e+14	1.095305e+14	8.951271e+03	3.220399e+03	2.159880e+03	0	5.795769e-04
1.230000e+09	5.008143e+12	0.000000e+00	5.781249e-01	1.173838e+14	2.657578e+14	1.090653e+14	8.940523e+03	3.218535e+03	2.158630e+03	0	5.773314e-04
1.240000e+09	4.950281e+12	0.000000e+00	5.781249e-01	1.164875e+14	2.641257e+14	1.086032e+14	8.929858e+03	3.216684e+03	2.157388e+03	0	5.750994e-04
1.250000e+09	4.893207e+12	0.000000e+00	5.781249e-01	1.156030e+14	2.625127e+14	1.081440e+14	8.919275e+03	3.214845e+03	2.156155e+03	0	5.728806e-04
1.260000e+09	4.836904e+12	0.000000e+00	5.781249e-01	1.147302e+14	2.609182e+14	1.076880e+14	8.908771e+03	3.213019e+03	2.154930e+03	0	5.706749e-04
1.270000e+09	4.781360e+12	0.000000e+00	5.781249e-01	1.138688e+14	2.593420e+14	1.072349e+14	8.898346e+03	3.211206e+03	2.153714e+03	0	5.684821e-04
1.280000e+09	4.726559e+12	0.000000e+00	5.781249e-01	1.130186e+14	2.577838e+14	1.067848e+14	8.888000e+03	3.209405e+03	2.152506e+03	0	5.663019e-04
1.290000e+09	4.672487e+12	0.000000e+00	5.781249e-01	1.121795e+14	2.562431e+14	1.063376e+14	8.877731e+03	3.207615e+03	2.151306e+03	0	5.641341e-04
1.300000e+09	4.619132e+12	0.000000e+00	5.781249e-01	1.113511e+14	2.547199e+14	1.058934e+14	8.867537e+03	3.205838e+03	2.150114e+03	0	5.619786e-04
1.310000e+09	4.566479e+12	0.000000e+00	5.781249e-01	1.105334e+14	2.532136e+14	1.054522e+14	8.857419e+03	3.204072e+03	2.148930e+03	0	5.598351e-04
1.320000e+09	4.514516e+12	0.000000e+00	5.781249e-01	1.097261e+14	2.517241e+14	1.050138e+14	8.847375e+03	3.202318e+03	2.147753e+03	0	5.577035e-04
1.330000e+09	4.463231e+12	0.000000e+00	5.781249e-01	1.089291e+14	2.502510e+14	1.045782e+14	8.837404e+03	3.200575e+03	2.146584e+03	0	5.555836e-04
1.340000e+09	4.412610e+12	0.000000e+00	5.781249e-01	1.081421e+14	2.487941e+14	1.041455e+14	8.827505e+03	3.198844e+03	2.145423e+03	0	5.534752e-04
1.350000e+09	4.362642e+12	0.000000e+00	5.781249e-01	1.073649e+14	2.473531e+14	1.037157e+14	8.817678e+03	3.197123e+03	2.144269e+03	0	5.513781e-04
1.360000e+09	4.313316e+12	0.000000e+00	5.781249e-01	1.065975e+14	2.459277e+14	1.032886e+14	8.807921e+03	3.195414e+03	2.143123e+03	0	5.492921e-04
