#t		Qconv[W]	Ri[Rp]		R*[Rp]		Qc[W]		Qm[W]		Qr[W]		Tcmb[K]		Tl[K]		Tup[K]		RiFlag		Bs[T]
0.000000e+00	9.253937e+13	0.000000e+00	5.748032e-01	1.241062e+15	1.638004e+15	2.852350e+14	1.548682e+04	4.438907e+03	2.795804e+03	0	1.511135e-03
1.000000e+07	9.006181e+13	0.000000e+00	5.748032e-01	1.211416e+15	1.618114e+15	2.836546e+14	1.541285e+04	4.435217e+03	2.793479e+03	0	1.497527e-03
2.000000e+07	8.767643e+13	0.000000e+00	5.748032e-01	1.182862e+15	1.597756e+15	2.820860e+14	1.534065e+04	4.431153e+03	2.790920e+03	0	1.484187e-03
3.000000e+07	8.537918e+13	0.000000e+00	5.748032e-01	1.155354e+15	1.577063e+15	2.805291e+14	1.527013e+04	4.426766e+03	2.788156e+03	0	1.471109e-03
4.000000e+07	8.316616e+13	0.000000e+00	5.748032e-01	1.128843e+15	1.556152e+15	2.789839e+14	1.520123e+04	4.422101e+03	2.785218e+03	0	1.458288e-03
5.000000e+07	8.103362e+13	0.000000e+00	5.748032e-01	1.103287e+15	1.535122e+15	2.774502e+14	1.513391e+04	4.417199e+03	2.782131e+03	0	1.445715e-03
6.000000e+07	7.897798e+13	0.000000e+00	5.748032e-01	1.078643e+15	1.514057e+15	2.759279e+14	1.506810e+04	4.412095e+03	2.778916e+03	0	1.433385e-03
7.000000e+07	7.699582e+13	0.000000e+00	5.748032e-01	1.054871e+15	1.493030e+15	2.744169e+14	1.500374e+04	4.406822e+03	2.775595e+03	0	1.421292e-03
8.000000e+07	7.508388e+13	0.000000e+00	5.748032e-01	1.031931e+15	1.472101e+15	2.729172e+14	1.494080e+04	4.401405e+03	2.772183e+03	0	1.409429e-03
9.000000e+07	7.323903e+13	0.000000e+00	5.748032e-01	1.009788e+15	1.451322e+15	2.714286e+14	1.487921e+04	4.395871e+03	2.768698e+03	0	1.397790e-03
1.000000e+08	7.145831e+13	0.000000e+00	5.748032e-01	9.884054e+14	1.430735e+15	2.699511e+14	1.481894e+04	4.390240e+03	2.765151e+03	0	1.386368e-03
1.100000e+08	6.973889e+13	0.000000e+00	5.748032e-01	9.677505e+14	1.410377e+15	2.684846e+14	1.475993e+04	4.384532e+03	2.761556e+03	0	1.375158e-03
1.200000e+08	6.807808e+13	0.000000e+00	5.748032e-01	9.477914e+14	1.390275e+15	2.670289e+14	1.470215e+04	4.378764e+03	2.757923e+03	0	1.364154e-03
1.300000e+08	6.647332e+13	0.000000e+00	5.748032e-01	9.284978e+14	1.370454e+15	2.655840e+14	1.464555e+04	4.372950e+03	2.754261e+03	0	1.353350e-03
1.400000e+08	6.492216e+13	0.000000e+00	5.748032e-01	9.098409e+14	1.350933e+15	2.641498e+14	1.459010e+04	4.367103e+03	2.750578e+03	0	1.342740e-03
1.500000e+08	6.342230e+13	0.000000e+00	5.748032e-01	8.917933e+14	1.331727e+15	2.627262e+14	1.453575e+04	4.361235e+03	2.746882e+03	0	1.332319e-03
1.600000e+08	6.197154e+13	0.000000e+00	5.748032e-01	8.743289e+14	1.312847e+15	2.613131e+14	1.448247e+04	4.355356e+03	2.743180e+03	0	1.322082e-03
1.700000e+08	6.056777e+13	0.000000e+00	5.748032e-01	8.574231e+14	1.294302e+15	2.599104e+14	1.443023e+04	4.349475e+03	2.739476e+03	0	1.312023e-03
1.800000e+08	5.920900e+13	0.000000e+00	5.748032e-01	8.410523e+14	1.276097e+15	2.585181e+14	1.437899e+04	4.343600e+03	2.735775e+03	0	1.302138e-03
1.900000e+08	5.789335e+13	0.000000e+00	5.748032e-01	8.251940e+14	1.258236e+15	2.571361e+14	1.432873e+04	4.337738e+03	2.732083e+03	0	1.292421e-03
2.000000e+08	5.661902e+13	0.000000e+00	5.748032e-01	8.098270e+14	1.240721e+15	2.557642e+14	1.427941e+04	4.331894e+03	2.728402e+03	0	1.282867e-03
2.100000e+08	5.538429e+13	0.000000e+00	5.748032e-01	7.949311e+14	1.223552e+15	2.544024e+14	1.423100e+04	4.326073e+03	2.724736e+03	0	1.273473e-03
2.200000e+08	5.418753e+13	0.000000e+00	5.748032e-01	7.804869e+14	1.206728e+15	2.530506e+14	1.418347e+04	4.320281e+03	2.721088e+03	0	1.264234e-03
2.300000e+08	5.302720e+13	0.000000e+00	5.748032e-01	7.664763e+14	1.190247e+15	2.517087e+14	1.413680e+04	4.314521e+03	2.717460e+03	0	1.255145e-03
2.400000e+08	5.190183e+13	0.000000e+00	5.748032e-01	7.528817e+14	1.174106e+15	2.503766e+14	1.409097e+04	4.308797e+03	2.713855e+03	0	1.246202e-03
2.500000e+08	5.081001e+13	0.000000e+00	5.748032e-01	7.396865e+14	1.158300e+15	2.490543e+14	1.404594e+04	4.303111e+03	2.710274e+03	0	1.237402e-03
2.600000e+08	4.975041e+13	0.000000e+00	5.748032e-01	7.268750e+14	1.142825e+15	2.477417e+14	1.400170e+04	4.297466e+03	2.706718e+03	0	1.228740e-03
2.700000e+08	4.872175e+13	0.000000e+00	5.748032e-01	7.144321e+14	1.127676e+15	2.464387e+14	1.395822e+04	4.291865e+03	2.703190e+03	0	1.220212e-03
2.800000e+08	4.772284e+13	0.000000e+00	5.748032e-01	7.023435e+14	1.112848e+15	2.451452e+14	1.391548e+04	4.286308e+03	2.699690e+03	0	1.211815e-03
2.900000e+08	4.675251e+13	0.000000e+00	5.748032e-01	6.905956e+14	1.098334e+15	2.438612e+14	1.387346e+04	4.280797e+03	2.696220e+03	0	1.203546e-03
3.000000e+08	4.580967e+13	0.000000e+00	5.748032e-01	6.791753e+14	1.084128e+15	2.425865e+14	1.383214e+04	4.275335e+03	2.692779e+03	0	1.195400e-03
3.100000e+08	4.489327e+13	0.000000e+00	5.748032e-01	6.680702e+14	1.070225e+15	2.413210e+14	1.379150e+04	4.269921e+03	2.689369e+03	0	1.187376e-03
3.200000e+08	4.400232e+13	0.000000e+00	5.748032e-01	6.572686e+14	1.056617e+15	2.400648e+14	1.375152e+04	4.264557e+03	2.685990e+03	0	1.179468e-03
3.300000e+08	4.313586e+13	0.000000e+00	5.748032e-01	6.467590e+14	1.043298e+15	2.388178e+14	1.371218e+04	4.259242e+03	2.682643e+03	0	1.171675e-03
3.400000e+08	4.229298e+13	0.000000e+00	5.748032e-01	6.365309e+14	1.030262e+15	2.375798e+14	1.367347e+04	4.253979e+03	2.679328e+03	0	1.163993e-03
3.500000e+08	4.147281e+13	0.000000e+00	5.748032e-01	6.265738e+14	1.017501e+15	2.363507e+14	1.363536e+04	4.248766e+03	2.676045e+03	0	1.156420e-03
3.600000e+08	4.067453e+13	0.000000e+00	5.748032e-01	6.168780e+14	1.005010e+15	2.351306e+14	1.359785e+04	4.243604e+03	2.672794e+03	0	1.148952e-03
3.700000e+08	3.989735e+13	0.000000e+00	5.748032e-01	6.074341e+14	9.927817e+14	2.339193e+14	1.356092e+04	4.238494e+03	2.669575e+03	0	1.141587e-03
3.800000e+08	3.914051e+13	0.000000e+00	5.748032e-01	5.982331e+14	9.808096e+14	2.327168e+14	1.352455e+04	4.233435e+03	2.666389e+03	0	1.134322e-03
3.900000e+08	3.840329e+13	0.000000e+00	5.748032e-01	5.892665e+14	9.690874e+14	2.315230e+14	1.348873e+04	4.228426e+03	2.663234e+03	0	1.127155e-03
4.000000e+08	3.768500e+13	0.000000e+00	5.748032e-01	5.805260e+14	9.576089e+14	2.303378e+14	1.345344e+04	4.223469e+03	2.660112e+03	0	1.120084e-03
4.100000e+08	3.698498e+13	0.000000e+00	5.748032e-01	5.720039e+14	9.463677e+14	2.291611e+14	1.341867e+04	4.218563e+03	2.657022e+03	0	1.113105e-03
4.200000e+08	3.630260e+13	0.000000e+00	5.748032e-01	5.636927e+14	9.353578e+14	2.279929e+14	1.338441e+04	4.213706e+03	2.653963e+03	0	1.106217e-03
4.300000e+08	3.563724e+13	0.000000e+00	5.748032e-01	5.555851e+14	9.245733e+14	2.268332e+14	1.335065e+04	4.208900e+03	2.650936e+03	0	1.099417e-03
4.400000e+08	3.498834e+13	0.000000e+00	5.748032e-01	5.476743e+14	9.140084e+14	2.256817e+14	1.331737e+04	4.204143e+03	2.647940e+03	0	1.092703e-03
4.500000e+08	3.435535e+13	0.000000e+00	5.748032e-01	5.399537e+14	9.036572e+14	2.245386e+14	1.328456e+04	4.199436e+03	2.644975e+03	0	1.086073e-03
4.600000e+08	3.373772e+13	0.000000e+00	5.748032e-01	5.324171e+14	8.935142e+14	2.234037e+14	1.325221e+04	4.194777e+03	2.642040e+03	0	1.079525e-03
4.700000e+08	3.313495e+13	0.000000e+00	5.748032e-01	5.250583e+14	8.835741e+14	2.222769e+14	1.322031e+04	4.190166e+03	2.639136e+03	0	1.073058e-03
4.800000e+08	3.254655e+13	0.000000e+00	5.748032e-01	5.178716e+14	8.738314e+14	2.211581e+14	1.318885e+04	4.185603e+03	2.636263e+03	0	1.066668e-03
4.900000e+08	3.197205e+13	0.000000e+00	5.748032e-01	5.108514e+14	8.642811e+14	2.200474e+14	1.315782e+04	4.181088e+03	2.633418e+03	0	1.060355e-03
5.000000e+08	3.141101e+13	0.000000e+00	5.748032e-01	5.039923e+14	8.549180e+14	2.189446e+14	1.312720e+04	4.176618e+03	2.630603e+03	0	1.054116e-03
5.100000e+08	3.086299e+13	0.000000e+00	5.748032e-01	4.972894e+14	8.457373e+14	2.178497e+14	1.309700e+04	4.172195e+03	2.627817e+03	0	1.047949e-03
5.200000e+08	3.032759e+13	0.000000e+00	5.748032e-01	4.907375e+14	8.367342e+14	2.167627e+14	1.306719e+04	4.167817e+03	2.625060e+03	0	1.041854e-03
5.300000e+08	2.980440e+13	0.000000e+00	5.748032e-01	4.843321e+14	8.279042e+14	2.156833e+14	1.303778e+04	4.163484e+03	2.622331e+03	0	1.035828e-03
5.400000e+08	2.929304e+13	0.000000e+00	5.748032e-01	4.780686e+14	8.192426e+14	2.146117e+14	1.300875e+04	4.159195e+03	2.619630e+03	0	1.029870e-03
5.500000e+08	2.879314e+13	0.000000e+00	5.748032e-01	4.719426e+14	8.107452e+14	2.135477e+14	1.298009e+04	4.154950e+03	2.616956e+03	0	1.023978e-03
5.600000e+08	2.830436e+13	0.000000e+00	5.748032e-01	4.659500e+14	8.024076e+14	2.124912e+14	1.295180e+04	4.150748e+03	2.614309e+03	0	1.018151e-03
5.700000e+08	2.782636e+13	0.000000e+00	5.748032e-01	4.600866e+14	7.942258e+14	2.114423e+14	1.292387e+04	4.146588e+03	2.611689e+03	0	1.012387e-03
5.800000e+08	2.735880e+13	0.000000e+00	5.748032e-01	4.543488e+14	7.861958e+14	2.104008e+14	1.289628e+04	4.142470e+03	2.609095e+03	0	1.006684e-03
5.900000e+08	2.690138e+13	0.000000e+00	5.748032e-01	4.487326e+14	7.783136e+14	2.093666e+14	1.286904e+04	4.138393e+03	2.606528e+03	0	1.001043e-03
6.000000e+08	2.645380e+13	0.000000e+00	5.748032e-01	4.432345e+14	7.705755e+14	2.083398e+14	1.284213e+04	4.134357e+03	2.603986e+03	0	9.954597e-04
6.100000e+08	2.601576e+13	0.000000e+00	5.748032e-01	4.378511e+14	7.629778e+14	2.073203e+14	1.281556e+04	4.130361e+03	2.601469e+03	0	9.899346e-04
6.200000e+08	2.558699e+13	0.000000e+00	5.748032e-01	4.325790e+14	7.555170e+14	2.063079e+14	1.278930e+04	4.126404e+03	2.598977e+03	0	9.844660e-04
6.300000e+08	2.516721e+13	0.000000e+00	5.748032e-01	4.274151e+14	7.481896e+14	2.053028e+14	1.276336e+04	4.122486e+03	2.596509e+03	0	9.790526e-04
6.400000e+08	2.475617e+13	0.000000e+00	5.748032e-01	4.223562e+14	7.409923e+14	2.043046e+14	1.273773e+04	4.118607e+03	2.594065e+03	0	9.736932e-04
6.500000e+08	2.435362e+13	0.000000e+00	5.748032e-01	4.173994e+14	7.339218e+14	2.033136e+14	1.271240e+04	4.114765e+03	2.591645e+03	0	9.683867e-04
6.600000e+08	2.395931e+13	0.000000e+00	5.748032e-01	4.125418e+14	7.269751e+14	2.023295e+14	1.268736e+04	4.110960e+03	2.589249e+03	0	9.631319e-04
6.700000e+08	2.357302e+13	0.000000e+00	5.748032e-01	4.077806e+14	7.201490e+14	2.013523e+14	1.266262e+04	4.107191e+03	2.586875e+03	0	9.579277e-04
6.800000e+08	2.319451e+13	0.000000e+00	5.748032e-01	4.031132e+14	7.134405e+14	2.003820e+14	1.263816e+04	4.103459e+03	2.584524e+03	0	9.527729e-04
6.900000e+08	2.282359e+13	0.000000e+00	5.748032e-01	3.985370e+14	7.068468e+14	1.994185e+14	1.261398e+04	4.099761e+03	2.582196e+03	0	9.476667e-04
7.000000e+08	2.246002e+13	0.000000e+00	5.748032e-01	3.940495e+14	7.003652e+14	1.984617e+14	1.259007e+04	4.096099e+03	2.579889e+03	0	9.426079e-04
7.100000e+08	2.210363e+13	0.000000e+00	5.748032e-01	3.896483e+14	6.939928e+14	1.975117e+14	1.256643e+04	4.092471e+03	2.577604e+03	0	9.375955e-04
7.200000e+08	2.175420e+13	0.000000e+00	5.748032e-01	3.853310e+14	6.877271e+14	1.965683e+14	1.254305e+04	4.088877e+03	2.575340e+03	0	9.326286e-04
7.300000e+08	2.141156e+13	0.000000e+00	5.748032e-01	3.810955e+14	6.815656e+14	1.956314e+14	1.251993e+04	4.085316e+03	2.573098e+03	0	9.277061e-04
7.400000e+08	2.107552e+13	0.000000e+00	5.748032e-01	3.769396e+14	6.755056e+14	1.947012e+14	1.249707e+04	4.081788e+03	2.570876e+03	0	9.228273e-04
7.500000e+08	2.074590e+13	0.000000e+00	5.748032e-01	3.728612e+14	6.695449e+14	1.937774e+14	1.247445e+04	4.078292e+03	2.568674e+03	0	9.179911e-04
7.600000e+08	2.042255e+13	0.000000e+00	5.748032e-01	3.688583e+14	6.636811e+14	1.928600e+14	1.245208e+04	4.074828e+03	2.566492e+03	0	9.131966e-04
7.700000e+08	2.010528e+13	0.000000e+00	5.748032e-01	3.649289e+14	6.579120e+14	1.919490e+14	1.242995e+04	4.071395e+03	2.564330e+03	0	9.084431e-04
7.800000e+08	1.979396e+13	0.000000e+00	5.748032e-01	3.610712e+14	6.522353e+14	1.910444e+14	1.240805e+04	4.067993e+03	2.562187e+03	0	9.037297e-04
7.900000e+08	1.948841e+13	0.000000e+00	5.748032e-01	3.572832e+14	6.466489e+14	1.901460e+14	1.238638e+04	4.064622e+03	2.560063e+03	0	8.990555e-04
8.000000e+08	1.918850e+13	0.000000e+00	5.748032e-01	3.535633e+14	6.411508e+14	1.892539e+14	1.236494e+04	4.061280e+03	2.557959e+03	0	8.944197e-04
8.100000e+08	1.889409e+13	0.000000e+00	5.748032e-01	3.499097e+14	6.357389e+14	1.883679e+14	1.234372e+04	4.057967e+03	2.555872e+03	0	8.898217e-04
8.200000e+08	1.860502e+13	0.000000e+00	5.748032e-01	3.463208e+14	6.304112e+14	1.874881e+14	1.232272e+04	4.054684e+03	2.553804e+03	0	8.852605e-04
8.300000e+08	1.832118e+13	0.000000e+00	5.748032e-01	3.427949e+14	6.251659e+14	1.866144e+14	1.230193e+04	4.051429e+03	2.551754e+03	0	8.807354e-04
8.400000e+08	1.804243e+13	0.000000e+00	5.748032e-01	3.393306e+14	6.200012e+14	1.857467e+14	1.228136e+04	4.048202e+03	2.549722e+03	0	8.762458e-04
8.500000e+08	1.776863e+13	0.000000e+00	5.748032e-01	3.359263e+14	6.149152e+14	1.848850e+14	1.226099e+04	4.045003e+03	2.547706e+03	0	8.717909e-04
8.600000e+08	1.749968e+13	0.000000e+00	5.748032e-01	3.325805e+14	6.099061e+14	1.840292e+14	1.224082e+04	4.041831e+03	2.545709e+03	0	8.673700e-04
8.700000e+08	1.723546e+13	0.000000e+00	5.748032e-01	3.292919e+14	6.049724e+14	1.831793e+14	1.222086e+04	4.038685e+03	2.543728e+03	0	8.629824e-04
8.800000e+08	1.697584e+13	0.000000e+00	5.748032e-01	3.260591e+14	6.001123e+14	1.823353e+14	1.220109e+04	4.035567e+03	2.541763e+03	0	8.586275e-04
8.900000e+08	1.672073e+13	0.000000e+00	5.748032e-01	3.228807e+14	5.953243e+14	1.814970e+14	1.218152e+04	4.032474e+03	2.539815e+03	0	8.543045e-04
9.000000e+08	1.647000e+13	0.000000e+00	5.748032e-01	3.197555e+14	5.906068e+14	1.806645e+14	1.216214e+04	4.029407e+03	2.537884e+03	0	8.500129e-04
9.100000e+08	1.622356e+13	0.000000e+00	5.748032e-01	3.166822e+14	5.859582e+14	1.798378e+14	1.214294e+04	4.026365e+03	2.535968e+03	0	8.457521e-04
9.200000e+08	1.598131e+13	0.000000e+00	5.748032e-01	3.136597e+14	5.813772e+14	1.790167e+14	1.212393e+04	4.023348e+03	2.534067e+03	0	8.415213e-04
9.300000e+08	1.574314e+13	0.000000e+00	5.748032e-01	3.106866e+14	5.768623e+14	1.782012e+14	1.210509e+04	4.020355e+03	2.532183e+03	0	8.373200e-04
9.400000e+08	1.550897e+13	0.000000e+00	5.748032e-01	3.077620e+14	5.724120e+14	1.773912e+14	1.208644e+04	4.017387e+03	2.530313e+03	0	8.331477e-04
9.500000e+08	1.527870e+13	0.000000e+00	5.748032e-01	3.048846e+14	5.680251e+14	1.765868e+14	1.206796e+04	4.014443e+03	2.528459e+03	0	8.290037e-04
9.600000e+08	1.505224e+13	0.000000e+00	5.748032e-01	3.020534e+14	5.637002e+14	1.757879e+14	1.204965e+04	4.011522e+03	2.526619e+03	0	8.248875e-04
9.700000e+08	1.482950e+13	0.000000e+00	5.748032e-01	2.992675e+14	5.594360e+14	1.749944e+14	1.203152e+04	4.008624e+03	2.524794e+03	0	8.207985e-04
9.800000e+08	1.461041e+13	0.000000e+00	5.748032e-01	2.965257e+14	5.552313e+14	1.742064e+14	1.201355e+04	4.005749e+03	2.522983e+03	0	8.167361e-04
9.900000e+08	1.439487e+13	0.000000e+00	5.748032e-01	2.938270e+14	5.510849e+14	1.734237e+14	1.199574e+04	4.002897e+03	2.521186e+03	0	8.126999e-04
1.000000e+09	1.418281e+13	0.000000e+00	5.748032e-01	2.911706e+14	5.469955e+14	1.726463e+14	1.197810e+04	4.000066e+03	2.519404e+03	0	8.086894e-04
1.010000e+09	1.397415e+13	0.000000e+00	5.748032e-01	2.885555e+14	5.429621e+14	1.718741e+14	1.196061e+04	3.997258e+03	2.517635e+03	0	8.047039e-04
1.020000e+09	1.376881e+13	0.000000e+00	5.748032e-01	2.859808e+14	5.389835e+14	1.711072e+14	1.194328e+04	3.994471e+03	2.515879e+03	0	8.007430e-04
1.030000e+09	1.356673e+13	0.000000e+00	5.748032e-01	2.834456e+14	5.350587e+14	1.703455e+14	1.192611e+04	3.991705e+03	2.514137e+03	0	7.968062e-04
1.040000e+09	1.336783e+13	0.000000e+00	5.748032e-01	2.809490e+14	5.311865e+14	1.695890e+14	1.190908e+04	3.988960e+03	2.512409e+03	0	7.928930e-04
1.050000e+09	1.317204e+13	0.000000e+00	5.748032e-01	2.784903e+14	5.273659e+14	1.688375e+14	1.189221e+04	3.986236e+03	2.510693e+03	0	7.890030e-04
1.060000e+09	1.297929e+13	0.000000e+00	5.748032e-01	2.760687e+14	5.235959e+14	1.680911e+14	1.187548e+04	3.983532e+03	2.508990e+03	0	7.851356e-04
1.070000e+09	1.278953e+13	0.000000e+00	5.748032e-01	2.736832e+14	5.198755e+14	1.673498e+14	1.185890e+04	3.980848e+03	2.507300e+03	0	7.812904e-04
1.080000e+09	1.260268e+13	0.000000e+00	5.748032e-01	2.713333e+14	5.162038e+14	1.666134e+14	1.184246e+04	3.978184e+03	2.505622e+03	0	7.774670e-04
1.090000e+09	1.241869e+13	0.000000e+00	5.748032e-01	2.690181e+14	5.125799e+14	1.658820e+14	1.182616e+04	3.975540e+03	2.503956e+03	0	7.736649e-04
1.100000e+09	1.223749e+13	0.000000e+00	5.748032e-01	2.667369e+14	5.090027e+14	1.651555e+14	1.181001e+04	3.972915e+03	2.502303e+03	0	7.698836e-04
1.110000e+09	1.205902e+13	0.000000e+00	5.748032e-01	2.644890e+14	5.054715e+14	1.644338e+14	1.179398e+04	3.970309e+03	2.500661e+03	0	7.661228e-04
1.120000e+09	1.188324e+13	0.000000e+00	5.748032e-01	2.622737e+14	5.019853e+14	1.637170e+14	1.177809e+04	3.967721e+03	2.499032e+03	0	7.623819e-04
1.130000e+09	1.171008e+13	0.000000e+00	5.748032e-01	2.600904e+14	4.985434e+14	1.630050e+14	1.176234e+04	3.965152e+03	2.497414e+03	0	7.586607e-04
1.140000e+09	1.153948e+13	0.000000e+00	5.748032e-01	2.579385e+14	4.951448e+14	1.622978e+14	1.174671e+04	3.962602e+03	2.495807e+03	0	7.549586e-04
1.150000e+09	1.137141e+13	0.000000e+00	5.748032e-01	2.558172e+14	4.917888e+14	1.615953e+14	1.173122e+04	3.960069e+03	2.494212e+03	0	7.512753e-04
1.160000e+09	1.120580e+13	0.000000e+00	5.748032e-01	2.537259e+14	4.884747e+14	1.608974e+14	1.171585e+04	3.957554e+03	2.492628e+03	0	7.476103e-04
1.170000e+09	1.104261e+13	0.000000e+00	5.748032e-01	2.516642e+14	4.852015e+14	1.602043e+14	1.170061e+04	3.955057e+03	2.491055e+03	0	7.439633e-04
1.180000e+09	1.088178e+13	0.000000e+00	5.748032e-01	2.496313e+14	4.819687e+14	1.595157e+14	1.168549e+04	3.952577e+03	2.489493e+03	0	7.403339e-04
1.190000e+09	1.072327e+13	0.000000e+00	5.748032e-01	2.476267e+14	4.787754e+14	1.588317e+14	1.167049e+04	3.950114e+03	2.487942e+03	0	7.367217e-04
1.200000e+09	1.056704e+13	0.000000e+00	5.748032e-01	2.456499e+14	4.756209e+14	1.581522e+14	1.165561e+04	3.947668e+03	2.486401e+03	0	7.331262e-04
1.210000e+09	1.041303e+13	0.000000e+00	5.748032e-01	2.437003e+14	4.725046e+14	1.574773e+14	1.164085e+04	3.945239e+03	2.484871e+03	0	7.295473e-04
1.220000e+09	1.026122e+13	0.000000e+00	5.748032e-01	2.417774e+14	4.694258e+14	1.568068e+14	1.162621e+04	3.942826e+03	2.483352e+03	0	7.259844e-04
1.230000e+09	1.011154e+13	0.000000e+00	5.748032e-01	2.398806e+14	4.663837e+14	1.561408e+14	1.161168e+04	3.940429e+03	2.481842e+03	0	7.224371e-04
1.240000e+09	9.963962e+12	0.000000e+00	5.748032e-01	2.380096e+14	4.633778e+14	1.554791e+14	1.159727e+04	3.938049e+03	2.480343e+03	0	7.189053e-04
1.250000e+09	9.818445e+12	0.000000e+00	5.748032e-01	2.361637e+14	4.604075e+14	1.548218e+14	1.158297e+04	3.935684e+03	2.478853e+03	0	7.153884e-04
1.260000e+09	9.674949e+12	0.000000e+00	5.748032e-01	2.343425e+14	4.574720e+14	1.541689e+14	1.156878e+04	3.933335e+03	2.477374e+03	0	7.118862e-04
1.270000e+09	9.533434e+12	0.000000e+00	5.748032e-01	2.325455e+14	4.545709e+14	1.535203e+14	1.155470e+04	3.931001e+03	2.475904e+03	0	7.083982e-04
1.280000e+09	9.393864e+12	0.000000e+00	5.748032e-01	2.307724e+14	4.517034e+14	1.528759e+14	1.154072e+04	3.928683e+03	2.474443e+03	0	7.049242e-04
1.290000e+09	9.256200e+12	0.000000e+00	5.748032e-01	2.290226e+14	4.488691e+14	1.522358e+14	1.152685e+04	3.926379e+03	2.472993e+03	0	7.014638e-04
1.300000e+09	9.120408e+12	0.000000e+00	5.748032e-01	2.272956e+14	4.460674e+14	1.515998e+14	1.151309e+04	3.924091e+03	2.471551e+03	0	6.980166e-04
1.310000e+09	8.986452e+12	0.000000e+00	5.748032e-01	2.255912e+14	4.432977e+14	1.509681e+14	1.149943e+04	3.921817e+03	2.470119e+03	0	6.945824e-04
1.320000e+09	8.854298e+12	0.000000e+00	5.748032e-01	2.239088e+14	4.405594e+14	1.503404e+14	1.148587e+04	3.919558e+03	2.468696e+03	0	6.911607e-04
1.330000e+09	8.723913e+12	0.000000e+00	5.748032e-01	2.222481e+14	4.378522e+14	1.497169e+14	1.147242e+04	3.917313e+03	2.467282e+03	0	6.877513e-04
1.340000e+09	8.595263e+12	0.000000e+00	5.748032e-01	2.206087e+14	4.351753e+14	1.490975e+14	1.145906e+04	3.915082e+03	2.465877e+03	0	6.843539e-04
1.350000e+09	8.468318e+12	0.000000e+00	5.748032e-01	2.189902e+14	4.325284e+14	1.484821e+14	1.144580e+04	3.912865e+03	2.464481e+03	0	6.809680e-04
1.360000e+09	8.343046e+12	0.000000e+00	5.748032e-01	2.173922e+14	4.299109e+14	1.478707e+14	1.143264e+04	3.910662e+03	2.463093e+03	0	6.775935e-04
