#t		Qconv[W]	Ri[Rp]		R*[Rp]		Qc[W]		Qm[W]		Qr[W]		Tcmb[K]		Tl[K]		Tup[K]		RiFlag		Bs[T]
0.000000e+00	1.083034e+14	0.000000e+00	5.748034e-01	1.406061e+15	1.642985e+15	3.072660e+14	1.635655e+04	4.561441e+03	2.832974e+03	0	1.588390e-03
1.000000e+07	1.055561e+14	0.000000e+00	5.748034e-01	1.374588e+15	1.637314e+15	3.055636e+14	1.628025e+04	4.563590e+03	2.834308e+03	0	1.574845e-03
2.000000e+07	1.028972e+14	0.000000e+00	5.748034e-01	1.344117e+15	1.629818e+15	3.038738e+14	1.620563e+04	4.564892e+03	2.835117e+03	0	1.561508e-03
3.000000e+07	1.003239e+14	0.000000e+00	5.748034e-01	1.314617e+15	1.620725e+15	3.021967e+14	1.613266e+04	4.565434e+03	2.835454e+03	0	1.548381e-03
4.000000e+07	9.783352e+13	0.000000e+00	5.748034e-01	1.286060e+15	1.610247e+15	3.005321e+14	1.606128e+04	4.565297e+03	2.835368e+03	0	1.535462e-03
5.000000e+07	9.542347e+13	0.000000e+00	5.748034e-01	1.258413e+15	1.598575e+15	2.988799e+14	1.599144e+04	4.564550e+03	2.834905e+03	0	1.522749e-03
6.000000e+07	9.309104e+13	0.000000e+00	5.748034e-01	1.231648e+15	1.585881e+15	2.972400e+14	1.592309e+04	4.563260e+03	2.834103e+03	0	1.510239e-03
7.000000e+07	9.083360e+13	0.000000e+00	5.748034e-01	1.205734e+15	1.572321e+15	2.956124e+14	1.585618e+04	4.561485e+03	2.833001e+03	0	1.497932e-03
8.000000e+07	8.864853e+13	0.000000e+00	5.748034e-01	1.180642e+15	1.558033e+15	2.939968e+14	1.579067e+04	4.559279e+03	2.831631e+03	0	1.485823e-03
9.000000e+07	8.653327e+13	0.000000e+00	5.748034e-01	1.156342e+15	1.543142e+15	2.923933e+14	1.572651e+04	4.556688e+03	2.830022e+03	0	1.473910e-03
1.000000e+08	8.448532e+13	0.000000e+00	5.748034e-01	1.132806e+15	1.527758e+15	2.908017e+14	1.566366e+04	4.553757e+03	2.828201e+03	0	1.462189e-03
1.100000e+08	8.250223e+13	0.000000e+00	5.748034e-01	1.110007e+15	1.511979e+15	2.892218e+14	1.560208e+04	4.550524e+03	2.826194e+03	0	1.450658e-03
1.200000e+08	8.058162e+13	0.000000e+00	5.748034e-01	1.087917e+15	1.495892e+15	2.876537e+14	1.554174e+04	4.547025e+03	2.824020e+03	0	1.439313e-03
1.300000e+08	7.872118e+13	0.000000e+00	5.748034e-01	1.066510e+15	1.479573e+15	2.860972e+14	1.548258e+04	4.543291e+03	2.821701e+03	0	1.428150e-03
1.400000e+08	7.691869e+13	0.000000e+00	5.748034e-01	1.045762e+15	1.463091e+15	2.845523e+14	1.542459e+04	4.539350e+03	2.819254e+03	0	1.417165e-03
1.500000e+08	7.517197e+13	0.000000e+00	5.748034e-01	1.025648e+15	1.446505e+15	2.830187e+14	1.536771e+04	4.535228e+03	2.816694e+03	0	1.406356e-03
1.600000e+08	7.347893e+13	0.000000e+00	5.748034e-01	1.006143e+15	1.429865e+15	2.814965e+14	1.531192e+04	4.530949e+03	2.814036e+03	0	1.395717e-03
1.700000e+08	7.183757e+13	0.000000e+00	5.748034e-01	9.872261e+14	1.413219e+15	2.799855e+14	1.525718e+04	4.526533e+03	2.811293e+03	0	1.385246e-03
1.800000e+08	7.024595e+13	0.000000e+00	5.748034e-01	9.688743e+14	1.396604e+15	2.784856e+14	1.520347e+04	4.521998e+03	2.808477e+03	0	1.374940e-03
1.900000e+08	6.870219e+13	0.000000e+00	5.748034e-01	9.510666e+14	1.380055e+15	2.769968e+14	1.515075e+04	4.517362e+03	2.805598e+03	0	1.364793e-03
2.000000e+08	6.720450e+13	0.000000e+00	5.748034e-01	9.337828e+14	1.363601e+15	2.755189e+14	1.509899e+04	4.512640e+03	2.802665e+03	0	1.354802e-03
2.100000e+08	6.575115e+13	0.000000e+00	5.748034e-01	9.170034e+14	1.347268e+15	2.740519e+14	1.504817e+04	4.507844e+03	2.799686e+03	0	1.344965e-03
2.200000e+08	6.434050e+13	0.000000e+00	5.748034e-01	9.007095e+14	1.331078e+15	2.725957e+14	1.499825e+04	4.502988e+03	2.796670e+03	0	1.335277e-03
2.300000e+08	6.297094e+13	0.000000e+00	5.748034e-01	8.848833e+14	1.315048e+15	2.711502e+14	1.494922e+04	4.498082e+03	2.793624e+03	0	1.325735e-03
2.400000e+08	6.164095e+13	0.000000e+00	5.748034e-01	8.695074e+14	1.299194e+15	2.697153e+14	1.490104e+04	4.493137e+03	2.790552e+03	0	1.316335e-03
2.500000e+08	6.034907e+13	0.000000e+00	5.748034e-01	8.545653e+14	1.283529e+15	2.682909e+14	1.485370e+04	4.488160e+03	2.787461e+03	0	1.307074e-03
2.600000e+08	5.909390e+13	0.000000e+00	5.748034e-01	8.400411e+14	1.268064e+15	2.668769e+14	1.480716e+04	4.483160e+03	2.784356e+03	0	1.297948e-03
2.700000e+08	5.787408e+13	0.000000e+00	5.748034e-01	8.259196e+14	1.252807e+15	2.654732e+14	1.476141e+04	4.478144e+03	2.781241e+03	0	1.288955e-03
2.800000e+08	5.668834e+13	0.000000e+00	5.748034e-01	8.121860e+14	1.237765e+15	2.640798e+14	1.471643e+04	4.473118e+03	2.778119e+03	0	1.280092e-03
2.900000e+08	5.553542e+13	0.000000e+00	5.748034e-01	7.988266e+14	1.222944e+15	2.626966e+14	1.467219e+04	4.468089e+03	2.774996e+03	0	1.271354e-03
3.000000e+08	5.441415e+13	0.000000e+00	5.748034e-01	7.858277e+14	1.208348e+15	2.613234e+14	1.462867e+04	4.463060e+03	2.771872e+03	0	1.262740e-03
3.100000e+08	5.332339e+13	0.000000e+00	5.748034e-01	7.731767e+14	1.193980e+15	2.599603e+14	1.458585e+04	4.458038e+03	2.768753e+03	0	1.254245e-03
3.200000e+08	5.226206e+13	0.000000e+00	5.748034e-01	7.608610e+14	1.179841e+15	2.586070e+14	1.454373e+04	4.453024e+03	2.765639e+03	0	1.245868e-03
3.300000e+08	5.122910e+13	0.000000e+00	5.748034e-01	7.488690e+14	1.165933e+15	2.572636e+14	1.450227e+04	4.448025e+03	2.762534e+03	0	1.237605e-03
3.400000e+08	5.022352e+13	0.000000e+00	5.748034e-01	7.371893e+14	1.152257e+15	2.559300e+14	1.446146e+04	4.443041e+03	2.759439e+03	0	1.229454e-03
3.500000e+08	4.924437e+13	0.000000e+00	5.748034e-01	7.258111e+14	1.138810e+15	2.546060e+14	1.442128e+04	4.438078e+03	2.756356e+03	0	1.221412e-03
3.600000e+08	4.829071e+13	0.000000e+00	5.748034e-01	7.147238e+14	1.125594e+15	2.532917e+14	1.438172e+04	4.433136e+03	2.753287e+03	0	1.213476e-03
3.700000e+08	4.736168e+13	0.000000e+00	5.748034e-01	7.039177e+14	1.112605e+15	2.519868e+14	1.434276e+04	4.428218e+03	2.750233e+03	0	1.205643e-03
3.800000e+08	4.645643e+13	0.000000e+00	5.748034e-01	6.933830e+14	1.099843e+15	2.506914e+14	1.430439e+04	4.423327e+03	2.747195e+03	0	1.197913e-03
3.900000e+08	4.557414e+13	0.000000e+00	5.748034e-01	6.831106e+14	1.087305e+15	2.494054e+14	1.426659e+04	4.418463e+03	2.744175e+03	0	1.190281e-03
4.000000e+08	4.471405e+13	0.000000e+00	5.748034e-01	6.730917e+14	1.074988e+15	2.481286e+14	1.422934e+04	4.413629e+03	2.741172e+03	0	1.182745e-03
4.100000e+08	4.387540e+13	0.000000e+00	5.748034e-01	6.633178e+14	1.062889e+15	2.468611e+14	1.419264e+04	4.408826e+03	2.738189e+03	0	1.175304e-03
4.200000e+08	4.305748e+13	0.000000e+00	5.748034e-01	6.537809e+14	1.051006e+15	2.456027e+14	1.415647e+04	4.404055e+03	2.735226e+03	0	1.167955e-03
4.300000e+08	4.225961e+13	0.000000e+00	5.748034e-01	6.444731e+14	1.039335e+15	2.443534e+14	1.412082e+04	4.399316e+03	2.732283e+03	0	1.160696e-03
4.400000e+08	4.148112e+13	0.000000e+00	5.748034e-01	6.353870e+14	1.027873e+15	2.431130e+14	1.408567e+04	4.394611e+03	2.729361e+03	0	1.153524e-03
4.500000e+08	4.072138e+13	0.000000e+00	5.748034e-01	6.265155e+14	1.016616e+15	2.418816e+14	1.405101e+04	4.389941e+03	2.726460e+03	0	1.146438e-03
4.600000e+08	3.997979e+13	0.000000e+00	5.748034e-01	6.178515e+14	1.005561e+15	2.406590e+14	1.401684e+04	4.385306e+03	2.723581e+03	0	1.139436e-03
4.700000e+08	3.925577e+13	0.000000e+00	5.748034e-01	6.093885e+14	9.947044e+14	2.394451e+14	1.398314e+04	4.380706e+03	2.720725e+03	0	1.132516e-03
4.800000e+08	3.854875e+13	0.000000e+00	5.748034e-01	6.011201e+14	9.840421e+14	2.382400e+14	1.394990e+04	4.376142e+03	2.717890e+03	0	1.125676e-03
4.900000e+08	3.785819e+13	0.000000e+00	5.748034e-01	5.930403e+14	9.735706e+14	2.370435e+14	1.391710e+04	4.371614e+03	2.715078e+03	0	1.118913e-03
5.000000e+08	3.718358e+13	0.000000e+00	5.748034e-01	5.851431e+14	9.632861e+14	2.358555e+14	1.388475e+04	4.367123e+03	2.712289e+03	0	1.112227e-03
5.100000e+08	3.652442e+13	0.000000e+00	5.748034e-01	5.774229e+14	9.531849e+14	2.346761e+14	1.385282e+04	4.362669e+03	2.709522e+03	0	1.105616e-03
5.200000e+08	3.588023e+13	0.000000e+00	5.748034e-01	5.698743e+14	9.432633e+14	2.335050e+14	1.382131e+04	4.358251e+03	2.706778e+03	0	1.099077e-03
5.300000e+08	3.525055e+13	0.000000e+00	5.748034e-01	5.624920e+14	9.335177e+14	2.323423e+14	1.379022e+04	4.353870e+03	2.704058e+03	0	1.092610e-03
5.400000e+08	3.463494e+13	0.000000e+00	5.748034e-01	5.552710e+14	9.239442e+14	2.311879e+14	1.375952e+04	4.349526e+03	2.701359e+03	0	1.086212e-03
5.500000e+08	3.403297e+13	0.000000e+00	5.748034e-01	5.482064e+14	9.145394e+14	2.300417e+14	1.372922e+04	4.345218e+03	2.698684e+03	0	1.079882e-03
5.600000e+08	3.344423e+13	0.000000e+00	5.748034e-01	5.412937e+14	9.052996e+14	2.289037e+14	1.369930e+04	4.340947e+03	2.696031e+03	0	1.073619e-03
5.700000e+08	3.286833e+13	0.000000e+00	5.748034e-01	5.345282e+14	8.962214e+14	2.277737e+14	1.366975e+04	4.336712e+03	2.693401e+03	0	1.067421e-03
5.800000e+08	3.230489e+13	0.000000e+00	5.748034e-01	5.279058e+14	8.873011e+14	2.266517e+14	1.364058e+04	4.332514e+03	2.690794e+03	0	1.061286e-03
5.900000e+08	3.175354e+13	0.000000e+00	5.748034e-01	5.214221e+14	8.785354e+14	2.255377e+14	1.361176e+04	4.328352e+03	2.688209e+03	0	1.055214e-03
6.000000e+08	3.121393e+13	0.000000e+00	5.748034e-01	5.150733e+14	8.699210e+14	2.244316e+14	1.358330e+04	4.324225e+03	2.685646e+03	0	1.049203e-03
6.100000e+08	3.068572e+13	0.000000e+00	5.748034e-01	5.088554e+14	8.614544e+14	2.233333e+14	1.355518e+04	4.320135e+03	2.683106e+03	0	1.043250e-03
6.200000e+08	3.016857e+13	0.000000e+00	5.748034e-01	5.027647e+14	8.531325e+14	2.222428e+14	1.352740e+04	4.316079e+03	2.680587e+03	0	1.037357e-03
6.300000e+08	2.966218e+13	0.000000e+00	5.748034e-01	4.967976e+14	8.449521e+14	2.211600e+14	1.349995e+04	4.312059e+03	2.678090e+03	0	1.031520e-03
6.400000e+08	2.916624e+13	0.000000e+00	5.748034e-01	4.909506e+14	8.369100e+14	2.200848e+14	1.347282e+04	4.308074e+03	2.675615e+03	0	1.025739e-03
6.500000e+08	2.868046e+13	0.000000e+00	5.748034e-01	4.852205e+14	8.290032e+14	2.190172e+14	1.344602e+04	4.304123e+03	2.673161e+03	0	1.020012e-03
6.600000e+08	2.820455e+13	0.000000e+00	5.748034e-01	4.796039e+14	8.212287e+14	2.179570e+14	1.341952e+04	4.300206e+03	2.670728e+03	0	1.014338e-03
6.700000e+08	2.773824e+13	0.000000e+00	5.748034e-01	4.740977e+14	8.135836e+14	2.169044e+14	1.339333e+04	4.296323e+03	2.668317e+03	0	1.008717e-03
6.800000e+08	2.728126e+13	0.000000e+00	5.748034e-01	4.686990e+14	8.060650e+14	2.158591e+14	1.336744e+04	4.292473e+03	2.665926e+03	0	1.003147e-03
6.900000e+08	2.683336e+13	0.000000e+00	5.748034e-01	4.634048e+14	7.986701e+14	2.148212e+14	1.334184e+04	4.288657e+03	2.663556e+03	0	9.976270e-04
7.000000e+08	2.639429e+13	0.000000e+00	5.748034e-01	4.582123e+14	7.913961e+14	2.137906e+14	1.331654e+04	4.284874e+03	2.661206e+03	0	9.921558e-04
7.100000e+08	2.596382e+13	0.000000e+00	5.748034e-01	4.531189e+14	7.842405e+14	2.127671e+14	1.329151e+04	4.281122e+03	2.658876e+03	0	9.867324e-04
7.200000e+08	2.554172e+13	0.000000e+00	5.748034e-01	4.481218e+14	7.772006e+14	2.117508e+14	1.326676e+04	4.277403e+03	2.656566e+03	0	9.813559e-04
7.300000e+08	2.512775e+13	0.000000e+00	5.748034e-01	4.432185e+14	7.702739e+14	2.107417e+14	1.324228e+04	4.273716e+03	2.654276e+03	0	9.760252e-04
7.400000e+08	2.472171e+13	0.000000e+00	5.748034e-01	4.384067e+14	7.634579e+14	2.097395e+14	1.321807e+04	4.270060e+03	2.652006e+03	0	9.707395e-04
7.500000e+08	2.432340e+13	0.000000e+00	5.748034e-01	4.336839e+14	7.567501e+14	2.087444e+14	1.319413e+04	4.266435e+03	2.649754e+03	0	9.654977e-04
7.600000e+08	2.393260e+13	0.000000e+00	5.748034e-01	4.290478e+14	7.501483e+14	2.077562e+14	1.317043e+04	4.262840e+03	2.647522e+03	0	9.602990e-04
7.700000e+08	2.354913e+13	0.000000e+00	5.748034e-01	4.244963e+14	7.436500e+14	2.067748e+14	1.314700e+04	4.259276e+03	2.645308e+03	0	9.551424e-04
7.800000e+08	2.317279e+13	0.000000e+00	5.748034e-01	4.200271e+14	7.372531e+14	2.058003e+14	1.312380e+04	4.255742e+03	2.643113e+03	0	9.500270e-04
7.900000e+08	2.280341e+13	0.000000e+00	5.748034e-01	4.156382e+14	7.309554e+14	2.048326e+14	1.310086e+04	4.252237e+03	2.640936e+03	0	9.449520e-04
8.000000e+08	2.244081e+13	0.000000e+00	5.748034e-01	4.113277e+14	7.247547e+14	2.038715e+14	1.307815e+04	4.248761e+03	2.638778e+03	0	9.399166e-04
8.100000e+08	2.208481e+13	0.000000e+00	5.748034e-01	4.070934e+14	7.186490e+14	2.029171e+14	1.305567e+04	4.245314e+03	2.636637e+03	0	9.349199e-04
8.200000e+08	2.173526e+13	0.000000e+00	5.748034e-01	4.029336e+14	7.126362e+14	2.019694e+14	1.303343e+04	4.241896e+03	2.634514e+03	0	9.299611e-04
8.300000e+08	2.139199e+13	0.000000e+00	5.748034e-01	3.988465e+14	7.067143e+14	2.010281e+14	1.301141e+04	4.238505e+03	2.632408e+03	0	9.250395e-04
8.400000e+08	2.105486e+13	0.000000e+00	5.748034e-01	3.948302e+14	7.008815e+14	2.000934e+14	1.298962e+04	4.235142e+03	2.630319e+03	0	9.201542e-04
8.500000e+08	2.072370e+13	0.000000e+00	5.748034e-01	3.908830e+14	6.951357e+14	1.991651e+14	1.296804e+04	4.231807e+03	2.628248e+03	0	9.153045e-04
8.600000e+08	2.039837e+13	0.000000e+00	5.748034e-01	3.870033e+14	6.894753e+14	1.982433e+14	1.294668e+04	4.228498e+03	2.626193e+03	0	9.104896e-04
8.700000e+08	2.007873e+13	0.000000e+00	5.748034e-01	3.831895e+14	6.838985e+14	1.973278e+14	1.292553e+04	4.225216e+03	2.624155e+03	0	9.057089e-04
8.800000e+08	1.976465e+13	0.000000e+00	5.748034e-01	3.794400e+14	6.784034e+14	1.964185e+14	1.290459e+04	4.221961e+03	2.622133e+03	0	9.009615e-04
8.900000e+08	1.945600e+13	0.000000e+00	5.748034e-01	3.757533e+14	6.729883e+14	1.955155e+14	1.288385e+04	4.218731e+03	2.620127e+03	0	8.962469e-04
9.000000e+08	1.915264e+13	0.000000e+00	5.748034e-01	3.721280e+14	6.676518e+14	1.946188e+14	1.286332e+04	4.215527e+03	2.618137e+03	0	8.915644e-04
9.100000e+08	1.885445e+13	0.000000e+00	5.748034e-01	3.685625e+14	6.623920e+14	1.937281e+14	1.284298e+04	4.212348e+03	2.616163e+03	0	8.869132e-04
9.200000e+08	1.856130e+13	0.000000e+00	5.748034e-01	3.650555e+14	6.572075e+14	1.928436e+14	1.282283e+04	4.209194e+03	2.614204e+03	0	8.822927e-04
9.300000e+08	1.827309e+13	0.000000e+00	5.748034e-01	3.616057e+14	6.520966e+14	1.919651e+14	1.280288e+04	4.206065e+03	2.612260e+03	0	8.777022e-04
9.400000e+08	1.798970e+13	0.000000e+00	5.748034e-01	3.582118e+14	6.470580e+14	1.910926e+14	1.278311e+04	4.202960e+03	2.610332e+03	0	8.731412e-04
9.500000e+08	1.771102e+13	0.000000e+00	5.748034e-01	3.548724e+14	6.420902e+14	1.902261e+14	1.276353e+04	4.199879e+03	2.608419e+03	0	8.686090e-04
9.600000e+08	1.743693e+13	0.000000e+00	5.748034e-01	3.515865e+14	6.371917e+14	1.893655e+14	1.274413e+04	4.196822e+03	2.606520e+03	0	8.641050e-04
9.700000e+08	1.716734e+13	0.000000e+00	5.748034e-01	3.483527e+14	6.323611e+14	1.885107e+14	1.272491e+04	4.193788e+03	2.604636e+03	0	8.596286e-04
9.800000e+08	1.690215e+13	0.000000e+00	5.748034e-01	3.451699e+14	6.275972e+14	1.876618e+14	1.270587e+04	4.190778e+03	2.602766e+03	0	8.551792e-04
9.900000e+08	1.664125e+13	0.000000e+00	5.748034e-01	3.420370e+14	6.228985e+14	1.868186e+14	1.268700e+04	4.187790e+03	2.600910e+03	0	8.507562e-04
1.000000e+09	1.638455e+13	0.000000e+00	5.748034e-01	3.389529e+14	6.182639e+14	1.859811e+14	1.266830e+04	4.184824e+03	2.599068e+03	0	8.463591e-04
1.010000e+09	1.613196e+13	0.000000e+00	5.748034e-01	3.359166e+14	6.136920e+14	1.851494e+14	1.264976e+04	4.181881e+03	2.597240e+03	0	8.419873e-04
1.020000e+09	1.588338e+13	0.000000e+00	5.748034e-01	3.329269e+14	6.091816e+14	1.843232e+14	1.263140e+04	4.178959e+03	2.595426e+03	0	8.376402e-04
1.030000e+09	1.563874e+13	0.000000e+00	5.748034e-01	3.299829e+14	6.047316e+14	1.835027e+14	1.261320e+04	4.176059e+03	2.593625e+03	0	8.333173e-04
1.040000e+09	1.539794e+13	0.000000e+00	5.748034e-01	3.270836e+14	6.003407e+14	1.826877e+14	1.259515e+04	4.173181e+03	2.591837e+03	0	8.290182e-04
1.050000e+09	1.516090e+13	0.000000e+00	5.748034e-01	3.242281e+14	5.960079e+14	1.818782e+14	1.257727e+04	4.170323e+03	2.590062e+03	0	8.247421e-04
1.060000e+09	1.492754e+13	0.000000e+00	5.748034e-01	3.214154e+14	5.917320e+14	1.810742e+14	1.255954e+04	4.167487e+03	2.588301e+03	0	8.204887e-04
1.070000e+09	1.469778e+13	0.000000e+00	5.748034e-01	3.186446e+14	5.875120e+14	1.802756e+14	1.254196e+04	4.164671e+03	2.586552e+03	0	8.162574e-04
1.080000e+09	1.447155e+13	0.000000e+00	5.748034e-01	3.159148e+14	5.833467e+14	1.794823e+14	1.252454e+04	4.161875e+03	2.584815e+03	0	8.120477e-04
1.090000e+09	1.424877e+13	0.000000e+00	5.748034e-01	3.132253e+14	5.792353e+14	1.786944e+14	1.250726e+04	4.159099e+03	2.583091e+03	0	8.078592e-04
1.100000e+09	1.402937e+13	0.000000e+00	5.748034e-01	3.105751e+14	5.751766e+14	1.779118e+14	1.249014e+04	4.156343e+03	2.581380e+03	0	8.036913e-04
1.110000e+09	1.381328e+13	0.000000e+00	5.748034e-01	3.079635e+14	5.711697e+14	1.771344e+14	1.247315e+04	4.153606e+03	2.579680e+03	0	7.995436e-04
1.120000e+09	1.360043e+13	0.000000e+00	5.748034e-01	3.053896e+14	5.672136e+14	1.763622e+14	1.245631e+04	4.150889e+03	2.577992e+03	0	7.954155e-04
1.130000e+09	1.339075e+13	0.000000e+00	5.748034e-01	3.028528e+14	5.633074e+14	1.755953e+14	1.243961e+04	4.148191e+03	2.576316e+03	0	7.913066e-04
1.140000e+09	1.318418e+13	0.000000e+00	5.748034e-01	3.003522e+14	5.594502e+14	1.748334e+14	1.242304e+04	4.145511e+03	2.574652e+03	0	7.872165e-04
1.150000e+09	1.298065e+13	0.000000e+00	5.748034e-01	2.978871e+14	5.556411e+14	1.740766e+14	1.240662e+04	4.142850e+03	2.573000e+03	0	7.831447e-04
1.160000e+09	1.278011e+13	0.000000e+00	5.748034e-01	2.954568e+14	5.518792e+14	1.733249e+14	1.239032e+04	4.140208e+03	2.571358e+03	0	7.790908e-04
1.170000e+09	1.258249e+13	0.000000e+00	5.748034e-01	2.930607e+14	5.481636e+14	1.725781e+14	1.237416e+04	4.137583e+03	2.569728e+03	0	7.750542e-04
1.180000e+09	1.238774e+13	0.000000e+00	5.748034e-01	2.906980e+14	5.444937e+14	1.718364e+14	1.235813e+04	4.134977e+03	2.568109e+03	0	7.710345e-04
1.190000e+09	1.219579e+13	0.000000e+00	5.748034e-01	2.883681e+14	5.408684e+14	1.710996e+14	1.234223e+04	4.132388e+03	2.566502e+03	0	7.670314e-04
1.200000e+09	1.200659e+13	0.000000e+00	5.748034e-01	2.860704e+14	5.372871e+14	1.703676e+14	1.232646e+04	4.129816e+03	2.564904e+03	0	7.630443e-04
1.210000e+09	1.182010e+13	0.000000e+00	5.748034e-01	2.838042e+14	5.337489e+14	1.696405e+14	1.231081e+04	4.127262e+03	2.563318e+03	0	7.590729e-04
1.220000e+09	1.163624e+13	0.000000e+00	5.748034e-01	2.815689e+14	5.302532e+14	1.689183e+14	1.229529e+04	4.124724e+03	2.561742e+03	0	7.551168e-04
1.230000e+09	1.145498e+13	0.000000e+00	5.748034e-01	2.793639e+14	5.267991e+14	1.682008e+14	1.227989e+04	4.122204e+03	2.560177e+03	0	7.511754e-04
1.240000e+09	1.127627e+13	0.000000e+00	5.748034e-01	2.771887e+14	5.233860e+14	1.674880e+14	1.226460e+04	4.119700e+03	2.558622e+03	0	7.472484e-04
1.250000e+09	1.110005e+13	0.000000e+00	5.748034e-01	2.750427e+14	5.200131e+14	1.667800e+14	1.224944e+04	4.117212e+03	2.557077e+03	0	7.433353e-04
1.260000e+09	1.092627e+13	0.000000e+00	5.748034e-01	2.729253e+14	5.166797e+14	1.660766e+14	1.223439e+04	4.114741e+03	2.555542e+03	0	7.394358e-04
1.270000e+09	1.075489e+13	0.000000e+00	5.748034e-01	2.708360e+14	5.133852e+14	1.653779e+14	1.221946e+04	4.112286e+03	2.554017e+03	0	7.355495e-04
1.280000e+09	1.058587e+13	0.000000e+00	5.748034e-01	2.687743e+14	5.101289e+14	1.646838e+14	1.220465e+04	4.109846e+03	2.552502e+03	0	7.316759e-04
1.290000e+09	1.041916e+13	0.000000e+00	5.748034e-01	2.667397e+14	5.069102e+14	1.639942e+14	1.218994e+04	4.107422e+03	2.550996e+03	0	7.278146e-04
1.300000e+09	1.025471e+13	0.000000e+00	5.748034e-01	2.647316e+14	5.037285e+14	1.633091e+14	1.217535e+04	4.105014e+03	2.549501e+03	0	7.239652e-04
1.310000e+09	1.009249e+13	0.000000e+00	5.748034e-01	2.627495e+14	5.005830e+14	1.626286e+14	1.216087e+04	4.102621e+03	2.548014e+03	0	7.201274e-04
1.320000e+09	9.932453e+12	0.000000e+00	5.748034e-01	2.607931e+14	4.974733e+14	1.619525e+14	1.214649e+04	4.100243e+03	2.546537e+03	0	7.163007e-04
1.330000e+09	9.774557e+12	0.000000e+00	5.748034e-01	2.588618e+14	4.943986e+14	1.612808e+14	1.213222e+04	4.097880e+03	2.545070e+03	0	7.124847e-04
1.340000e+09	9.618763e+12	0.000000e+00	5.748034e-01	2.569552e+14	4.913586e+14	1.606135e+14	1.211806e+04	4.095531e+03	2.543611e+03	0	7.086790e-04
1.350000e+09	9.465034e+12	0.000000e+00	5.748034e-01	2.550728e+14	4.883525e+14	1.599505e+14	1.210400e+04	4.093198e+03	2.542162e+03	0	7.048833e-04
1.360000e+09	9.313332e+12	0.000000e+00	5.748034e-01	2.532142e+14	4.853798e+14	1.592919e+14	1.209004e+04	4.090878e+03	2.540721e+03	0	7.010972e-04
