#t		Qconv[W]	Ri[Rp]		R*[Rp]		Qc[W]		Qm[W]		Qr[W]		Tcmb[K]		Tl[K]		Tup[K]		RiFlag		Bs[T]
0.000000e+00	1.371570e+14	0.000000e+00	5.748032e-01	1.697191e+15	1.641930e+15	3.446035e+14	1.773562e+04	4.748738e+03	2.887729e+03	0	1.711184e-03
1.000000e+07	1.339568e+14	0.000000e+00	5.748032e-01	1.662879e+15	1.657713e+15	3.426941e+14	1.765581e+04	4.759854e+03	2.894488e+03	0	1.697770e-03
2.000000e+07	1.308358e+14	0.000000e+00	5.748032e-01	1.629409e+15	1.670228e+15	3.407991e+14	1.757760e+04	4.769521e+03	2.900367e+03	0	1.684481e-03
3.000000e+07	1.277936e+14	0.000000e+00	5.748032e-01	1.596777e+15	1.679713e+15	3.389181e+14	1.750095e+04	4.777854e+03	2.905434e+03	0	1.671323e-03
4.000000e+07	1.248294e+14	0.000000e+00	5.748032e-01	1.564976e+15	1.686404e+15	3.370513e+14	1.742583e+04	4.784962e+03	2.909756e+03	0	1.658299e-03
5.000000e+07	1.219424e+14	0.000000e+00	5.748032e-01	1.533995e+15	1.690533e+15	3.351983e+14	1.735219e+04	4.790946e+03	2.913395e+03	0	1.645415e-03
6.000000e+07	1.191314e+14	0.000000e+00	5.748032e-01	1.503823e+15	1.692324e+15	3.333592e+14	1.728000e+04	4.795902e+03	2.916409e+03	0	1.632674e-03
7.000000e+07	1.163954e+14	0.000000e+00	5.748032e-01	1.474447e+15	1.691991e+15	3.315337e+14	1.720921e+04	4.799917e+03	2.918851e+03	0	1.620078e-03
8.000000e+07	1.137330e+14	0.000000e+00	5.748032e-01	1.445852e+15	1.689738e+15	3.297219e+14	1.713980e+04	4.803073e+03	2.920770e+03	0	1.607630e-03
9.000000e+07	1.111426e+14	0.000000e+00	5.748032e-01	1.418023e+15	1.685756e+15	3.279235e+14	1.707173e+04	4.805446e+03	2.922213e+03	0	1.595331e-03
1.000000e+08	1.086228e+14	0.000000e+00	5.748032e-01	1.390943e+15	1.680225e+15	3.261384e+14	1.700496e+04	4.807105e+03	2.923222e+03	0	1.583183e-03
1.100000e+08	1.061720e+14	0.000000e+00	5.748032e-01	1.364596e+15	1.673312e+15	3.243667e+14	1.693945e+04	4.808115e+03	2.923836e+03	0	1.571185e-03
1.200000e+08	1.037884e+14	0.000000e+00	5.748032e-01	1.338962e+15	1.665171e+15	3.226080e+14	1.687518e+04	4.808534e+03	2.924091e+03	0	1.559338e-03
1.300000e+08	1.014704e+14	0.000000e+00	5.748032e-01	1.314025e+15	1.655945e+15	3.208624e+14	1.681211e+04	4.808417e+03	2.924020e+03	0	1.547642e-03
1.400000e+08	9.921631e+13	0.000000e+00	5.748032e-01	1.289767e+15	1.645765e+15	3.191296e+14	1.675020e+04	4.807814e+03	2.923653e+03	0	1.536096e-03
1.500000e+08	9.702434e+13	0.000000e+00	5.748032e-01	1.266167e+15	1.634751e+15	3.174097e+14	1.668943e+04	4.806771e+03	2.923019e+03	0	1.524699e-03
1.600000e+08	9.489277e+13	0.000000e+00	5.748032e-01	1.243209e+15	1.623012e+15	3.157025e+14	1.662976e+04	4.805328e+03	2.922141e+03	0	1.513451e-03
1.700000e+08	9.281987e+13	0.000000e+00	5.748032e-01	1.220874e+15	1.610648e+15	3.140079e+14	1.657117e+04	4.803525e+03	2.921045e+03	0	1.502349e-03
1.800000e+08	9.080393e+13	0.000000e+00	5.748032e-01	1.199144e+15	1.597749e+15	3.123258e+14	1.651363e+04	4.801397e+03	2.919751e+03	0	1.491393e-03
1.900000e+08	8.884325e+13	0.000000e+00	5.748032e-01	1.178001e+15	1.584396e+15	3.106561e+14	1.645710e+04	4.798975e+03	2.918278e+03	0	1.480581e-03
2.000000e+08	8.693617e+13	0.000000e+00	5.748032e-01	1.157427e+15	1.570664e+15	3.089986e+14	1.640156e+04	4.796288e+03	2.916644e+03	0	1.469910e-03
2.100000e+08	8.508105e+13	0.000000e+00	5.748032e-01	1.137404e+15	1.556620e+15	3.073534e+14	1.634699e+04	4.793364e+03	2.914866e+03	0	1.459380e-03
2.200000e+08	8.327628e+13	0.000000e+00	5.748032e-01	1.117917e+15	1.542322e+15	3.057202e+14	1.629335e+04	4.790227e+03	2.912958e+03	0	1.448987e-03
2.300000e+08	8.152028e+13	0.000000e+00	5.748032e-01	1.098948e+15	1.527825e+15	3.040990e+14	1.624063e+04	4.786898e+03	2.910934e+03	0	1.438730e-03
2.400000e+08	7.981152e+13	0.000000e+00	5.748032e-01	1.080480e+15	1.513177e+15	3.024897e+14	1.618880e+04	4.783399e+03	2.908806e+03	0	1.428606e-03
2.500000e+08	7.814851e+13	0.000000e+00	5.748032e-01	1.062499e+15	1.498420e+15	3.008922e+14	1.613784e+04	4.779747e+03	2.906585e+03	0	1.418614e-03
2.600000e+08	7.652978e+13	0.000000e+00	5.748032e-01	1.044989e+15	1.483594e+15	2.993064e+14	1.608771e+04	4.775959e+03	2.904282e+03	0	1.408751e-03
2.700000e+08	7.495393e+13	0.000000e+00	5.748032e-01	1.027934e+15	1.468731e+15	2.977322e+14	1.603841e+04	4.772052e+03	2.901906e+03	0	1.399014e-03
2.800000e+08	7.341958e+13	0.000000e+00	5.748032e-01	1.011320e+15	1.453863e+15	2.961695e+14	1.598991e+04	4.768038e+03	2.899465e+03	0	1.389402e-03
2.900000e+08	7.192541e+13	0.000000e+00	5.748032e-01	9.951342e+14	1.439015e+15	2.946181e+14	1.594219e+04	4.763931e+03	2.896968e+03	0	1.379912e-03
3.000000e+08	7.047011e+13	0.000000e+00	5.748032e-01	9.793615e+14	1.424212e+15	2.930781e+14	1.589523e+04	4.759743e+03	2.894421e+03	0	1.370542e-03
3.100000e+08	6.905243e+13	0.000000e+00	5.748032e-01	9.639891e+14	1.409475e+15	2.915493e+14	1.584901e+04	4.755483e+03	2.891830e+03	0	1.361289e-03
3.200000e+08	6.767118e+13	0.000000e+00	5.748032e-01	9.490042e+14	1.394821e+15	2.900317e+14	1.580351e+04	4.751161e+03	2.889202e+03	0	1.352151e-03
3.300000e+08	6.632518e+13	0.000000e+00	5.748032e-01	9.343946e+14	1.380267e+15	2.885250e+14	1.575871e+04	4.746787e+03	2.886543e+03	0	1.343126e-03
3.400000e+08	6.501330e+13	0.000000e+00	5.748032e-01	9.201481e+14	1.365826e+15	2.870293e+14	1.571460e+04	4.742369e+03	2.883856e+03	0	1.334212e-03
3.500000e+08	6.373444e+13	0.000000e+00	5.748032e-01	9.062533e+14	1.351510e+15	2.855445e+14	1.567116e+04	4.737913e+03	2.881146e+03	0	1.325405e-03
3.600000e+08	6.248756e+13	0.000000e+00	5.748032e-01	8.926991e+14	1.337331e+15	2.840704e+14	1.562837e+04	4.733426e+03	2.878417e+03	0	1.316705e-03
3.700000e+08	6.127163e+13	0.000000e+00	5.748032e-01	8.794746e+14	1.323296e+15	2.826070e+14	1.558622e+04	4.728914e+03	2.875674e+03	0	1.308109e-03
3.800000e+08	6.008568e+13	0.000000e+00	5.748032e-01	8.665694e+14	1.309413e+15	2.811542e+14	1.554469e+04	4.724384e+03	2.872919e+03	0	1.299614e-03
3.900000e+08	5.892875e+13	0.000000e+00	5.748032e-01	8.539737e+14	1.295689e+15	2.797119e+14	1.550377e+04	4.719839e+03	2.870155e+03	0	1.291218e-03
4.000000e+08	5.779993e+13	0.000000e+00	5.748032e-01	8.416776e+14	1.282128e+15	2.782800e+14	1.546344e+04	4.715284e+03	2.867385e+03	0	1.282920e-03
4.100000e+08	5.669834e+13	0.000000e+00	5.748032e-01	8.296718e+14	1.268735e+15	2.768584e+14	1.542368e+04	4.710724e+03	2.864612e+03	0	1.274718e-03
4.200000e+08	5.562312e+13	0.000000e+00	5.748032e-01	8.179473e+14	1.255514e+15	2.754471e+14	1.538449e+04	4.706161e+03	2.861838e+03	0	1.266609e-03
4.300000e+08	5.457346e+13	0.000000e+00	5.748032e-01	8.064955e+14	1.242466e+15	2.740460e+14	1.534585e+04	4.701601e+03	2.859064e+03	0	1.258591e-03
4.400000e+08	5.354856e+13	0.000000e+00	5.748032e-01	7.953080e+14	1.229595e+15	2.726549e+14	1.530775e+04	4.697044e+03	2.856294e+03	0	1.250662e-03
4.500000e+08	5.254767e+13	0.000000e+00	5.748032e-01	7.843767e+14	1.216901e+15	2.712738e+14	1.527018e+04	4.692496e+03	2.853527e+03	0	1.242821e-03
4.600000e+08	5.157003e+13	0.000000e+00	5.748032e-01	7.736937e+14	1.204385e+15	2.699026e+14	1.523312e+04	4.687957e+03	2.850767e+03	0	1.235065e-03
4.700000e+08	5.061496e+13	0.000000e+00	5.748032e-01	7.632517e+14	1.192047e+15	2.685413e+14	1.519656e+04	4.683430e+03	2.848014e+03	0	1.227393e-03
4.800000e+08	4.968175e+13	0.000000e+00	5.748032e-01	7.530432e+14	1.179889e+15	2.671897e+14	1.516049e+04	4.678917e+03	2.845270e+03	0	1.219803e-03
4.900000e+08	4.876976e+13	0.000000e+00	5.748032e-01	7.430615e+14	1.167908e+15	2.658478e+14	1.512491e+04	4.674420e+03	2.842536e+03	0	1.212293e-03
5.000000e+08	4.787834e+13	0.000000e+00	5.748032e-01	7.332996e+14	1.156105e+15	2.645155e+14	1.508979e+04	4.669941e+03	2.839812e+03	0	1.204861e-03
5.100000e+08	4.700688e+13	0.000000e+00	5.748032e-01	7.237512e+14	1.144478e+15	2.631927e+14	1.505513e+04	4.665481e+03	2.837100e+03	0	1.197506e-03
5.200000e+08	4.615478e+13	0.000000e+00	5.748032e-01	7.144098e+14	1.133026e+15	2.618794e+14	1.502093e+04	4.661042e+03	2.834400e+03	0	1.190226e-03
5.300000e+08	4.532149e+13	0.000000e+00	5.748032e-01	7.052696e+14	1.121747e+15	2.605754e+14	1.498716e+04	4.656624e+03	2.831714e+03	0	1.183020e-03
5.400000e+08	4.450644e+13	0.000000e+00	5.748032e-01	6.963246e+14	1.110641e+15	2.592807e+14	1.495382e+04	4.652229e+03	2.829041e+03	0	1.175885e-03
5.500000e+08	4.370910e+13	0.000000e+00	5.748032e-01	6.875692e+14	1.099704e+15	2.579952e+14	1.492090e+04	4.647857e+03	2.826383e+03	0	1.168821e-03
5.600000e+08	4.292897e+13	0.000000e+00	5.748032e-01	6.789980e+14	1.088936e+15	2.567189e+14	1.488840e+04	4.643510e+03	2.823739e+03	0	1.161825e-03
5.700000e+08	4.216554e+13	0.000000e+00	5.748032e-01	6.706057e+14	1.078334e+15	2.554516e+14	1.485629e+04	4.639188e+03	2.821111e+03	0	1.154897e-03
5.800000e+08	4.141834e+13	0.000000e+00	5.748032e-01	6.623872e+14	1.067895e+15	2.541933e+14	1.482459e+04	4.634892e+03	2.818498e+03	0	1.148034e-03
5.900000e+08	4.068690e+13	0.000000e+00	5.748032e-01	6.543377e+14	1.057618e+15	2.529440e+14	1.479327e+04	4.630623e+03	2.815902e+03	0	1.141236e-03
6.000000e+08	3.997079e+13	0.000000e+00	5.748032e-01	6.464524e+14	1.047501e+15	2.517034e+14	1.476233e+04	4.626380e+03	2.813322e+03	0	1.134501e-03
6.100000e+08	3.926956e+13	0.000000e+00	5.748032e-01	6.387267e+14	1.037540e+15	2.504717e+14	1.473176e+04	4.622164e+03	2.810759e+03	0	1.127827e-03
6.200000e+08	3.858281e+13	0.000000e+00	5.748032e-01	6.311563e+14	1.027734e+15	2.492486e+14	1.470155e+04	4.617976e+03	2.808212e+03	0	1.121214e-03
6.300000e+08	3.791014e+13	0.000000e+00	5.748032e-01	6.237369e+14	1.018080e+15	2.480342e+14	1.467170e+04	4.613816e+03	2.805682e+03	0	1.114660e-03
6.400000e+08	3.725115e+13	0.000000e+00	5.748032e-01	6.164644e+14	1.008575e+15	2.468284e+14	1.464221e+04	4.609684e+03	2.803170e+03	0	1.108164e-03
6.500000e+08	3.660547e+13	0.000000e+00	5.748032e-01	6.093347e+14	9.992170e+14	2.456310e+14	1.461305e+04	4.605581e+03	2.800674e+03	0	1.101724e-03
6.600000e+08	3.597274e+13	0.000000e+00	5.748032e-01	6.023442e+14	9.900038e+14	2.444421e+14	1.458423e+04	4.601506e+03	2.798196e+03	0	1.095339e-03
6.700000e+08	3.535261e+13	0.000000e+00	5.748032e-01	5.954889e+14	9.809327e+14	2.432615e+14	1.455574e+04	4.597459e+03	2.795735e+03	0	1.089008e-03
6.800000e+08	3.474475e+13	0.000000e+00	5.748032e-01	5.887654e+14	9.720011e+14	2.420893e+14	1.452757e+04	4.593441e+03	2.793292e+03	0	1.082730e-03
6.900000e+08	3.414881e+13	0.000000e+00	5.748032e-01	5.821701e+14	9.632065e+14	2.409252e+14	1.449972e+04	4.589452e+03	2.790866e+03	0	1.076504e-03
7.000000e+08	3.356449e+13	0.000000e+00	5.748032e-01	5.756997e+14	9.545467e+14	2.397693e+14	1.447218e+04	4.585491e+03	2.788458e+03	0	1.070329e-03
7.100000e+08	3.299149e+13	0.000000e+00	5.748032e-01	5.693510e+14	9.460189e+14	2.386215e+14	1.444494e+04	4.581559e+03	2.786067e+03	0	1.064203e-03
7.200000e+08	3.242950e+13	0.000000e+00	5.748032e-01	5.631207e+14	9.376210e+14	2.374818e+14	1.441800e+04	4.577656e+03	2.783693e+03	0	1.058126e-03
7.300000e+08	3.187823e+13	0.000000e+00	5.748032e-01	5.570059e+14	9.293504e+14	2.363499e+14	1.439136e+04	4.573781e+03	2.781337e+03	0	1.052096e-03
7.400000e+08	3.133742e+13	0.000000e+00	5.748032e-01	5.510036e+14	9.212049e+14	2.352260e+14	1.436501e+04	4.569935e+03	2.778997e+03	0	1.046112e-03
7.500000e+08	3.080679e+13	0.000000e+00	5.748032e-01	5.451110e+14	9.131820e+14	2.341100e+14	1.433893e+04	4.566116e+03	2.776676e+03	0	1.040174e-03
7.600000e+08	3.028609e+13	0.000000e+00	5.748032e-01	5.393252e+14	9.052795e+14	2.330017e+14	1.431314e+04	4.562326e+03	2.774371e+03	0	1.034281e-03
7.700000e+08	2.977505e+13	0.000000e+00	5.748032e-01	5.336436e+14	8.974951e+14	2.319011e+14	1.428762e+04	4.558564e+03	2.772083e+03	0	1.028430e-03
7.800000e+08	2.927344e+13	0.000000e+00	5.748032e-01	5.280636e+14	8.898265e+14	2.308081e+14	1.426237e+04	4.554830e+03	2.769812e+03	0	1.022622e-03
7.900000e+08	2.878103e+13	0.000000e+00	5.748032e-01	5.225827e+14	8.822716e+14	2.297228e+14	1.423738e+04	4.551123e+03	2.767558e+03	0	1.016856e-03
8.000000e+08	2.829758e+13	0.000000e+00	5.748032e-01	5.171985e+14	8.748283e+14	2.286450e+14	1.421264e+04	4.547444e+03	2.765321e+03	0	1.011130e-03
8.100000e+08	2.782287e+13	0.000000e+00	5.748032e-01	5.119085e+14	8.674943e+14	2.275746e+14	1.418817e+04	4.543793e+03	2.763100e+03	0	1.005444e-03
8.200000e+08	2.735668e+13	0.000000e+00	5.748032e-01	5.067106e+14	8.602676e+14	2.265117e+14	1.416394e+04	4.540168e+03	2.760896e+03	0	9.997969e-04
8.300000e+08	2.689882e+13	0.000000e+00	5.748032e-01	5.016024e+14	8.531461e+14	2.254561e+14	1.413996e+04	4.536570e+03	2.758708e+03	0	9.941876e-04
8.400000e+08	2.644907e+13	0.000000e+00	5.748032e-01	4.965819e+14	8.461279e+14	2.244078e+14	1.411621e+04	4.532999e+03	2.756537e+03	0	9.886155e-04
8.500000e+08	2.600724e+13	0.000000e+00	5.748032e-01	4.916470e+14	8.392110e+14	2.233667e+14	1.409271e+04	4.529454e+03	2.754381e+03	0	9.830797e-04
8.600000e+08	2.557314e+13	0.000000e+00	5.748032e-01	4.867955e+14	8.323933e+14	2.223328e+14	1.406944e+04	4.525936e+03	2.752242e+03	0	9.775793e-04
8.700000e+08	2.514659e+13	0.000000e+00	5.748032e-01	4.820257e+14	8.256731e+14	2.213060e+14	1.404639e+04	4.522443e+03	2.750118e+03	0	9.721136e-04
8.800000e+08	2.472741e+13	0.000000e+00	5.748032e-01	4.773354e+14	8.190485e+14	2.202863e+14	1.402357e+04	4.518976e+03	2.748010e+03	0	9.666817e-04
8.900000e+08	2.431542e+13	0.000000e+00	5.748032e-01	4.727230e+14	8.125175e+14	2.192736e+14	1.400098e+04	4.515535e+03	2.745917e+03	0	9.612830e-04
9.000000e+08	2.391046e+13	0.000000e+00	5.748032e-01	4.681866e+14	8.060786e+14	2.182679e+14	1.397860e+04	4.512119e+03	2.743840e+03	0	9.559165e-04
9.100000e+08	2.351237e+13	0.000000e+00	5.748032e-01	4.637245e+14	7.997298e+14	2.172690e+14	1.395643e+04	4.508728e+03	2.741778e+03	0	9.505816e-04
9.200000e+08	2.312098e+13	0.000000e+00	5.748032e-01	4.593350e+14	7.934696e+14	2.162770e+14	1.393448e+04	4.505362e+03	2.739731e+03	0	9.452776e-04
9.300000e+08	2.273614e+13	0.000000e+00	5.748032e-01	4.550164e+14	7.872961e+14	2.152917e+14	1.391273e+04	4.502020e+03	2.737699e+03	0	9.400036e-04
9.400000e+08	2.235770e+13	0.000000e+00	5.748032e-01	4.507671e+14	7.812079e+14	2.143132e+14	1.389118e+04	4.498703e+03	2.735681e+03	0	9.347590e-04
9.500000e+08	2.198552e+13	0.000000e+00	5.748032e-01	4.465856e+14	7.752032e+14	2.133414e+14	1.386984e+04	4.495410e+03	2.733679e+03	0	9.295431e-04
9.600000e+08	2.161945e+13	0.000000e+00	5.748032e-01	4.424704e+14	7.692805e+14	2.123762e+14	1.384870e+04	4.492140e+03	2.731690e+03	0	9.243551e-04
9.700000e+08	2.125936e+13	0.000000e+00	5.748032e-01	4.384200e+14	7.634382e+14	2.114176e+14	1.382774e+04	4.488894e+03	2.729716e+03	0	9.191944e-04
9.800000e+08	2.090512e+13	0.000000e+00	5.748032e-01	4.344330e+14	7.576749e+14	2.104655e+14	1.380698e+04	4.485671e+03	2.727757e+03	0	9.140603e-04
9.900000e+08	2.055659e+13	0.000000e+00	5.748032e-01	4.305080e+14	7.519890e+14	2.095199e+14	1.378641e+04	4.482472e+03	2.725811e+03	0	9.089521e-04
1.000000e+09	2.021365e+13	0.000000e+00	5.748032e-01	4.266437e+14	7.463792e+14	2.085807e+14	1.376602e+04	4.479295e+03	2.723879e+03	0	9.038691e-04
1.010000e+09	1.987618e+13	0.000000e+00	5.748032e-01	4.228387e+14	7.408440e+14	2.076478e+14	1.374582e+04	4.476140e+03	2.721961e+03	0	8.988108e-04
1.020000e+09	1.954406e+13	0.000000e+00	5.748032e-01	4.190918e+14	7.353821e+14	2.067213e+14	1.372579e+04	4.473008e+03	2.720056e+03	0	8.937764e-04
1.030000e+09	1.921717e+13	0.000000e+00	5.748032e-01	4.154018e+14	7.299920e+14	2.058010e+14	1.370595e+04	4.469898e+03	2.718165e+03	0	8.887653e-04
1.040000e+09	1.889540e+13	0.000000e+00	5.748032e-01	4.117673e+14	7.246726e+14	2.048870e+14	1.368627e+04	4.466810e+03	2.716287e+03	0	8.837770e-04
1.050000e+09	1.857864e+13	0.000000e+00	5.748032e-01	4.081874e+14	7.194223e+14	2.039792e+14	1.366677e+04	4.463744e+03	2.714422e+03	0	8.788106e-04
1.060000e+09	1.826679e+13	0.000000e+00	5.748032e-01	4.046607e+14	7.142402e+14	2.030774e+14	1.364744e+04	4.460698e+03	2.712571e+03	0	8.738657e-04
1.070000e+09	1.795973e+13	0.000000e+00	5.748032e-01	4.011863e+14	7.091247e+14	2.021818e+14	1.362827e+04	4.457674e+03	2.710732e+03	0	8.689416e-04
1.080000e+09	1.765738e+13	0.000000e+00	5.748032e-01	3.977630e+14	7.040749e+14	2.012921e+14	1.360927e+04	4.454671e+03	2.708905e+03	0	8.640378e-04
1.090000e+09	1.735963e+13	0.000000e+00	5.748032e-01	3.943898e+14	6.990895e+14	2.004085e+14	1.359043e+04	4.451689e+03	2.707092e+03	0	8.591535e-04
1.100000e+09	1.706638e+13	0.000000e+00	5.748032e-01	3.910656e+14	6.941673e+14	1.995307e+14	1.357175e+04	4.448726e+03	2.705290e+03	0	8.542882e-04
1.110000e+09	1.677754e+13	0.000000e+00	5.748032e-01	3.877895e+14	6.893071e+14	1.986589e+14	1.355322e+04	4.445784e+03	2.703501e+03	0	8.494414e-04
1.120000e+09	1.649303e+13	0.000000e+00	5.748032e-01	3.845605e+14	6.845080e+14	1.977929e+14	1.353485e+04	4.442862e+03	2.701724e+03	0	8.446124e-04
1.130000e+09	1.621275e+13	0.000000e+00	5.748032e-01	3.813776e+14	6.797688e+14	1.969327e+14	1.351663e+04	4.439960e+03	2.699959e+03	0	8.398006e-04
1.140000e+09	1.593662e+13	0.000000e+00	5.748032e-01	3.782399e+14	6.750885e+14	1.960783e+14	1.349857e+04	4.437077e+03	2.698206e+03	0	8.350055e-04
1.150000e+09	1.566455e+13	0.000000e+00	5.748032e-01	3.751465e+14	6.704660e+14	1.952295e+14	1.348065e+04	4.434214e+03	2.696465e+03	0	8.302265e-04
1.160000e+09	1.539646e+13	0.000000e+00	5.748032e-01	3.720966e+14	6.659003e+14	1.943864e+14	1.346288e+04	4.431370e+03	2.694736e+03	0	8.254630e-04
1.170000e+09	1.513228e+13	0.000000e+00	5.748032e-01	3.690892e+14	6.613904e+14	1.935490e+14	1.344525e+04	4.428544e+03	2.693017e+03	0	8.207144e-04
1.180000e+09	1.487192e+13	0.000000e+00	5.748032e-01	3.661236e+14	6.569353e+14	1.927171e+14	1.342776e+04	4.425737e+03	2.691311e+03	0	8.159802e-04
1.190000e+09	1.461530e+13	0.000000e+00	5.748032e-01	3.631989e+14	6.525342e+14	1.918907e+14	1.341041e+04	4.422949e+03	2.689615e+03	0	8.112597e-04
1.200000e+09	1.436237e+13	0.000000e+00	5.748032e-01	3.603144e+14	6.481860e+14	1.910699e+14	1.339321e+04	4.420179e+03	2.687930e+03	0	8.065525e-04
1.210000e+09	1.411303e+13	0.000000e+00	5.748032e-01	3.574692e+14	6.438898e+14	1.902544e+14	1.337614e+04	4.417427e+03	2.686257e+03	0	8.018579e-04
1.220000e+09	1.386723e+13	0.000000e+00	5.748032e-01	3.546627e+14	6.396449e+14	1.894444e+14	1.335920e+04	4.414693e+03	2.684594e+03	0	7.971754e-04
1.230000e+09	1.362490e+13	0.000000e+00	5.748032e-01	3.518940e+14	6.354503e+14	1.886397e+14	1.334239e+04	4.411976e+03	2.682942e+03	0	7.925044e-04
1.240000e+09	1.338596e+13	0.000000e+00	5.748032e-01	3.491625e+14	6.313051e+14	1.878404e+14	1.332572e+04	4.409277e+03	2.681301e+03	0	7.878444e-04
1.250000e+09	1.315035e+13	0.000000e+00	5.748032e-01	3.464674e+14	6.272085e+14	1.870463e+14	1.330917e+04	4.406595e+03	2.679670e+03	0	7.831947e-04
1.260000e+09	1.291802e+13	0.000000e+00	5.748032e-01	3.438081e+14	6.231597e+14	1.862575e+14	1.329276e+04	4.403931e+03	2.678050e+03	0	7.785549e-04
1.270000e+09	1.268889e+13	0.000000e+00	5.748032e-01	3.411840e+14	6.191579e+14	1.854738e+14	1.327647e+04	4.401283e+03	2.676439e+03	0	7.739243e-04
1.280000e+09	1.246290e+13	0.000000e+00	5.748032e-01	3.385943e+14	6.152024e+14	1.846953e+14	1.326030e+04	4.398651e+03	2.674839e+03	0	7.693023e-04
1.290000e+09	1.224001e+13	0.000000e+00	5.748032e-01	3.360384e+14	6.112923e+14	1.839219e+14	1.324425e+04	4.396037e+03	2.673249e+03	0	7.646885e-04
1.300000e+09	1.202015e+13	0.000000e+00	5.748032e-01	3.335157e+14	6.074269e+14	1.831536e+14	1.322833e+04	4.393438e+03	2.671669e+03	0	7.600822e-04
1.310000e+09	1.180325e+13	0.000000e+00	5.748032e-01	3.310256e+14	6.036056e+14	1.823904e+14	1.321252e+04	4.390856e+03	2.670099e+03	0	7.554828e-04
1.320000e+09	1.158928e+13	0.000000e+00	5.748032e-01	3.285676e+14	5.998274e+14	1.816321e+14	1.319684e+04	4.388290e+03	2.668539e+03	0	7.508897e-04
1.330000e+09	1.137818e+13	0.000000e+00	5.748032e-01	3.261409e+14	5.960918e+14	1.808788e+14	1.318126e+04	4.385740e+03	2.666988e+03	0	7.463024e-04
1.340000e+09	1.116988e+13	0.000000e+00	5.748032e-01	3.237452e+14	5.923981e+14	1.801304e+14	1.316581e+04	4.383205e+03	2.665446e+03	0	7.417203e-04
1.350000e+09	1.096435e+13	0.000000e+00	5.748032e-01	3.213797e+14	5.887456e+14	1.793869e+14	1.315046e+04	4.380686e+03	2.663914e+03	0	7.371427e-04
1.360000e+09	1.076153e+13	0.000000e+00	5.748032e-01	3.190440e+14	5.851336e+14	1.786483e+14	1.313523e+04	4.378181e+03	2.662392e+03	0	7.325691e-04
