#t		Qconv[W]	Ri[Rp]		R*[Rp]		Qc[W]		Qm[W]		Qr[W]		Tcmb[K]		Tl[K]		Tup[K]		RiFlag		Bs[T]
0.000000e+00	2.470927e+15	0.000000e+00	5.781250e-01	2.468504e+16	3.806044e+15	3.624527e+14	3.166004e+04	5.874204e+03	2.863919e+03	0	4.405131e-03
1.000000e+07	2.248487e+15	0.000000e+00	5.781250e-01	2.249579e+16	6.728320e+15	3.604445e+14	3.065264e+04	6.460409e+03	3.149719e+03	0	4.268766e-03
2.000000e+07	2.044378e+15	0.000000e+00	5.781250e-01	2.048700e+16	9.550004e+15	3.584513e+14	2.973158e+04	6.893280e+03	3.360762e+03	0	4.135480e-03
3.000000e+07	1.859511e+15	0.000000e+00	5.781250e-01	1.866747e+16	1.173293e+16	3.564729e+14	2.889022e+04	7.190221e+03	3.505533e+03	0	4.006869e-03
4.000000e+07	1.693947e+15	0.000000e+00	5.781250e-01	1.703764e+16	1.311580e+16	3.545093e+14	2.812143e+04	7.379416e+03	3.597773e+03	0	3.884235e-03
5.000000e+07	1.546751e+15	0.000000e+00	5.781250e-01	1.558827e+16	1.379148e+16	3.525604e+14	2.741793e+04	7.489658e+03	3.651521e+03	0	3.768302e-03
6.000000e+07	1.416345e+15	0.000000e+00	5.781250e-01	1.430384e+16	1.394279e+16	3.506260e+14	2.677274e+04	7.544956e+03	3.678481e+03	0	3.659277e-03
7.000000e+07	1.300900e+15	0.000000e+00	5.781250e-01	1.316637e+16	1.374635e+16	3.487060e+14	2.617941e+04	7.563277e+03	3.687413e+03	0	3.557025e-03
8.000000e+07	1.198587e+15	0.000000e+00	5.781250e-01	1.215790e+16	1.333902e+16	3.468003e+14	2.563215e+04	7.557282e+03	3.684491e+03	0	3.461216e-03
9.000000e+07	1.107710e+15	0.000000e+00	5.781250e-01	1.126180e+16	1.281600e+16	3.449088e+14	2.512587e+04	7.535611e+03	3.673925e+03	0	3.371431e-03
1.000000e+08	1.026759e+15	0.000000e+00	5.781250e-01	1.046323e+16	1.223942e+16	3.430313e+14	2.465609e+04	7.504059e+03	3.658542e+03	0	3.287217e-03
1.100000e+08	9.544178e+14	0.000000e+00	5.781250e-01	9.749286e+15	1.164802e+16	3.411677e+14	2.421892e+04	7.466486e+03	3.640224e+03	0	3.208128e-03
1.200000e+08	8.895542e+14	0.000000e+00	5.781250e-01	9.108855e+15	1.106504e+16	3.393180e+14	2.381099e+04	7.425453e+03	3.620218e+03	0	3.133740e-03
1.300000e+08	8.311985e+14	0.000000e+00	5.781250e-01	8.532419e+15	1.050368e+16	3.374819e+14	2.342934e+04	7.382654e+03	3.599352e+03	0	3.063659e-03
1.400000e+08	7.785229e+14	0.000000e+00	5.781250e-01	8.011848e+15	9.970872e+15	3.356594e+14	2.307138e+04	7.339208e+03	3.578170e+03	0	2.997524e-03
1.500000e+08	7.308203e+14	0.000000e+00	5.781250e-01	7.540204e+15	9.469665e+15	3.338505e+14	2.273487e+04	7.295850e+03	3.557031e+03	0	2.935007e-03
1.600000e+08	6.874863e+14	0.000000e+00	5.781250e-01	7.111549e+15	9.000775e+15	3.320548e+14	2.241782e+04	7.253056e+03	3.536167e+03	0	2.875810e-03
1.700000e+08	6.480028e+14	0.000000e+00	5.781250e-01	6.720796e+15	8.563546e+15	3.302724e+14	2.211849e+04	7.211128e+03	3.515726e+03	0	2.819667e-03
1.800000e+08	6.119248e+14	0.000000e+00	5.781250e-01	6.363574e+15	8.156561e+15	3.285032e+14	2.183533e+04	7.170253e+03	3.495798e+03	0	2.766336e-03
1.900000e+08	5.788686e+14	0.000000e+00	5.781250e-01	6.036112e+15	7.778010e+15	3.267470e+14	2.156698e+04	7.130538e+03	3.476435e+03	0	2.715598e-03
2.000000e+08	5.485025e+14	0.000000e+00	5.781250e-01	5.735152e+15	7.425926e+15	3.250037e+14	2.131223e+04	7.092034e+03	3.457663e+03	0	2.667258e-03
2.100000e+08	5.205387e+14	0.000000e+00	5.781250e-01	5.457864e+15	7.098321e+15	3.232732e+14	2.106999e+04	7.054759e+03	3.439490e+03	0	2.621138e-03
2.200000e+08	4.947266e+14	0.000000e+00	5.781250e-01	5.201785e+15	6.793262e+15	3.215555e+14	2.083929e+04	7.018707e+03	3.421912e+03	0	2.577076e-03
2.300000e+08	4.708475e+14	0.000000e+00	5.781250e-01	4.964765e+15	6.508923e+15	3.198503e+14	2.061925e+04	6.983853e+03	3.404920e+03	0	2.534928e-03
2.400000e+08	4.487096e+14	0.000000e+00	5.781250e-01	4.744918e+15	6.243598e+15	3.181577e+14	2.040911e+04	6.950164e+03	3.388495e+03	0	2.494560e-03
2.500000e+08	4.281446e+14	0.000000e+00	5.781250e-01	4.540588e+15	5.995713e+15	3.164774e+14	2.020814e+04	6.917601e+03	3.372619e+03	0	2.455853e-03
2.600000e+08	4.090038e+14	0.000000e+00	5.781250e-01	4.350312e+15	5.763827e+15	3.148094e+14	2.001572e+04	6.886122e+03	3.357272e+03	0	2.418696e-03
2.700000e+08	3.911559e+14	0.000000e+00	5.781250e-01	4.172800e+15	5.546624e+15	3.131537e+14	1.983125e+04	6.855681e+03	3.342430e+03	0	2.382990e-03
2.800000e+08	3.744845e+14	0.000000e+00	5.781250e-01	4.006903e+15	5.342906e+15	3.115100e+14	1.965421e+04	6.826233e+03	3.328074e+03	0	2.348642e-03
2.900000e+08	3.588860e+14	0.000000e+00	5.781250e-01	3.851604e+15	5.151585e+15	3.098783e+14	1.948413e+04	6.797735e+03	3.314179e+03	0	2.315569e-03
3.000000e+08	3.442682e+14	0.000000e+00	5.781250e-01	3.705993e+15	4.971674e+15	3.082586e+14	1.932056e+04	6.770142e+03	3.300727e+03	0	2.283694e-03
3.100000e+08	3.305484e+14	0.000000e+00	5.781250e-01	3.569258e+15	4.802275e+15	3.066506e+14	1.916310e+04	6.743414e+03	3.287696e+03	0	2.252945e-03
3.200000e+08	3.176527e+14	0.000000e+00	5.781250e-01	3.440670e+15	4.642576e+15	3.050543e+14	1.901139e+04	6.717510e+03	3.275066e+03	0	2.223257e-03
3.300000e+08	3.055148e+14	0.000000e+00	5.781250e-01	3.319574e+15	4.491836e+15	3.034696e+14	1.886508e+04	6.692391e+03	3.262820e+03	0	2.194571e-03
3.400000e+08	2.940748e+14	0.000000e+00	5.781250e-01	3.205383e+15	4.349384e+15	3.018965e+14	1.872386e+04	6.668021e+03	3.250939e+03	0	2.166830e-03
3.500000e+08	2.832788e+14	0.000000e+00	5.781250e-01	3.097563e+15	4.214608e+15	3.003347e+14	1.858744e+04	6.644367e+03	3.239406e+03	0	2.139983e-03
3.600000e+08	2.730780e+14	0.000000e+00	5.781250e-01	2.995634e+15	4.086952e+15	2.987843e+14	1.845557e+04	6.621394e+03	3.228206e+03	0	2.113981e-03
3.700000e+08	2.634283e+14	0.000000e+00	5.781250e-01	2.899160e+15	3.965907e+15	2.972451e+14	1.832799e+04	6.599072e+03	3.217323e+03	0	2.088781e-03
3.800000e+08	2.542894e+14	0.000000e+00	5.781250e-01	2.807747e+15	3.851011e+15	2.957170e+14	1.820448e+04	6.577372e+03	3.206743e+03	0	2.064342e-03
3.900000e+08	2.456250e+14	0.000000e+00	5.781250e-01	2.721033e+15	3.741838e+15	2.942000e+14	1.808483e+04	6.556265e+03	3.196453e+03	0	2.040624e-03
4.000000e+08	2.374017e+14	0.000000e+00	5.781250e-01	2.638691e+15	3.638001e+15	2.926939e+14	1.796883e+04	6.535727e+03	3.186440e+03	0	2.017593e-03
4.100000e+08	2.295893e+14	0.000000e+00	5.781250e-01	2.560421e+15	3.539145e+15	2.911987e+14	1.785631e+04	6.515732e+03	3.176691e+03	0	1.995214e-03
4.200000e+08	2.221601e+14	0.000000e+00	5.781250e-01	2.485951e+15	3.444943e+15	2.897143e+14	1.774710e+04	6.496256e+03	3.167196e+03	0	1.973456e-03
4.300000e+08	2.150885e+14	0.000000e+00	5.781250e-01	2.415027e+15	3.355095e+15	2.882406e+14	1.764103e+04	6.477278e+03	3.157943e+03	0	1.952291e-03
4.400000e+08	2.083513e+14	0.000000e+00	5.781250e-01	2.347422e+15	3.269325e+15	2.867775e+14	1.753796e+04	6.458777e+03	3.148923e+03	0	1.931691e-03
4.500000e+08	2.019271e+14	0.000000e+00	5.781250e-01	2.282923e+15	3.187379e+15	2.853248e+14	1.743776e+04	6.440733e+03	3.140126e+03	0	1.911630e-03
4.600000e+08	1.957961e+14	0.000000e+00	5.781250e-01	2.221335e+15	3.109022e+15	2.838827e+14	1.734028e+04	6.423128e+03	3.131543e+03	0	1.892083e-03
4.700000e+08	1.899404e+14	0.000000e+00	5.781250e-01	2.162480e+15	3.034038e+15	2.824508e+14	1.724541e+04	6.405944e+03	3.123165e+03	0	1.873030e-03
4.800000e+08	1.843430e+14	0.000000e+00	5.781250e-01	2.106191e+15	2.962227e+15	2.810292e+14	1.715303e+04	6.389164e+03	3.114984e+03	0	1.854447e-03
4.900000e+08	1.789885e+14	0.000000e+00	5.781250e-01	2.052317e+15	2.893403e+15	2.796178e+14	1.706303e+04	6.372773e+03	3.106993e+03	0	1.836315e-03
5.000000e+08	1.738627e+14	0.000000e+00	5.781250e-01	2.000714e+15	2.827394e+15	2.782165e+14	1.697532e+04	6.356755e+03	3.099184e+03	0	1.818616e-03
5.100000e+08	1.689522e+14	0.000000e+00	5.781250e-01	1.951253e+15	2.764041e+15	2.768252e+14	1.688980e+04	6.341097e+03	3.091549e+03	0	1.801331e-03
5.200000e+08	1.642447e+14	0.000000e+00	5.781250e-01	1.903812e+15	2.703195e+15	2.754438e+14	1.680637e+04	6.325785e+03	3.084084e+03	0	1.784443e-03
5.300000e+08	1.597289e+14	0.000000e+00	5.781250e-01	1.858277e+15	2.644719e+15	2.740723e+14	1.672496e+04	6.310805e+03	3.076781e+03	0	1.767937e-03
5.400000e+08	1.553942e+14	0.000000e+00	5.781250e-01	1.814544e+15	2.588485e+15	2.727106e+14	1.664548e+04	6.296147e+03	3.069634e+03	0	1.751797e-03
5.500000e+08	1.512306e+14	0.000000e+00	5.781250e-01	1.772515e+15	2.534372e+15	2.713585e+14	1.656785e+04	6.281798e+03	3.062639e+03	0	1.736010e-03
5.600000e+08	1.472290e+14	0.000000e+00	5.781250e-01	1.732099e+15	2.482270e+15	2.700160e+14	1.649201e+04	6.267747e+03	3.055788e+03	0	1.720561e-03
5.700000e+08	1.433808e+14	0.000000e+00	5.781250e-01	1.693210e+15	2.432074e+15	2.686831e+14	1.641789e+04	6.253985e+03	3.049078e+03	0	1.705438e-03
5.800000e+08	1.396780e+14	0.000000e+00	5.781250e-01	1.655771e+15	2.383687e+15	2.673597e+14	1.634541e+04	6.240500e+03	3.042504e+03	0	1.690629e-03
5.900000e+08	1.361131e+14	0.000000e+00	5.781250e-01	1.619706e+15	2.337019e+15	2.660456e+14	1.627453e+04	6.227284e+03	3.036061e+03	0	1.676122e-03
6.000000e+08	1.326791e+14	0.000000e+00	5.781250e-01	1.584946e+15	2.291982e+15	2.647408e+14	1.620519e+04	6.214327e+03	3.029744e+03	0	1.661906e-03
6.100000e+08	1.293695e+14	0.000000e+00	5.781250e-01	1.551426e+15	2.248498e+15	2.634453e+14	1.613732e+04	6.201621e+03	3.023549e+03	0	1.647971e-03
6.200000e+08	1.261780e+14	0.000000e+00	5.781250e-01	1.519086e+15	2.206492e+15	2.621589e+14	1.607087e+04	6.189157e+03	3.017472e+03	0	1.634306e-03
6.300000e+08	1.230990e+14	0.000000e+00	5.781250e-01	1.487868e+15	2.165894e+15	2.608815e+14	1.600580e+04	6.176928e+03	3.011510e+03	0	1.620903e-03
6.400000e+08	1.201271e+14	0.000000e+00	5.781250e-01	1.457719e+15	2.126636e+15	2.596132e+14	1.594206e+04	6.164926e+03	3.005659e+03	0	1.607753e-03
6.500000e+08	1.172571e+14	0.000000e+00	5.781250e-01	1.428588e+15	2.088657e+15	2.583539e+14	1.587961e+04	6.153145e+03	2.999915e+03	0	1.594846e-03
6.600000e+08	1.144844e+14	0.000000e+00	5.781250e-01	1.400428e+15	2.051899e+15	2.571034e+14	1.581839e+04	6.141576e+03	2.994274e+03	0	1.582174e-03
6.700000e+08	1.118043e+14	0.000000e+00	5.781250e-01	1.373195e+15	2.016305e+15	2.558616e+14	1.575837e+04	6.130214e+03	2.988735e+03	0	1.569730e-03
6.800000e+08	1.092127e+14	0.000000e+00	5.781250e-01	1.346845e+15	1.981825e+15	2.546287e+14	1.569951e+04	6.119051e+03	2.983293e+03	0	1.557507e-03
6.900000e+08	1.067056e+14	0.000000e+00	5.781250e-01	1.321340e+15	1.948409e+15	2.534043e+14	1.564178e+04	6.108084e+03	2.977946e+03	0	1.545496e-03
7.000000e+08	1.042792e+14	0.000000e+00	5.781250e-01	1.296643e+15	1.916011e+15	2.521885e+14	1.558513e+04	6.097304e+03	2.972690e+03	0	1.533692e-03
7.100000e+08	1.019299e+14	0.000000e+00	5.781250e-01	1.272717e+15	1.884586e+15	2.509813e+14	1.552953e+04	6.086707e+03	2.967524e+03	0	1.522087e-03
7.200000e+08	9.965450e+13	0.000000e+00	5.781250e-01	1.249531e+15	1.854095e+15	2.497825e+14	1.547495e+04	6.076288e+03	2.962444e+03	0	1.510676e-03
7.300000e+08	9.744972e+13	0.000000e+00	5.781250e-01	1.227051e+15	1.824497e+15	2.485921e+14	1.542136e+04	6.066041e+03	2.957448e+03	0	1.499451e-03
7.400000e+08	9.531258e+13	0.000000e+00	5.781250e-01	1.205249e+15	1.795755e+15	2.474099e+14	1.536873e+04	6.055961e+03	2.952534e+03	0	1.488409e-03
7.500000e+08	9.324024e+13	0.000000e+00	5.781250e-01	1.184096e+15	1.767835e+15	2.462360e+14	1.531703e+04	6.046045e+03	2.947699e+03	0	1.477543e-03
7.600000e+08	9.123002e+13	0.000000e+00	5.781250e-01	1.163566e+15	1.740703e+15	2.450703e+14	1.526623e+04	6.036286e+03	2.942941e+03	0	1.466847e-03
7.700000e+08	8.927936e+13	0.000000e+00	5.781250e-01	1.143633e+15	1.714328e+15	2.439127e+14	1.521631e+04	6.026681e+03	2.938259e+03	0	1.456317e-03
7.800000e+08	8.738586e+13	0.000000e+00	5.781250e-01	1.124272e+15	1.688680e+15	2.427632e+14	1.516724e+04	6.017226e+03	2.933649e+03	0	1.445948e-03
7.900000e+08	8.554722e+13	0.000000e+00	5.781250e-01	1.105462e+15	1.663729e+15	2.416216e+14	1.511899e+04	6.007917e+03	2.929110e+03	0	1.435735e-03
8.000000e+08	8.376127e+13	0.000000e+00	5.781250e-01	1.087181e+15	1.639450e+15	2.404880e+14	1.507155e+04	5.998749e+03	2.924640e+03	0	1.425673e-03
8.100000e+08	8.202594e+13	0.000000e+00	5.781250e-01	1.069408e+15	1.615817e+15	2.393622e+14	1.502488e+04	5.989719e+03	2.920238e+03	0	1.415759e-03
8.200000e+08	8.033926e+13	0.000000e+00	5.781250e-01	1.052123e+15	1.592805e+15	2.382442e+14	1.497898e+04	5.980823e+03	2.915901e+03	0	1.405988e-03
8.300000e+08	7.869937e+13	0.000000e+00	5.781250e-01	1.035308e+15	1.570391e+15	2.371339e+14	1.493381e+04	5.972059e+03	2.911628e+03	0	1.396355e-03
8.400000e+08	7.710449e+13	0.000000e+00	5.781250e-01	1.018945e+15	1.548553e+15	2.360313e+14	1.488936e+04	5.963422e+03	2.907417e+03	0	1.386858e-03
8.500000e+08	7.555293e+13	0.000000e+00	5.781250e-01	1.003018e+15	1.527269e+15	2.349363e+14	1.484561e+04	5.954909e+03	2.903267e+03	0	1.377493e-03
8.600000e+08	7.404307e+13	0.000000e+00	5.781250e-01	9.875100e+14	1.506521e+15	2.338489e+14	1.480254e+04	5.946518e+03	2.899175e+03	0	1.368255e-03
8.700000e+08	7.257338e+13	0.000000e+00	5.781250e-01	9.724058e+14	1.486288e+15	2.327689e+14	1.476014e+04	5.938244e+03	2.895142e+03	0	1.359141e-03
8.800000e+08	7.114240e+13	0.000000e+00	5.781250e-01	9.576910e+14	1.466552e+15	2.316964e+14	1.471838e+04	5.930086e+03	2.891164e+03	0	1.350149e-03
8.900000e+08	6.974873e+13	0.000000e+00	5.781250e-01	9.433516e+14	1.447295e+15	2.306312e+14	1.467724e+04	5.922041e+03	2.887242e+03	0	1.341274e-03
9.000000e+08	6.839103e+13	0.000000e+00	5.781250e-01	9.293743e+14	1.428502e+15	2.295734e+14	1.463672e+04	5.914105e+03	2.883373e+03	0	1.332514e-03
9.100000e+08	6.706803e+13	0.000000e+00	5.781250e-01	9.157464e+14	1.410157e+15	2.285228e+14	1.459680e+04	5.906276e+03	2.879556e+03	0	1.323866e-03
9.200000e+08	6.577853e+13	0.000000e+00	5.781250e-01	9.024558e+14	1.392243e+15	2.274794e+14	1.455746e+04	5.898552e+03	2.875790e+03	0	1.315327e-03
9.300000e+08	6.452134e+13	0.000000e+00	5.781250e-01	8.894910e+14	1.374747e+15	2.264431e+14	1.451869e+04	5.890930e+03	2.872074e+03	0	1.306893e-03
9.400000e+08	6.329537e+13	0.000000e+00	5.781250e-01	8.768407e+14	1.357654e+15	2.254139e+14	1.448047e+04	5.883408e+03	2.868407e+03	0	1.298563e-03
9.500000e+08	6.209956e+13	0.000000e+00	5.781250e-01	8.644944e+14	1.340951e+15	2.243918e+14	1.444280e+04	5.875983e+03	2.864787e+03	0	1.290333e-03
9.600000e+08	6.093287e+13	0.000000e+00	5.781250e-01	8.524419e+14	1.324626e+15	2.233766e+14	1.440565e+04	5.868654e+03	2.861214e+03	0	1.282201e-03
9.700000e+08	5.979435e+13	0.000000e+00	5.781250e-01	8.406735e+14	1.308666e+15	2.223683e+14	1.436901e+04	5.861417e+03	2.857686e+03	0	1.274165e-03
9.800000e+08	5.868306e+13	0.000000e+00	5.781250e-01	8.291799e+14	1.293059e+15	2.213669e+14	1.433288e+04	5.854272e+03	2.854202e+03	0	1.266222e-03
9.900000e+08	5.759810e+13	0.000000e+00	5.781250e-01	8.179522e+14	1.277795e+15	2.203723e+14	1.429725e+04	5.847216e+03	2.850762e+03	0	1.258370e-03
1.000000e+09	5.653863e+13	0.000000e+00	5.781250e-01	8.069818e+14	1.262862e+15	2.193844e+14	1.426209e+04	5.840246e+03	2.847364e+03	0	1.250606e-03
1.010000e+09	5.550381e+13	0.000000e+00	5.781250e-01	7.962605e+14	1.248250e+15	2.184033e+14	1.422740e+04	5.833362e+03	2.844008e+03	0	1.242929e-03
1.020000e+09	5.449287e+13	0.000000e+00	5.781250e-01	7.857804e+14	1.233949e+15	2.174287e+14	1.419317e+04	5.826561e+03	2.840692e+03	0	1.235337e-03
1.030000e+09	5.350504e+13	0.000000e+00	5.781250e-01	7.755339e+14	1.219950e+15	2.164608e+14	1.415939e+04	5.819842e+03	2.837416e+03	0	1.227827e-03
1.040000e+09	5.253960e+13	0.000000e+00	5.781250e-01	7.655139e+14	1.206243e+15	2.154994e+14	1.412605e+04	5.813203e+03	2.834179e+03	0	1.220397e-03
1.050000e+09	5.159586e+13	0.000000e+00	5.781250e-01	7.557133e+14	1.192821e+15	2.145446e+14	1.409314e+04	5.806641e+03	2.830980e+03	0	1.213046e-03
1.060000e+09	5.067314e+13	0.000000e+00	5.781250e-01	7.461255e+14	1.179673e+15	2.135961e+14	1.406064e+04	5.800156e+03	2.827818e+03	0	1.205771e-03
1.070000e+09	4.977081e+13	0.000000e+00	5.781250e-01	7.367439e+14	1.166792e+15	2.126541e+14	1.402856e+04	5.793746e+03	2.824693e+03	0	1.198571e-03
1.080000e+09	4.888824e+13	0.000000e+00	5.781250e-01	7.275625e+14	1.154171e+15	2.117184e+14	1.399688e+04	5.787410e+03	2.821604e+03	0	1.191444e-03
1.090000e+09	4.802485e+13	0.000000e+00	5.781250e-01	7.185752e+14	1.141802e+15	2.107889e+14	1.396559e+04	5.781145e+03	2.818549e+03	0	1.184389e-03
1.100000e+09	4.718005e+13	0.000000e+00	5.781250e-01	7.097764e+14	1.129677e+15	2.098657e+14	1.393469e+04	5.774951e+03	2.815529e+03	0	1.177403e-03
1.110000e+09	4.635331e+13	0.000000e+00	5.781250e-01	7.011605e+14	1.117789e+15	2.089488e+14	1.390416e+04	5.768825e+03	2.812543e+03	0	1.170485e-03
1.120000e+09	4.554408e+13	0.000000e+00	5.781250e-01	6.927222e+14	1.106133e+15	2.080379e+14	1.387401e+04	5.762767e+03	2.809590e+03	0	1.163633e-03
1.130000e+09	4.475187e+13	0.000000e+00	5.781250e-01	6.844565e+14	1.094701e+15	2.071332e+14	1.384421e+04	5.756776e+03	2.806669e+03	0	1.156847e-03
1.140000e+09	4.397618e+13	0.000000e+00	5.781250e-01	6.763583e+14	1.083486e+15	2.062344e+14	1.381477e+04	5.750850e+03	2.803779e+03	0	1.150124e-03
1.150000e+09	4.321654e+13	0.000000e+00	5.781250e-01	6.684230e+14	1.072484e+15	2.053417e+14	1.378567e+04	5.744987e+03	2.800921e+03	0	1.143463e-03
1.160000e+09	4.247248e+13	0.000000e+00	5.781250e-01	6.606460e+14	1.061689e+15	2.044550e+14	1.375692e+04	5.739187e+03	2.798093e+03	0	1.136863e-03
1.170000e+09	4.174359e+13	0.000000e+00	5.781250e-01	6.530229e+14	1.051094e+15	2.035741e+14	1.372850e+04	5.733448e+03	2.795295e+03	0	1.130322e-03
1.180000e+09	4.102942e+13	0.000000e+00	5.781250e-01	6.455493e+14	1.040694e+15	2.026992e+14	1.370040e+04	5.727770e+03	2.792527e+03	0	1.123839e-03
1.190000e+09	4.032957e+13	0.000000e+00	5.781250e-01	6.382213e+14	1.030484e+15	2.018300e+14	1.367263e+04	5.722150e+03	2.789787e+03	0	1.117412e-03
1.200000e+09	3.964365e+13	0.000000e+00	5.781250e-01	6.310349e+14	1.020460e+15	2.009666e+14	1.364517e+04	5.716588e+03	2.787075e+03	0	1.111041e-03
1.210000e+09	3.897128e+13	0.000000e+00	5.781250e-01	6.239861e+14	1.010615e+15	2.001089e+14	1.361802e+04	5.711084e+03	2.784392e+03	0	1.104724e-03
1.220000e+09	3.831209e+13	0.000000e+00	5.781250e-01	6.170715e+14	1.000947e+15	1.992569e+14	1.359117e+04	5.705635e+03	2.781735e+03	0	1.098460e-03
1.230000e+09	3.766572e+13	0.000000e+00	5.781250e-01	6.102873e+14	9.914487e+14	1.984106e+14	1.356461e+04	5.700241e+03	2.779105e+03	0	1.092247e-03
1.240000e+09	3.703183e+13	0.000000e+00	5.781250e-01	6.036302e+14	9.821175e+14	1.975698e+14	1.353835e+04	5.694900e+03	2.776501e+03	0	1.086085e-03
1.250000e+09	3.641010e+13	0.000000e+00	5.781250e-01	5.970968e+14	9.729486e+14	1.967346e+14	1.351237e+04	5.689613e+03	2.773924e+03	0	1.079973e-03
1.260000e+09	3.580020e+13	0.000000e+00	5.781250e-01	5.906839e+14	9.639379e+14	1.959049e+14	1.348667e+04	5.684377e+03	2.771371e+03	0	1.073909e-03
1.270000e+09	3.520182e+13	0.000000e+00	5.781250e-01	5.843884e+14	9.550816e+14	1.950807e+14	1.346125e+04	5.679193e+03	2.768843e+03	0	1.067892e-03
1.280000e+09	3.461467e+13	0.000000e+00	5.781250e-01	5.782073e+14	9.463757e+14	1.942619e+14	1.343610e+04	5.674058e+03	2.766340e+03	0	1.061921e-03
1.290000e+09	3.403845e+13	0.000000e+00	5.781250e-01	5.721376e+14	9.378166e+14	1.934485e+14	1.341121e+04	5.668973e+03	2.763861e+03	0	1.055996e-03
1.300000e+09	3.347288e+13	0.000000e+00	5.781250e-01	5.661767e+14	9.294007e+14	1.926404e+14	1.338659e+04	5.663936e+03	2.761405e+03	0	1.050114e-03
1.310000e+09	3.291771e+13	0.000000e+00	5.781250e-01	5.603217e+14	9.211244e+14	1.918376e+14	1.336222e+04	5.658947e+03	2.758973e+03	0	1.044276e-03
1.320000e+09	3.237266e+13	0.000000e+00	5.781250e-01	5.545700e+14	9.129845e+14	1.910400e+14	1.333810e+04	5.654004e+03	2.756563e+03	0	1.038480e-03
1.330000e+09	3.183747e+13	0.000000e+00	5.781250e-01	5.489190e+14	9.049776e+14	1.902477e+14	1.331422e+04	5.649108e+03	2.754176e+03	0	1.032726e-03
1.340000e+09	3.131192e+13	0.000000e+00	5.781250e-01	5.433664e+14	8.971006e+14	1.894606e+14	1.329059e+04	5.644256e+03	2.751810e+03	0	1.027012e-03
1.350000e+09	3.079575e+13	0.000000e+00	5.781250e-01	5.379096e+14	8.893504e+14	1.886786e+14	1.326720e+04	5.639449e+03	2.749467e+03	0	1.021337e-03
1.360000e+09	3.028874e+13	0.000000e+00	5.781250e-01	5.325465e+14	8.817241e+14	1.879017e+14	1.324404e+04	5.634686e+03	2.747144e+03	0	1.015701e-03
