#t		Qconv[W]	Ri[Rp]		R*[Rp]		Qc[W]		Qm[W]		Qr[W]		Tcmb[K]		Tl[K]		Tup[K]		RiFlag		Bs[T]
0.000000e+00	1.686606e+14	0.000000e+00	5.793652e-01	2.005669e+15	1.504922e+15	3.873913e+14	1.954909e+04	4.959161e+03	2.967992e+03	0	1.821091e-03
1.000000e+07	1.653176e+14	0.000000e+00	5.793652e-01	1.972519e+15	1.544407e+15	3.852449e+14	1.947021e+04	4.981442e+03	2.981328e+03	0	1.808979e-03
2.000000e+07	1.620201e+14	0.000000e+00	5.793652e-01	1.939826e+15	1.580415e+15	3.831145e+14	1.939264e+04	5.001837e+03	2.993534e+03	0	1.796870e-03
3.000000e+07	1.587705e+14	0.000000e+00	5.793652e-01	1.907611e+15	1.612990e+15	3.810000e+14	1.931633e+04	5.020448e+03	3.004672e+03	0	1.784776e-03
4.000000e+07	1.555707e+14	0.000000e+00	5.793652e-01	1.875890e+15	1.642206e+15	3.789014e+14	1.924129e+04	5.037373e+03	3.014802e+03	0	1.772704e-03
5.000000e+07	1.524223e+14	0.000000e+00	5.793652e-01	1.844682e+15	1.668160e+15	3.768183e+14	1.916749e+04	5.052713e+03	3.023983e+03	0	1.760665e-03
6.000000e+07	1.493270e+14	0.000000e+00	5.793652e-01	1.813997e+15	1.690972e+15	3.747508e+14	1.909490e+04	5.066565e+03	3.032272e+03	0	1.748665e-03
7.000000e+07	1.462857e+14	0.000000e+00	5.793652e-01	1.783848e+15	1.710775e+15	3.726987e+14	1.902352e+04	5.079021e+03	3.039727e+03	0	1.736712e-03
8.000000e+07	1.432996e+14	0.000000e+00	5.793652e-01	1.754242e+15	1.727713e+15	3.706619e+14	1.895331e+04	5.090172e+03	3.046401e+03	0	1.724813e-03
9.000000e+07	1.403692e+14	0.000000e+00	5.793652e-01	1.725186e+15	1.741941e+15	3.686402e+14	1.888426e+04	5.100104e+03	3.052345e+03	0	1.712975e-03
1.000000e+08	1.374952e+14	0.000000e+00	5.793652e-01	1.696685e+15	1.753616e+15	3.666335e+14	1.881635e+04	5.108901e+03	3.057610e+03	0	1.701203e-03
1.100000e+08	1.346777e+14	0.000000e+00	5.793652e-01	1.668740e+15	1.762896e+15	3.646418e+14	1.874955e+04	5.116640e+03	3.062242e+03	0	1.689503e-03
1.200000e+08	1.319169e+14	0.000000e+00	5.793652e-01	1.641351e+15	1.769941e+15	3.626647e+14	1.868385e+04	5.123397e+03	3.066286e+03	0	1.677879e-03
1.300000e+08	1.292128e+14	0.000000e+00	5.793652e-01	1.614519e+15	1.774909e+15	3.607023e+14	1.861921e+04	5.129242e+03	3.069784e+03	0	1.666335e-03
1.400000e+08	1.265651e+14	0.000000e+00	5.793652e-01	1.588241e+15	1.777951e+15	3.587545e+14	1.855563e+04	5.134242e+03	3.072776e+03	0	1.654874e-03
1.500000e+08	1.239735e+14	0.000000e+00	5.793652e-01	1.562512e+15	1.779217e+15	3.568210e+14	1.849308e+04	5.138459e+03	3.075300e+03	0	1.643501e-03
1.600000e+08	1.214375e+14	0.000000e+00	5.793652e-01	1.537329e+15	1.778849e+15	3.549018e+14	1.843153e+04	5.141951e+03	3.077390e+03	0	1.632218e-03
1.700000e+08	1.189566e+14	0.000000e+00	5.793652e-01	1.512685e+15	1.776984e+15	3.529968e+14	1.837097e+04	5.144775e+03	3.079080e+03	0	1.621026e-03
1.800000e+08	1.165302e+14	0.000000e+00	5.793652e-01	1.488573e+15	1.773750e+15	3.511058e+14	1.831137e+04	5.146980e+03	3.080400e+03	0	1.609928e-03
1.900000e+08	1.141574e+14	0.000000e+00	5.793652e-01	1.464987e+15	1.769270e+15	3.492288e+14	1.825272e+04	5.148616e+03	3.081379e+03	0	1.598926e-03
2.000000e+08	1.118375e+14	0.000000e+00	5.793652e-01	1.441919e+15	1.763659e+15	3.473656e+14	1.819500e+04	5.149726e+03	3.082043e+03	0	1.588021e-03
2.100000e+08	1.095696e+14	0.000000e+00	5.793652e-01	1.419359e+15	1.757026e+15	3.455160e+14	1.813817e+04	5.150352e+03	3.082418e+03	0	1.577213e-03
2.200000e+08	1.073527e+14	0.000000e+00	5.793652e-01	1.397299e+15	1.749470e+15	3.436801e+14	1.808223e+04	5.150533e+03	3.082526e+03	0	1.566504e-03
2.300000e+08	1.051861e+14	0.000000e+00	5.793652e-01	1.375730e+15	1.741085e+15	3.418576e+14	1.802716e+04	5.150305e+03	3.082390e+03	0	1.555894e-03
2.400000e+08	1.030686e+14	0.000000e+00	5.793652e-01	1.354641e+15	1.731960e+15	3.400485e+14	1.797293e+04	5.149701e+03	3.082028e+03	0	1.545382e-03
2.500000e+08	1.009993e+14	0.000000e+00	5.793652e-01	1.334024e+15	1.722174e+15	3.382526e+14	1.791953e+04	5.148752e+03	3.081460e+03	0	1.534970e-03
2.600000e+08	9.897713e+13	0.000000e+00	5.793652e-01	1.313868e+15	1.711802e+15	3.364699e+14	1.786694e+04	5.147486e+03	3.080703e+03	0	1.524657e-03
2.700000e+08	9.700108e+13	0.000000e+00	5.793652e-01	1.294162e+15	1.700914e+15	3.347002e+14	1.781513e+04	5.145930e+03	3.079771e+03	0	1.514442e-03
2.800000e+08	9.507011e+13	0.000000e+00	5.793652e-01	1.274897e+15	1.689572e+15	3.329435e+14	1.776410e+04	5.144108e+03	3.078681e+03	0	1.504325e-03
2.900000e+08	9.318318e+13	0.000000e+00	5.793652e-01	1.256063e+15	1.677835e+15	3.311995e+14	1.771383e+04	5.142043e+03	3.077445e+03	0	1.494306e-03
3.000000e+08	9.133924e+13	0.000000e+00	5.793652e-01	1.237649e+15	1.665756e+15	3.294683e+14	1.766429e+04	5.139756e+03	3.076077e+03	0	1.484384e-03
3.100000e+08	8.953727e+13	0.000000e+00	5.793652e-01	1.219646e+15	1.653383e+15	3.277497e+14	1.761548e+04	5.137267e+03	3.074587e+03	0	1.474557e-03
3.200000e+08	8.777623e+13	0.000000e+00	5.793652e-01	1.202043e+15	1.640763e+15	3.260436e+14	1.756737e+04	5.134593e+03	3.072986e+03	0	1.464826e-03
3.300000e+08	8.605512e+13	0.000000e+00	5.793652e-01	1.184831e+15	1.627934e+15	3.243498e+14	1.751995e+04	5.131750e+03	3.071285e+03	0	1.455189e-03
3.400000e+08	8.437293e+13	0.000000e+00	5.793652e-01	1.167999e+15	1.614935e+15	3.226684e+14	1.747321e+04	5.128755e+03	3.069492e+03	0	1.445644e-03
3.500000e+08	8.272867e+13	0.000000e+00	5.793652e-01	1.151539e+15	1.601799e+15	3.209992e+14	1.742713e+04	5.125620e+03	3.067616e+03	0	1.436192e-03
3.600000e+08	8.112136e+13	0.000000e+00	5.793652e-01	1.135440e+15	1.588556e+15	3.193421e+14	1.738170e+04	5.122360e+03	3.065665e+03	0	1.426830e-03
3.700000e+08	7.955006e+13	0.000000e+00	5.793652e-01	1.119693e+15	1.575235e+15	3.176970e+14	1.733690e+04	5.118986e+03	3.063646e+03	0	1.417557e-03
3.800000e+08	7.801383e+13	0.000000e+00	5.793652e-01	1.104290e+15	1.561861e+15	3.160638e+14	1.729272e+04	5.115509e+03	3.061565e+03	0	1.408373e-03
3.900000e+08	7.651174e+13	0.000000e+00	5.793652e-01	1.089221e+15	1.548456e+15	3.144424e+14	1.724914e+04	5.111939e+03	3.059428e+03	0	1.399275e-03
4.000000e+08	7.504291e+13	0.000000e+00	5.793652e-01	1.074477e+15	1.535041e+15	3.128327e+14	1.720615e+04	5.108286e+03	3.057242e+03	0	1.390263e-03
4.100000e+08	7.360644e+13	0.000000e+00	5.793652e-01	1.060051e+15	1.521634e+15	3.112347e+14	1.716375e+04	5.104559e+03	3.055012e+03	0	1.381335e-03
4.200000e+08	7.220149e+13	0.000000e+00	5.793652e-01	1.045933e+15	1.508252e+15	3.096481e+14	1.712191e+04	5.100766e+03	3.052741e+03	0	1.372490e-03
4.300000e+08	7.082722e+13	0.000000e+00	5.793652e-01	1.032116e+15	1.494909e+15	3.080730e+14	1.708062e+04	5.096913e+03	3.050436e+03	0	1.363726e-03
4.400000e+08	6.948280e+13	0.000000e+00	5.793652e-01	1.018592e+15	1.481620e+15	3.065092e+14	1.703988e+04	5.093008e+03	3.048099e+03	0	1.355042e-03
4.500000e+08	6.816745e+13	0.000000e+00	5.793652e-01	1.005352e+15	1.468396e+15	3.049566e+14	1.699967e+04	5.089058e+03	3.045734e+03	0	1.346437e-03
4.600000e+08	6.688039e+13	0.000000e+00	5.793652e-01	9.923903e+14	1.455247e+15	3.034152e+14	1.695998e+04	5.085067e+03	3.043346e+03	0	1.337909e-03
4.700000e+08	6.562087e+13	0.000000e+00	5.793652e-01	9.796983e+14	1.442184e+15	3.018848e+14	1.692079e+04	5.081041e+03	3.040937e+03	0	1.329457e-03
4.800000e+08	6.438815e+13	0.000000e+00	5.793652e-01	9.672691e+14	1.429214e+15	3.003654e+14	1.688211e+04	5.076986e+03	3.038510e+03	0	1.321080e-03
4.900000e+08	6.318151e+13	0.000000e+00	5.793652e-01	9.550959e+14	1.416344e+15	2.988569e+14	1.684392e+04	5.072906e+03	3.036067e+03	0	1.312775e-03
5.000000e+08	6.200027e+13	0.000000e+00	5.793652e-01	9.431719e+14	1.403581e+15	2.973592e+14	1.680620e+04	5.068804e+03	3.033613e+03	0	1.304543e-03
5.100000e+08	6.084375e+13	0.000000e+00	5.793652e-01	9.314906e+14	1.390931e+15	2.958722e+14	1.676896e+04	5.064685e+03	3.031147e+03	0	1.296380e-03
5.200000e+08	5.971130e+13	0.000000e+00	5.793652e-01	9.200456e+14	1.378398e+15	2.943957e+14	1.673217e+04	5.060552e+03	3.028674e+03	0	1.288287e-03
5.300000e+08	5.860227e+13	0.000000e+00	5.793652e-01	9.088307e+14	1.365988e+15	2.929298e+14	1.669583e+04	5.056409e+03	3.026195e+03	0	1.280261e-03
5.400000e+08	5.751605e+13	0.000000e+00	5.793652e-01	8.978399e+14	1.353702e+15	2.914744e+14	1.665994e+04	5.052259e+03	3.023711e+03	0	1.272302e-03
5.500000e+08	5.645204e+13	0.000000e+00	5.793652e-01	8.870674e+14	1.341544e+15	2.900293e+14	1.662447e+04	5.048104e+03	3.021224e+03	0	1.264407e-03
5.600000e+08	5.540965e+13	0.000000e+00	5.793652e-01	8.765075e+14	1.329517e+15	2.885945e+14	1.658943e+04	5.043946e+03	3.018736e+03	0	1.256576e-03
5.700000e+08	5.438833e+13	0.000000e+00	5.793652e-01	8.661547e+14	1.317623e+15	2.871699e+14	1.655481e+04	5.039789e+03	3.016248e+03	0	1.248808e-03
5.800000e+08	5.338751e+13	0.000000e+00	5.793652e-01	8.560036e+14	1.305863e+15	2.857553e+14	1.652059e+04	5.035635e+03	3.013761e+03	0	1.241101e-03
5.900000e+08	5.240668e+13	0.000000e+00	5.793652e-01	8.460490e+14	1.294239e+15	2.843508e+14	1.648678e+04	5.031484e+03	3.011277e+03	0	1.233453e-03
6.000000e+08	5.144530e+13	0.000000e+00	5.793652e-01	8.362860e+14	1.282751e+15	2.829563e+14	1.645335e+04	5.027340e+03	3.008797e+03	0	1.225864e-03
6.100000e+08	5.050288e+13	0.000000e+00	5.793652e-01	8.267096e+14	1.271400e+15	2.815716e+14	1.642031e+04	5.023203e+03	3.006321e+03	0	1.218332e-03
6.200000e+08	4.957893e+13	0.000000e+00	5.793652e-01	8.173152e+14	1.260186e+15	2.801967e+14	1.638764e+04	5.019076e+03	3.003851e+03	0	1.210857e-03
6.300000e+08	4.867298e+13	0.000000e+00	5.793652e-01	8.080980e+14	1.249110e+15	2.788315e+14	1.635535e+04	5.014959e+03	3.001387e+03	0	1.203436e-03
6.400000e+08	4.778458e+13	0.000000e+00	5.793652e-01	7.990537e+14	1.238171e+15	2.774759e+14	1.632342e+04	5.010854e+03	2.998930e+03	0	1.196069e-03
6.500000e+08	4.691326e+13	0.000000e+00	5.793652e-01	7.901778e+14	1.227370e+15	2.761299e+14	1.629184e+04	5.006762e+03	2.996481e+03	0	1.188755e-03
6.600000e+08	4.605861e+13	0.000000e+00	5.793652e-01	7.814663e+14	1.216704e+15	2.747934e+14	1.626061e+04	5.002684e+03	2.994041e+03	0	1.181492e-03
6.700000e+08	4.522020e+13	0.000000e+00	5.793652e-01	7.729149e+14	1.206175e+15	2.734662e+14	1.622973e+04	4.998622e+03	2.991609e+03	0	1.174279e-03
6.800000e+08	4.439763e+13	0.000000e+00	5.793652e-01	7.645199e+14	1.195780e+15	2.721484e+14	1.619918e+04	4.994575e+03	2.989188e+03	0	1.167115e-03
6.900000e+08	4.359050e+13	0.000000e+00	5.793652e-01	7.562772e+14	1.185520e+15	2.708398e+14	1.616897e+04	4.990545e+03	2.986776e+03	0	1.159999e-03
7.000000e+08	4.279843e+13	0.000000e+00	5.793652e-01	7.481832e+14	1.175392e+15	2.695404e+14	1.613908e+04	4.986532e+03	2.984374e+03	0	1.152930e-03
7.100000e+08	4.202105e+13	0.000000e+00	5.793652e-01	7.402342e+14	1.165396e+15	2.682501e+14	1.610950e+04	4.982538e+03	2.981983e+03	0	1.145907e-03
7.200000e+08	4.125800e+13	0.000000e+00	5.793652e-01	7.324268e+14	1.155531e+15	2.669688e+14	1.608024e+04	4.978562e+03	2.979604e+03	0	1.138929e-03
7.300000e+08	4.050892e+13	0.000000e+00	5.793652e-01	7.247575e+14	1.145795e+15	2.656964e+14	1.605129e+04	4.974605e+03	2.977236e+03	0	1.131994e-03
7.400000e+08	3.977348e+13	0.000000e+00	5.793652e-01	7.172230e+14	1.136187e+15	2.644330e+14	1.602264e+04	4.970668e+03	2.974879e+03	0	1.125101e-03
7.500000e+08	3.905135e+13	0.000000e+00	5.793652e-01	7.098202e+14	1.126706e+15	2.631783e+14	1.599429e+04	4.966750e+03	2.972535e+03	0	1.118251e-03
7.600000e+08	3.834220e+13	0.000000e+00	5.793652e-01	7.025457e+14	1.117349e+15	2.619324e+14	1.596622e+04	4.962853e+03	2.970203e+03	0	1.111440e-03
7.700000e+08	3.764573e+13	0.000000e+00	5.793652e-01	6.953967e+14	1.108116e+15	2.606952e+14	1.593845e+04	4.958977e+03	2.967883e+03	0	1.104669e-03
7.800000e+08	3.696164e+13	0.000000e+00	5.793652e-01	6.883702e+14	1.099005e+15	2.594665e+14	1.591096e+04	4.955122e+03	2.965575e+03	0	1.097937e-03
7.900000e+08	3.628962e+13	0.000000e+00	5.793652e-01	6.814633e+14	1.090014e+15	2.582464e+14	1.588374e+04	4.951288e+03	2.963281e+03	0	1.091242e-03
8.000000e+08	3.562940e+13	0.000000e+00	5.793652e-01	6.746732e+14	1.081143e+15	2.570348e+14	1.585679e+04	4.947475e+03	2.960999e+03	0	1.084584e-03
8.100000e+08	3.498070e+13	0.000000e+00	5.793652e-01	6.679973e+14	1.072388e+15	2.558315e+14	1.583012e+04	4.943684e+03	2.958730e+03	0	1.077962e-03
8.200000e+08	3.434326e+13	0.000000e+00	5.793652e-01	6.614329e+14	1.063749e+15	2.546366e+14	1.580370e+04	4.939915e+03	2.956474e+03	0	1.071374e-03
8.300000e+08	3.371680e+13	0.000000e+00	5.793652e-01	6.549774e+14	1.055224e+15	2.534499e+14	1.577755e+04	4.936168e+03	2.954231e+03	0	1.064819e-03
8.400000e+08	3.310107e+13	0.000000e+00	5.793652e-01	6.486284e+14	1.046811e+15	2.522715e+14	1.575165e+04	4.932442e+03	2.952002e+03	0	1.058298e-03
8.500000e+08	3.249584e+13	0.000000e+00	5.793652e-01	6.423835e+14	1.038508e+15	2.511011e+14	1.572600e+04	4.928739e+03	2.949785e+03	0	1.051808e-03
8.600000e+08	3.190085e+13	0.000000e+00	5.793652e-01	6.362403e+14	1.030315e+15	2.499389e+14	1.570059e+04	4.925057e+03	2.947582e+03	0	1.045349e-03
8.700000e+08	3.131588e+13	0.000000e+00	5.793652e-01	6.301966e+14	1.022229e+15	2.487846e+14	1.567543e+04	4.921398e+03	2.945392e+03	0	1.038920e-03
8.800000e+08	3.074070e+13	0.000000e+00	5.793652e-01	6.242501e+14	1.014249e+15	2.476383e+14	1.565051e+04	4.917761e+03	2.943215e+03	0	1.032520e-03
8.900000e+08	3.017509e+13	0.000000e+00	5.793652e-01	6.183987e+14	1.006373e+15	2.464998e+14	1.562582e+04	4.914146e+03	2.941052e+03	0	1.026148e-03
9.000000e+08	2.961884e+13	0.000000e+00	5.793652e-01	6.126402e+14	9.985997e+14	2.453692e+14	1.560136e+04	4.910553e+03	2.938901e+03	0	1.019803e-03
9.100000e+08	2.907173e+13	0.000000e+00	5.793652e-01	6.069728e+14	9.909272e+14	2.442463e+14	1.557713e+04	4.906982e+03	2.936764e+03	0	1.013485e-03
9.200000e+08	2.853357e+13	0.000000e+00	5.793652e-01	6.013942e+14	9.833541e+14	2.431311e+14	1.555312e+04	4.903433e+03	2.934640e+03	0	1.007192e-03
9.300000e+08	2.800416e+13	0.000000e+00	5.793652e-01	5.959028e+14	9.758788e+14	2.420235e+14	1.552933e+04	4.899906e+03	2.932530e+03	0	1.000924e-03
9.400000e+08	2.748331e+13	0.000000e+00	5.793652e-01	5.904964e+14	9.684997e+14	2.409235e+14	1.550576e+04	4.896401e+03	2.930432e+03	0	9.946801e-04
9.500000e+08	2.697082e+13	0.000000e+00	5.793652e-01	5.851735e+14	9.612154e+14	2.398310e+14	1.548240e+04	4.892918e+03	2.928347e+03	0	9.884586e-04
9.600000e+08	2.646653e+13	0.000000e+00	5.793652e-01	5.799321e+14	9.540243e+14	2.387460e+14	1.545925e+04	4.889456e+03	2.926275e+03	0	9.822591e-04
9.700000e+08	2.597024e+13	0.000000e+00	5.793652e-01	5.747705e+14	9.469249e+14	2.376683e+14	1.543631e+04	4.886017e+03	2.924217e+03	0	9.760808e-04
9.800000e+08	2.548180e+13	0.000000e+00	5.793652e-01	5.696871e+14	9.399157e+14	2.365980e+14	1.541357e+04	4.882598e+03	2.922171e+03	0	9.699228e-04
9.900000e+08	2.500104e+13	0.000000e+00	5.793652e-01	5.646802e+14	9.329954e+14	2.355350e+14	1.539103e+04	4.879201e+03	2.920138e+03	0	9.637841e-04
1.000000e+09	2.452778e+13	0.000000e+00	5.793652e-01	5.597482e+14	9.261624e+14	2.344791e+14	1.536869e+04	4.875825e+03	2.918117e+03	0	9.576641e-04
1.010000e+09	2.406188e+13	0.000000e+00	5.793652e-01	5.548896e+14	9.194153e+14	2.334305e+14	1.534654e+04	4.872471e+03	2.916110e+03	0	9.515617e-04
1.020000e+09	2.360318e+13	0.000000e+00	5.793652e-01	5.501028e+14	9.127528e+14	2.323889e+14	1.532459e+04	4.869137e+03	2.914115e+03	0	9.454761e-04
1.030000e+09	2.315152e+13	0.000000e+00	5.793652e-01	5.453864e+14	9.061735e+14	2.313544e+14	1.530283e+04	4.865824e+03	2.912132e+03	0	9.394066e-04
1.040000e+09	2.270677e+13	0.000000e+00	5.793652e-01	5.407389e+14	8.996760e+14	2.303269e+14	1.528125e+04	4.862532e+03	2.910162e+03	0	9.333521e-04
1.050000e+09	2.226877e+13	0.000000e+00	5.793652e-01	5.361590e+14	8.932589e+14	2.293063e+14	1.525985e+04	4.859261e+03	2.908204e+03	0	9.273120e-04
1.060000e+09	2.183740e+13	0.000000e+00	5.793652e-01	5.316452e+14	8.869211e+14	2.282926e+14	1.523863e+04	4.856010e+03	2.906258e+03	0	9.212852e-04
1.070000e+09	2.141251e+13	0.000000e+00	5.793652e-01	5.271963e+14	8.806612e+14	2.272857e+14	1.521760e+04	4.852779e+03	2.904325e+03	0	9.152709e-04
1.080000e+09	2.099398e+13	0.000000e+00	5.793652e-01	5.228110e+14	8.744779e+14	2.262856e+14	1.519674e+04	4.849569e+03	2.902403e+03	0	9.092682e-04
1.090000e+09	2.058167e+13	0.000000e+00	5.793652e-01	5.184879e+14	8.683699e+14	2.252923e+14	1.517605e+04	4.846379e+03	2.900494e+03	0	9.032763e-04
1.100000e+09	2.017546e+13	0.000000e+00	5.793652e-01	5.142259e+14	8.623362e+14	2.243056e+14	1.515553e+04	4.843208e+03	2.898596e+03	0	8.972943e-04
1.110000e+09	1.977523e+13	0.000000e+00	5.793652e-01	5.100237e+14	8.563754e+14	2.233255e+14	1.513518e+04	4.840057e+03	2.896711e+03	0	8.913212e-04
1.120000e+09	1.938085e+13	0.000000e+00	5.793652e-01	5.058803e+14	8.504863e+14	2.223519e+14	1.511500e+04	4.836926e+03	2.894836e+03	0	8.853563e-04
1.130000e+09	1.899222e+13	0.000000e+00	5.793652e-01	5.017943e+14	8.446679e+14	2.213849e+14	1.509497e+04	4.833814e+03	2.892974e+03	0	8.793985e-04
1.140000e+09	1.860922e+13	0.000000e+00	5.793652e-01	4.977648e+14	8.389190e+14	2.204244e+14	1.507512e+04	4.830721e+03	2.891123e+03	0	8.734469e-04
1.150000e+09	1.823174e+13	0.000000e+00	5.793652e-01	4.937907e+14	8.332384e+14	2.194703e+14	1.505542e+04	4.827647e+03	2.889283e+03	0	8.675006e-04
1.160000e+09	1.785967e+13	0.000000e+00	5.793652e-01	4.898708e+14	8.276251e+14	2.185225e+14	1.503587e+04	4.824592e+03	2.887455e+03	0	8.615588e-04
1.170000e+09	1.749290e+13	0.000000e+00	5.793652e-01	4.860042e+14	8.220779e+14	2.175811e+14	1.501648e+04	4.821556e+03	2.885638e+03	0	8.556203e-04
1.180000e+09	1.713134e+13	0.000000e+00	5.793652e-01	4.821898e+14	8.165959e+14	2.166459e+14	1.499725e+04	4.818539e+03	2.883832e+03	0	8.496842e-04
1.190000e+09	1.677489e+13	0.000000e+00	5.793652e-01	4.784267e+14	8.111779e+14	2.157169e+14	1.497816e+04	4.815540e+03	2.882037e+03	0	8.437497e-04
1.200000e+09	1.642343e+13	0.000000e+00	5.793652e-01	4.747139e+14	8.058229e+14	2.147941e+14	1.495923e+04	4.812559e+03	2.880253e+03	0	8.378156e-04
1.210000e+09	1.607689e+13	0.000000e+00	5.793652e-01	4.710504e+14	8.005300e+14	2.138774e+14	1.494044e+04	4.809596e+03	2.878480e+03	0	8.318809e-04
1.220000e+09	1.573517e+13	0.000000e+00	5.793652e-01	4.674354e+14	7.952982e+14	2.129668e+14	1.492179e+04	4.806651e+03	2.876717e+03	0	8.259446e-04
1.230000e+09	1.539818e+13	0.000000e+00	5.793652e-01	4.638679e+14	7.901264e+14	2.120622e+14	1.490329e+04	4.803724e+03	2.874966e+03	0	8.200057e-04
1.240000e+09	1.506582e+13	0.000000e+00	5.793652e-01	4.603470e+14	7.850138e+14	2.111636e+14	1.488492e+04	4.800814e+03	2.873224e+03	0	8.140630e-04
1.250000e+09	1.473802e+13	0.000000e+00	5.793652e-01	4.568720e+14	7.799594e+14	2.102710e+14	1.486670e+04	4.797922e+03	2.871493e+03	0	8.081155e-04
1.260000e+09	1.441468e+13	0.000000e+00	5.793652e-01	4.534420e+14	7.749622e+14	2.093842e+14	1.484862e+04	4.795047e+03	2.869773e+03	0	8.021620e-04
1.270000e+09	1.409573e+13	0.000000e+00	5.793652e-01	4.500561e+14	7.700215e+14	2.085032e+14	1.483067e+04	4.792190e+03	2.868063e+03	0	7.962014e-04
1.280000e+09	1.378108e+13	0.000000e+00	5.793652e-01	4.467136e+14	7.651363e+14	2.076281e+14	1.481285e+04	4.789349e+03	2.866362e+03	0	7.902324e-04
1.290000e+09	1.347066e+13	0.000000e+00	5.793652e-01	4.434137e+14	7.603057e+14	2.067587e+14	1.479516e+04	4.786525e+03	2.864672e+03	0	7.842540e-04
1.300000e+09	1.316439e+13	0.000000e+00	5.793652e-01	4.401557e+14	7.555289e+14	2.058950e+14	1.477761e+04	4.783718e+03	2.862992e+03	0	7.782647e-04
1.310000e+09	1.286219e+13	0.000000e+00	5.793652e-01	4.369387e+14	7.508050e+14	2.050370e+14	1.476018e+04	4.780927e+03	2.861322e+03	0	7.722633e-04
1.320000e+09	1.256399e+13	0.000000e+00	5.793652e-01	4.337621e+14	7.461333e+14	2.041845e+14	1.474289e+04	4.778152e+03	2.859661e+03	0	7.662485e-04
1.330000e+09	1.226972e+13	0.000000e+00	5.793652e-01	4.306251e+14	7.415130e+14	2.033377e+14	1.472571e+04	4.775394e+03	2.858011e+03	0	7.602189e-04
1.340000e+09	1.197931e+13	0.000000e+00	5.793652e-01	4.275272e+14	7.369432e+14	2.024964e+14	1.470866e+04	4.772652e+03	2.856369e+03	0	7.541731e-04
1.350000e+09	1.169269e+13	0.000000e+00	5.793652e-01	4.244675e+14	7.324232e+14	2.016606e+14	1.469174e+04	4.769925e+03	2.854738e+03	0	7.481096e-04
1.360000e+09	1.140979e+13	0.000000e+00	5.793652e-01	4.214454e+14	7.279522e+14	2.008302e+14	1.467493e+04	4.767215e+03	2.853115e+03	0	7.420269e-04
