#t		Qconv[W]	Ri[Rp]		R*[Rp]		Qc[W]		Qm[W]		Qr[W]		Tcmb[K]		Tl[K]		Tup[K]		RiFlag		Bs[T]
0.000000e+00	2.828634e+14	0.000000e+00	5.873016e-01	3.035385e+15	1.795608e+15	4.101680e+14	2.087129e+04	5.061557e+03	2.958920e+03	0	2.123473e-03
1.000000e+07	2.768294e+14	0.000000e+00	5.873016e-01	2.979386e+15	1.882043e+15	4.078953e+14	2.076749e+04	5.100683e+03	2.981792e+03	0	2.108265e-03
2.000000e+07	2.708568e+14	0.000000e+00	5.873016e-01	2.923981e+15	1.962055e+15	4.056397e+14	2.066560e+04	5.136343e+03	3.002638e+03	0	2.092993e-03
3.000000e+07	2.649541e+14	0.000000e+00	5.873016e-01	2.869241e+15	2.035382e+15	4.034009e+14	2.056558e+04	5.168712e+03	3.021561e+03	0	2.077677e-03
4.000000e+07	2.591291e+14	0.000000e+00	5.873016e-01	2.815235e+15	2.101895e+15	4.011789e+14	2.046742e+04	5.197973e+03	3.038667e+03	0	2.062338e-03
5.000000e+07	2.533886e+14	0.000000e+00	5.873016e-01	2.762023e+15	2.161587e+15	3.989734e+14	2.037109e+04	5.224313e+03	3.054064e+03	0	2.046995e-03
6.000000e+07	2.477388e+14	0.000000e+00	5.873016e-01	2.709659e+15	2.214551e+15	3.967843e+14	2.027657e+04	5.247916e+03	3.067863e+03	0	2.031667e-03
7.000000e+07	2.421850e+14	0.000000e+00	5.873016e-01	2.658190e+15	2.260966e+15	3.946116e+14	2.018383e+04	5.268968e+03	3.080169e+03	0	2.016370e-03
8.000000e+07	2.367318e+14	0.000000e+00	5.873016e-01	2.607654e+15	2.301077e+15	3.924550e+14	2.009284e+04	5.287649e+03	3.091090e+03	0	2.001121e-03
9.000000e+07	2.313828e+14	0.000000e+00	5.873016e-01	2.558084e+15	2.335179e+15	3.903144e+14	2.000356e+04	5.304132e+03	3.100726e+03	0	1.985934e-03
1.000000e+08	2.261411e+14	0.000000e+00	5.873016e-01	2.509505e+15	2.363607e+15	3.881898e+14	1.991597e+04	5.318586e+03	3.109175e+03	0	1.970823e-03
1.100000e+08	2.210089e+14	0.000000e+00	5.873016e-01	2.461936e+15	2.386714e+15	3.860809e+14	1.983003e+04	5.331170e+03	3.116532e+03	0	1.955800e-03
1.200000e+08	2.159879e+14	0.000000e+00	5.873016e-01	2.415392e+15	2.404872e+15	3.839876e+14	1.974571e+04	5.342035e+03	3.122883e+03	0	1.940875e-03
1.300000e+08	2.110790e+14	0.000000e+00	5.873016e-01	2.369879e+15	2.418453e+15	3.819098e+14	1.966297e+04	5.351324e+03	3.128313e+03	0	1.926059e-03
1.400000e+08	2.062828e+14	0.000000e+00	5.873016e-01	2.325402e+15	2.427827e+15	3.798475e+14	1.958178e+04	5.359169e+03	3.132899e+03	0	1.911358e-03
1.500000e+08	2.015991e+14	0.000000e+00	5.873016e-01	2.281959e+15	2.433358e+15	3.778003e+14	1.950210e+04	5.365695e+03	3.136715e+03	0	1.896782e-03
1.600000e+08	1.970277e+14	0.000000e+00	5.873016e-01	2.239546e+15	2.435393e+15	3.757683e+14	1.942390e+04	5.371019e+03	3.139827e+03	0	1.882335e-03
1.700000e+08	1.925678e+14	0.000000e+00	5.873016e-01	2.198155e+15	2.434265e+15	3.737513e+14	1.934714e+04	5.375246e+03	3.142298e+03	0	1.868024e-03
1.800000e+08	1.882181e+14	0.000000e+00	5.873016e-01	2.157775e+15	2.430290e+15	3.717491e+14	1.927179e+04	5.378477e+03	3.144186e+03	0	1.853851e-03
1.900000e+08	1.839773e+14	0.000000e+00	5.873016e-01	2.118392e+15	2.423763e+15	3.697617e+14	1.919782e+04	5.380802e+03	3.145546e+03	0	1.839822e-03
2.000000e+08	1.798437e+14	0.000000e+00	5.873016e-01	2.079993e+15	2.414959e+15	3.677889e+14	1.912519e+04	5.382305e+03	3.146425e+03	0	1.825939e-03
2.100000e+08	1.758157e+14	0.000000e+00	5.873016e-01	2.042558e+15	2.404134e+15	3.658306e+14	1.905387e+04	5.383064e+03	3.146868e+03	0	1.812204e-03
2.200000e+08	1.718910e+14	0.000000e+00	5.873016e-01	2.006072e+15	2.391522e+15	3.638868e+14	1.898382e+04	5.383149e+03	3.146918e+03	0	1.798618e-03
2.300000e+08	1.680678e+14	0.000000e+00	5.873016e-01	1.970512e+15	2.377341e+15	3.619571e+14	1.891501e+04	5.382625e+03	3.146611e+03	0	1.785182e-03
2.400000e+08	1.643436e+14	0.000000e+00	5.873016e-01	1.935861e+15	2.361788e+15	3.600416e+14	1.884742e+04	5.381550e+03	3.145983e+03	0	1.771898e-03
2.500000e+08	1.607163e+14	0.000000e+00	5.873016e-01	1.902095e+15	2.345044e+15	3.581402e+14	1.878101e+04	5.379979e+03	3.145065e+03	0	1.758765e-03
2.600000e+08	1.571836e+14	0.000000e+00	5.873016e-01	1.869195e+15	2.327271e+15	3.562527e+14	1.871575e+04	5.377961e+03	3.143885e+03	0	1.745783e-03
2.700000e+08	1.537430e+14	0.000000e+00	5.873016e-01	1.837138e+15	2.308619e+15	3.543789e+14	1.865162e+04	5.375540e+03	3.142470e+03	0	1.732951e-03
2.800000e+08	1.503921e+14	0.000000e+00	5.873016e-01	1.805902e+15	2.289220e+15	3.525189e+14	1.858857e+04	5.372758e+03	3.140843e+03	0	1.720268e-03
2.900000e+08	1.471286e+14	0.000000e+00	5.873016e-01	1.775466e+15	2.269197e+15	3.506724e+14	1.852659e+04	5.369651e+03	3.139027e+03	0	1.707734e-03
3.000000e+08	1.439501e+14	0.000000e+00	5.873016e-01	1.745808e+15	2.248657e+15	3.488394e+14	1.846565e+04	5.366254e+03	3.137041e+03	0	1.695346e-03
3.100000e+08	1.408541e+14	0.000000e+00	5.873016e-01	1.716905e+15	2.227699e+15	3.470197e+14	1.840573e+04	5.362597e+03	3.134904e+03	0	1.683104e-03
3.200000e+08	1.378385e+14	0.000000e+00	5.873016e-01	1.688737e+15	2.206407e+15	3.452133e+14	1.834679e+04	5.358708e+03	3.132630e+03	0	1.671006e-03
3.300000e+08	1.349007e+14	0.000000e+00	5.873016e-01	1.661283e+15	2.184862e+15	3.434200e+14	1.828881e+04	5.354613e+03	3.130236e+03	0	1.659049e-03
3.400000e+08	1.320386e+14	0.000000e+00	5.873016e-01	1.634522e+15	2.163132e+15	3.416397e+14	1.823177e+04	5.350335e+03	3.127735e+03	0	1.647232e-03
3.500000e+08	1.292500e+14	0.000000e+00	5.873016e-01	1.608433e+15	2.141278e+15	3.398724e+14	1.817564e+04	5.345894e+03	3.125139e+03	0	1.635553e-03
3.600000e+08	1.265325e+14	0.000000e+00	5.873016e-01	1.582997e+15	2.119355e+15	3.381179e+14	1.812040e+04	5.341310e+03	3.122460e+03	0	1.624009e-03
3.700000e+08	1.238842e+14	0.000000e+00	5.873016e-01	1.558193e+15	2.097412e+15	3.363760e+14	1.806603e+04	5.336600e+03	3.119706e+03	0	1.612599e-03
3.800000e+08	1.213029e+14	0.000000e+00	5.873016e-01	1.534004e+15	2.075491e+15	3.346468e+14	1.801251e+04	5.331780e+03	3.116888e+03	0	1.601320e-03
3.900000e+08	1.187866e+14	0.000000e+00	5.873016e-01	1.510411e+15	2.053630e+15	3.329301e+14	1.795982e+04	5.326864e+03	3.114014e+03	0	1.590170e-03
4.000000e+08	1.163333e+14	0.000000e+00	5.873016e-01	1.487395e+15	2.031862e+15	3.312257e+14	1.790793e+04	5.321865e+03	3.111092e+03	0	1.579147e-03
4.100000e+08	1.139411e+14	0.000000e+00	5.873016e-01	1.464940e+15	2.010216e+15	3.295337e+14	1.785683e+04	5.316794e+03	3.108128e+03	0	1.568248e-03
4.200000e+08	1.116082e+14	0.000000e+00	5.873016e-01	1.443027e+15	1.988716e+15	3.278539e+14	1.780649e+04	5.311664e+03	3.105128e+03	0	1.557470e-03
4.300000e+08	1.093326e+14	0.000000e+00	5.873016e-01	1.421642e+15	1.967385e+15	3.261861e+14	1.775691e+04	5.306482e+03	3.102099e+03	0	1.546813e-03
4.400000e+08	1.071127e+14	0.000000e+00	5.873016e-01	1.400767e+15	1.946241e+15	3.245304e+14	1.770806e+04	5.301258e+03	3.099045e+03	0	1.536272e-03
4.500000e+08	1.049468e+14	0.000000e+00	5.873016e-01	1.380387e+15	1.925301e+15	3.228865e+14	1.765992e+04	5.295999e+03	3.095971e+03	0	1.525847e-03
4.600000e+08	1.028332e+14	0.000000e+00	5.873016e-01	1.360488e+15	1.904578e+15	3.212545e+14	1.761247e+04	5.290714e+03	3.092882e+03	0	1.515534e-03
4.700000e+08	1.007703e+14	0.000000e+00	5.873016e-01	1.341055e+15	1.884084e+15	3.196342e+14	1.756571e+04	5.285409e+03	3.089780e+03	0	1.505331e-03
4.800000e+08	9.875658e+13	0.000000e+00	5.873016e-01	1.322073e+15	1.863828e+15	3.180254e+14	1.751961e+04	5.280088e+03	3.086670e+03	0	1.495236e-03
4.900000e+08	9.679055e+13	0.000000e+00	5.873016e-01	1.303529e+15	1.843819e+15	3.164282e+14	1.747417e+04	5.274759e+03	3.083555e+03	0	1.485247e-03
5.000000e+08	9.487076e+13	0.000000e+00	5.873016e-01	1.285411e+15	1.824064e+15	3.148424e+14	1.742935e+04	5.269425e+03	3.080437e+03	0	1.475362e-03
5.100000e+08	9.299581e+13	0.000000e+00	5.873016e-01	1.267705e+15	1.804566e+15	3.132680e+14	1.738516e+04	5.264092e+03	3.077318e+03	0	1.465578e-03
5.200000e+08	9.116437e+13	0.000000e+00	5.873016e-01	1.250398e+15	1.785331e+15	3.117047e+14	1.734157e+04	5.258762e+03	3.074203e+03	0	1.455893e-03
5.300000e+08	8.937511e+13	0.000000e+00	5.873016e-01	1.233480e+15	1.766360e+15	3.101527e+14	1.729858e+04	5.253439e+03	3.071091e+03	0	1.446305e-03
5.400000e+08	8.762680e+13	0.000000e+00	5.873016e-01	1.216939e+15	1.747658e+15	3.086116e+14	1.725616e+04	5.248128e+03	3.067986e+03	0	1.436813e-03
5.500000e+08	8.591820e+13	0.000000e+00	5.873016e-01	1.200763e+15	1.729223e+15	3.070816e+14	1.721431e+04	5.242830e+03	3.064889e+03	0	1.427413e-03
5.600000e+08	8.424815e+13	0.000000e+00	5.873016e-01	1.184942e+15	1.711057e+15	3.055624e+14	1.717301e+04	5.237548e+03	3.061802e+03	0	1.418103e-03
5.700000e+08	8.261550e+13	0.000000e+00	5.873016e-01	1.169466e+15	1.693160e+15	3.040540e+14	1.713226e+04	5.232285e+03	3.058725e+03	0	1.408883e-03
5.800000e+08	8.101917e+13	0.000000e+00	5.873016e-01	1.154324e+15	1.675531e+15	3.025563e+14	1.709204e+04	5.227043e+03	3.055660e+03	0	1.399750e-03
5.900000e+08	7.945810e+13	0.000000e+00	5.873016e-01	1.139507e+15	1.658168e+15	3.010693e+14	1.705233e+04	5.221823e+03	3.052609e+03	0	1.390701e-03
6.000000e+08	7.793125e+13	0.000000e+00	5.873016e-01	1.125006e+15	1.641070e+15	2.995927e+14	1.701313e+04	5.216627e+03	3.049571e+03	0	1.381736e-03
6.100000e+08	7.643765e+13	0.000000e+00	5.873016e-01	1.110811e+15	1.624235e+15	2.981266e+14	1.697443e+04	5.211457e+03	3.046549e+03	0	1.372852e-03
6.200000e+08	7.497634e+13	0.000000e+00	5.873016e-01	1.096915e+15	1.607661e+15	2.966709e+14	1.693621e+04	5.206313e+03	3.043542e+03	0	1.364047e-03
6.300000e+08	7.354639e+13	0.000000e+00	5.873016e-01	1.083307e+15	1.591344e+15	2.952254e+14	1.689848e+04	5.201198e+03	3.040552e+03	0	1.355319e-03
6.400000e+08	7.214692e+13	0.000000e+00	5.873016e-01	1.069981e+15	1.575282e+15	2.937901e+14	1.686120e+04	5.196112e+03	3.037579e+03	0	1.346668e-03
6.500000e+08	7.077707e+13	0.000000e+00	5.873016e-01	1.056929e+15	1.559473e+15	2.923650e+14	1.682439e+04	5.191056e+03	3.034623e+03	0	1.338090e-03
6.600000e+08	6.943600e+13	0.000000e+00	5.873016e-01	1.044142e+15	1.543911e+15	2.909498e+14	1.678802e+04	5.186031e+03	3.031686e+03	0	1.329585e-03
6.700000e+08	6.812291e+13	0.000000e+00	5.873016e-01	1.031614e+15	1.528596e+15	2.895447e+14	1.675209e+04	5.181038e+03	3.028766e+03	0	1.321150e-03
6.800000e+08	6.683703e+13	0.000000e+00	5.873016e-01	1.019338e+15	1.513521e+15	2.881493e+14	1.671658e+04	5.176077e+03	3.025866e+03	0	1.312785e-03
6.900000e+08	6.557760e+13	0.000000e+00	5.873016e-01	1.007306e+15	1.498685e+15	2.867638e+14	1.668150e+04	5.171148e+03	3.022985e+03	0	1.304487e-03
7.000000e+08	6.434389e+13	0.000000e+00	5.873016e-01	9.955121e+14	1.484083e+15	2.853880e+14	1.664684e+04	5.166252e+03	3.020123e+03	0	1.296254e-03
7.100000e+08	6.313522e+13	0.000000e+00	5.873016e-01	9.839497e+14	1.469712e+15	2.840218e+14	1.661257e+04	5.161390e+03	3.017280e+03	0	1.288087e-03
7.200000e+08	6.195089e+13	0.000000e+00	5.873016e-01	9.726128e+14	1.455568e+15	2.826652e+14	1.657870e+04	5.156561e+03	3.014457e+03	0	1.279981e-03
7.300000e+08	6.079025e+13	0.000000e+00	5.873016e-01	9.614952e+14	1.441647e+15	2.813180e+14	1.654523e+04	5.151766e+03	3.011654e+03	0	1.271938e-03
7.400000e+08	5.965267e+13	0.000000e+00	5.873016e-01	9.505913e+14	1.427945e+15	2.799803e+14	1.651213e+04	5.147005e+03	3.008871e+03	0	1.263954e-03
7.500000e+08	5.853754e+13	0.000000e+00	5.873016e-01	9.398953e+14	1.414459e+15	2.786519e+14	1.647940e+04	5.142278e+03	3.006108e+03	0	1.256028e-03
7.600000e+08	5.744425e+13	0.000000e+00	5.873016e-01	9.294018e+14	1.401184e+15	2.773327e+14	1.644705e+04	5.137585e+03	3.003365e+03	0	1.248159e-03
7.700000e+08	5.637224e+13	0.000000e+00	5.873016e-01	9.191057e+14	1.388118e+15	2.760227e+14	1.641505e+04	5.132927e+03	3.000641e+03	0	1.240346e-03
7.800000e+08	5.532095e+13	0.000000e+00	5.873016e-01	9.090017e+14	1.375255e+15	2.747219e+14	1.638341e+04	5.128303e+03	2.997938e+03	0	1.232587e-03
7.900000e+08	5.428985e+13	0.000000e+00	5.873016e-01	8.990851e+14	1.362593e+15	2.734300e+14	1.635211e+04	5.123713e+03	2.995255e+03	0	1.224881e-03
8.000000e+08	5.327840e+13	0.000000e+00	5.873016e-01	8.893509e+14	1.350127e+15	2.721471e+14	1.632115e+04	5.119157e+03	2.992592e+03	0	1.217227e-03
8.100000e+08	5.228611e+13	0.000000e+00	5.873016e-01	8.797946e+14	1.337854e+15	2.708731e+14	1.629053e+04	5.114635e+03	2.989948e+03	0	1.209623e-03
8.200000e+08	5.131249e+13	0.000000e+00	5.873016e-01	8.704118e+14	1.325770e+15	2.696079e+14	1.626023e+04	5.110147e+03	2.987324e+03	0	1.202067e-03
8.300000e+08	5.035706e+13	0.000000e+00	5.873016e-01	8.611980e+14	1.313873e+15	2.683515e+14	1.623026e+04	5.105692e+03	2.984720e+03	0	1.194560e-03
8.400000e+08	4.941937e+13	0.000000e+00	5.873016e-01	8.521491e+14	1.302157e+15	2.671038e+14	1.620060e+04	5.101271e+03	2.982136e+03	0	1.187099e-03
8.500000e+08	4.849897e+13	0.000000e+00	5.873016e-01	8.432611e+14	1.290620e+15	2.658646e+14	1.617126e+04	5.096884e+03	2.979571e+03	0	1.179683e-03
8.600000e+08	4.759543e+13	0.000000e+00	5.873016e-01	8.345299e+14	1.279258e+15	2.646340e+14	1.614221e+04	5.092530e+03	2.977026e+03	0	1.172311e-03
8.700000e+08	4.670834e+13	0.000000e+00	5.873016e-01	8.259517e+14	1.268069e+15	2.634119e+14	1.611347e+04	5.088208e+03	2.974499e+03	0	1.164982e-03
8.800000e+08	4.583730e+13	0.000000e+00	5.873016e-01	8.175229e+14	1.257047e+15	2.621982e+14	1.608503e+04	5.083919e+03	2.971992e+03	0	1.157695e-03
8.900000e+08	4.498190e+13	0.000000e+00	5.873016e-01	8.092399e+14	1.246191e+15	2.609928e+14	1.605687e+04	5.079663e+03	2.969504e+03	0	1.150448e-03
9.000000e+08	4.414177e+13	0.000000e+00	5.873016e-01	8.010991e+14	1.235498e+15	2.597957e+14	1.602899e+04	5.075439e+03	2.967035e+03	0	1.143241e-03
9.100000e+08	4.331654e+13	0.000000e+00	5.873016e-01	7.930972e+14	1.224963e+15	2.586067e+14	1.600140e+04	5.071247e+03	2.964584e+03	0	1.136072e-03
9.200000e+08	4.250586e+13	0.000000e+00	5.873016e-01	7.852309e+14	1.214584e+15	2.574260e+14	1.597408e+04	5.067087e+03	2.962152e+03	0	1.128940e-03
9.300000e+08	4.170937e+13	0.000000e+00	5.873016e-01	7.774970e+14	1.204358e+15	2.562533e+14	1.594703e+04	5.062957e+03	2.959738e+03	0	1.121844e-03
9.400000e+08	4.092675e+13	0.000000e+00	5.873016e-01	7.698925e+14	1.194282e+15	2.550886e+14	1.592025e+04	5.058860e+03	2.957343e+03	0	1.114783e-03
9.500000e+08	4.015765e+13	0.000000e+00	5.873016e-01	7.624143e+14	1.184352e+15	2.539319e+14	1.589372e+04	5.054792e+03	2.954965e+03	0	1.107756e-03
9.600000e+08	3.940178e+13	0.000000e+00	5.873016e-01	7.550595e+14	1.174567e+15	2.527831e+14	1.586746e+04	5.050756e+03	2.952605e+03	0	1.100761e-03
9.700000e+08	3.865882e+13	0.000000e+00	5.873016e-01	7.478253e+14	1.164923e+15	2.516421e+14	1.584144e+04	5.046750e+03	2.950263e+03	0	1.093799e-03
9.800000e+08	3.792847e+13	0.000000e+00	5.873016e-01	7.407089e+14	1.155418e+15	2.505088e+14	1.581568e+04	5.042773e+03	2.947939e+03	0	1.086867e-03
9.900000e+08	3.721044e+13	0.000000e+00	5.873016e-01	7.337078e+14	1.146049e+15	2.493833e+14	1.579016e+04	5.038827e+03	2.945632e+03	0	1.079964e-03
1.000000e+09	3.650445e+13	0.000000e+00	5.873016e-01	7.268192e+14	1.136813e+15	2.482654e+14	1.576488e+04	5.034909e+03	2.943342e+03	0	1.073091e-03
1.010000e+09	3.581022e+13	0.000000e+00	5.873016e-01	7.200407e+14	1.127708e+15	2.471550e+14	1.573983e+04	5.031021e+03	2.941069e+03	0	1.066245e-03
1.020000e+09	3.512750e+13	0.000000e+00	5.873016e-01	7.133698e+14	1.118731e+15	2.460522e+14	1.571502e+04	5.027162e+03	2.938812e+03	0	1.059425e-03
1.030000e+09	3.445602e+13	0.000000e+00	5.873016e-01	7.068041e+14	1.109879e+15	2.449569e+14	1.569044e+04	5.023331e+03	2.936573e+03	0	1.052631e-03
1.040000e+09	3.379553e+13	0.000000e+00	5.873016e-01	7.003414e+14	1.101152e+15	2.438690e+14	1.566608e+04	5.019528e+03	2.934350e+03	0	1.045862e-03
1.050000e+09	3.314579e+13	0.000000e+00	5.873016e-01	6.939794e+14	1.092545e+15	2.427884e+14	1.564195e+04	5.015753e+03	2.932143e+03	0	1.039116e-03
1.060000e+09	3.250656e+13	0.000000e+00	5.873016e-01	6.877159e+14	1.084057e+15	2.417151e+14	1.561803e+04	5.012006e+03	2.929952e+03	0	1.032392e-03
1.070000e+09	3.187761e+13	0.000000e+00	5.873016e-01	6.815488e+14	1.075685e+15	2.406490e+14	1.559433e+04	5.008285e+03	2.927778e+03	0	1.025691e-03
1.080000e+09	3.125871e+13	0.000000e+00	5.873016e-01	6.754760e+14	1.067427e+15	2.395901e+14	1.557084e+04	5.004592e+03	2.925619e+03	0	1.019009e-03
1.090000e+09	3.064965e+13	0.000000e+00	5.873016e-01	6.694955e+14	1.059282e+15	2.385383e+14	1.554756e+04	5.000926e+03	2.923475e+03	0	1.012348e-03
1.100000e+09	3.005021e+13	0.000000e+00	5.873016e-01	6.636053e+14	1.051247e+15	2.374936e+14	1.552449e+04	4.997286e+03	2.921347e+03	0	1.005704e-03
1.110000e+09	2.946020e+13	0.000000e+00	5.873016e-01	6.578036e+14	1.043319e+15	2.364559e+14	1.550162e+04	4.993671e+03	2.919235e+03	0	9.990787e-04
1.120000e+09	2.887940e+13	0.000000e+00	5.873016e-01	6.520885e+14	1.035498e+15	2.354251e+14	1.547895e+04	4.990083e+03	2.917137e+03	0	9.924696e-04
1.130000e+09	2.830762e+13	0.000000e+00	5.873016e-01	6.464582e+14	1.027781e+15	2.344013e+14	1.545647e+04	4.986520e+03	2.915054e+03	0	9.858760e-04
1.140000e+09	2.774468e+13	0.000000e+00	5.873016e-01	6.409109e+14	1.020165e+15	2.333843e+14	1.543419e+04	4.982983e+03	2.912986e+03	0	9.792969e-04
1.150000e+09	2.719038e+13	0.000000e+00	5.873016e-01	6.354449e+14	1.012650e+15	2.323740e+14	1.541209e+04	4.979470e+03	2.910933e+03	0	9.727314e-04
1.160000e+09	2.664455e+13	0.000000e+00	5.873016e-01	6.300586e+14	1.005233e+15	2.313705e+14	1.539019e+04	4.975982e+03	2.908894e+03	0	9.661783e-04
1.170000e+09	2.610702e+13	0.000000e+00	5.873016e-01	6.247503e+14	9.979126e+14	2.303737e+14	1.536847e+04	4.972519e+03	2.906869e+03	0	9.596368e-04
1.180000e+09	2.557760e+13	0.000000e+00	5.873016e-01	6.195185e+14	9.906870e+14	2.293836e+14	1.534693e+04	4.969079e+03	2.904858e+03	0	9.531057e-04
1.190000e+09	2.505613e+13	0.000000e+00	5.873016e-01	6.143615e+14	9.835544e+14	2.284000e+14	1.532558e+04	4.965664e+03	2.902861e+03	0	9.465840e-04
1.200000e+09	2.454246e+13	0.000000e+00	5.873016e-01	6.092780e+14	9.765133e+14	2.274229e+14	1.530440e+04	4.962272e+03	2.900878e+03	0	9.400707e-04
1.210000e+09	2.403642e+13	0.000000e+00	5.873016e-01	6.042665e+14	9.695618e+14	2.264524e+14	1.528339e+04	4.958903e+03	2.898909e+03	0	9.335647e-04
1.220000e+09	2.353786e+13	0.000000e+00	5.873016e-01	5.993255e+14	9.626985e+14	2.254882e+14	1.526256e+04	4.955557e+03	2.896953e+03	0	9.270649e-04
1.230000e+09	2.304663e+13	0.000000e+00	5.873016e-01	5.944536e+14	9.559217e+14	2.245304e+14	1.524190e+04	4.952234e+03	2.895011e+03	0	9.205703e-04
1.240000e+09	2.256258e+13	0.000000e+00	5.873016e-01	5.896496e+14	9.492299e+14	2.235790e+14	1.522140e+04	4.948933e+03	2.893081e+03	0	9.140797e-04
1.250000e+09	2.208558e+13	0.000000e+00	5.873016e-01	5.849119e+14	9.426216e+14	2.226338e+14	1.520107e+04	4.945655e+03	2.891165e+03	0	9.075921e-04
1.260000e+09	2.161547e+13	0.000000e+00	5.873016e-01	5.802395e+14	9.360953e+14	2.216949e+14	1.518091e+04	4.942399e+03	2.889261e+03	0	9.011063e-04
1.270000e+09	2.115213e+13	0.000000e+00	5.873016e-01	5.756310e+14	9.296496e+14	2.207622e+14	1.516090e+04	4.939165e+03	2.887370e+03	0	8.946212e-04
1.280000e+09	2.069543e+13	0.000000e+00	5.873016e-01	5.710852e+14	9.232832e+14	2.198356e+14	1.514105e+04	4.935952e+03	2.885492e+03	0	8.881356e-04
1.290000e+09	2.024523e+13	0.000000e+00	5.873016e-01	5.666009e+14	9.169945e+14	2.189151e+14	1.512136e+04	4.932760e+03	2.883626e+03	0	8.816482e-04
1.300000e+09	1.980140e+13	0.000000e+00	5.873016e-01	5.621770e+14	9.107822e+14	2.180006e+14	1.510182e+04	4.929589e+03	2.881773e+03	0	8.751580e-04
1.310000e+09	1.936384e+13	0.000000e+00	5.873016e-01	5.578122e+14	9.046452e+14	2.170921e+14	1.508244e+04	4.926439e+03	2.879932e+03	0	8.686636e-04
1.320000e+09	1.893241e+13	0.000000e+00	5.873016e-01	5.535056e+14	8.985819e+14	2.161896e+14	1.506320e+04	4.923310e+03	2.878102e+03	0	8.621638e-04
1.330000e+09	1.850700e+13	0.000000e+00	5.873016e-01	5.492559e+14	8.925913e+14	2.152929e+14	1.504412e+04	4.920201e+03	2.876285e+03	0	8.556573e-04
1.340000e+09	1.808750e+13	0.000000e+00	5.873016e-01	5.450622e+14	8.866720e+14	2.144022e+14	1.502518e+04	4.917112e+03	2.874479e+03	0	8.491427e-04
1.350000e+09	1.767379e+13	0.000000e+00	5.873016e-01	5.409234e+14	8.808228e+14	2.135172e+14	1.500638e+04	4.914043e+03	2.872685e+03	0	8.426186e-04
1.360000e+09	1.726577e+13	0.000000e+00	5.873016e-01	5.368386e+14	8.750426e+14	2.126380e+14	1.498773e+04	4.910994e+03	2.870902e+03	0	8.360838e-04
