#t		Qconv[W]	Ri[Rp]		R*[Rp]		Qc[W]		Qm[W]		Qr[W]		Tcmb[K]		Tl[K]		Tup[K]		RiFlag		Bs[T]
0.000000e+00	2.939392e+14	0.000000e+00	5.873015e-01	3.139173e+15	1.750838e+15	4.239985e+14	2.135885e+04	5.125021e+03	2.979281e+03	0	2.149399e-03
1.000000e+07	2.879464e+14	0.000000e+00	5.873015e-01	3.084370e+15	1.841804e+15	4.216492e+14	2.125614e+04	5.166770e+03	3.003551e+03	0	2.134692e-03
2.000000e+07	2.819984e+14	0.000000e+00	5.873015e-01	3.030004e+15	1.926990e+15	4.193175e+14	2.115521e+04	5.205068e+03	3.025814e+03	0	2.119891e-03
3.000000e+07	2.761040e+14	0.000000e+00	5.873015e-01	2.976151e+15	2.006019e+15	4.170032e+14	2.105604e+04	5.240070e+03	3.046161e+03	0	2.105017e-03
4.000000e+07	2.702714e+14	0.000000e+00	5.873015e-01	2.922882e+15	2.078647e+15	4.147062e+14	2.095862e+04	5.271935e+03	3.064686e+03	0	2.090088e-03
5.000000e+07	2.645082e+14	0.000000e+00	5.873015e-01	2.870264e+15	2.144752e+15	4.124264e+14	2.086292e+04	5.300834e+03	3.081485e+03	0	2.075125e-03
6.000000e+07	2.588214e+14	0.000000e+00	5.873015e-01	2.818354e+15	2.204322e+15	4.101635e+14	2.076894e+04	5.326937e+03	3.096659e+03	0	2.060146e-03
7.000000e+07	2.532170e+14	0.000000e+00	5.873015e-01	2.767206e+15	2.257435e+15	4.079175e+14	2.067665e+04	5.350416e+03	3.110308e+03	0	2.045167e-03
8.000000e+07	2.477005e+14	0.000000e+00	5.873015e-01	2.716866e+15	2.304250e+15	4.056882e+14	2.058602e+04	5.371442e+03	3.122531e+03	0	2.030207e-03
9.000000e+07	2.422765e+14	0.000000e+00	5.873015e-01	2.667374e+15	2.344985e+15	4.034755e+14	2.049702e+04	5.390181e+03	3.133424e+03	0	2.015278e-03
1.000000e+08	2.369491e+14	0.000000e+00	5.873015e-01	2.618763e+15	2.379908e+15	4.012792e+14	2.040964e+04	5.406796e+03	3.143083e+03	0	2.000397e-03
1.100000e+08	2.317213e+14	0.000000e+00	5.873015e-01	2.571061e+15	2.409322e+15	3.990992e+14	2.032383e+04	5.421443e+03	3.151597e+03	0	1.985576e-03
1.200000e+08	2.265958e+14	0.000000e+00	5.873015e-01	2.524288e+15	2.433552e+15	3.969353e+14	2.023958e+04	5.434270e+03	3.159054e+03	0	1.970827e-03
1.300000e+08	2.215744e+14	0.000000e+00	5.873015e-01	2.478460e+15	2.452939e+15	3.947875e+14	2.015685e+04	5.445420e+03	3.165536e+03	0	1.956161e-03
1.400000e+08	2.166586e+14	0.000000e+00	5.873015e-01	2.433588e+15	2.467829e+15	3.926556e+14	2.007561e+04	5.455026e+03	3.171120e+03	0	1.941586e-03
1.500000e+08	2.118492e+14	0.000000e+00	5.873015e-01	2.389679e+15	2.478568e+15	3.905394e+14	1.999583e+04	5.463215e+03	3.175880e+03	0	1.927112e-03
1.600000e+08	2.071464e+14	0.000000e+00	5.873015e-01	2.346735e+15	2.485495e+15	3.884389e+14	1.991749e+04	5.470104e+03	3.179885e+03	0	1.912745e-03
1.700000e+08	2.025503e+14	0.000000e+00	5.873015e-01	2.304755e+15	2.488939e+15	3.863538e+14	1.984054e+04	5.475803e+03	3.183198e+03	0	1.898493e-03
1.800000e+08	1.980604e+14	0.000000e+00	5.873015e-01	2.263733e+15	2.489215e+15	3.842842e+14	1.976496e+04	5.480416e+03	3.185879e+03	0	1.884360e-03
1.900000e+08	1.936760e+14	0.000000e+00	5.873015e-01	2.223663e+15	2.486624e+15	3.822297e+14	1.969071e+04	5.484035e+03	3.187984e+03	0	1.870351e-03
2.000000e+08	1.893960e+14	0.000000e+00	5.873015e-01	2.184534e+15	2.481449e+15	3.801904e+14	1.961777e+04	5.486750e+03	3.189562e+03	0	1.856471e-03
2.100000e+08	1.852192e+14	0.000000e+00	5.873015e-01	2.146335e+15	2.473954e+15	3.781661e+14	1.954611e+04	5.488642e+03	3.190661e+03	0	1.842722e-03
2.200000e+08	1.811440e+14	0.000000e+00	5.873015e-01	2.109052e+15	2.464388e+15	3.761567e+14	1.947569e+04	5.489784e+03	3.191325e+03	0	1.829108e-03
2.300000e+08	1.771688e+14	0.000000e+00	5.873015e-01	2.072669e+15	2.452978e+15	3.741620e+14	1.940649e+04	5.490245e+03	3.191594e+03	0	1.815629e-03
2.400000e+08	1.732918e+14	0.000000e+00	5.873015e-01	2.037171e+15	2.439938e+15	3.721819e+14	1.933847e+04	5.490089e+03	3.191503e+03	0	1.802287e-03
2.500000e+08	1.695110e+14	0.000000e+00	5.873015e-01	2.002539e+15	2.425461e+15	3.702164e+14	1.927161e+04	5.489373e+03	3.191087e+03	0	1.789083e-03
2.600000e+08	1.658246e+14	0.000000e+00	5.873015e-01	1.968756e+15	2.409724e+15	3.682652e+14	1.920589e+04	5.488150e+03	3.190376e+03	0	1.776019e-03
2.700000e+08	1.622303e+14	0.000000e+00	5.873015e-01	1.935803e+15	2.392892e+15	3.663283e+14	1.914126e+04	5.486468e+03	3.189398e+03	0	1.763093e-03
2.800000e+08	1.587261e+14	0.000000e+00	5.873015e-01	1.903661e+15	2.375111e+15	3.644055e+14	1.907771e+04	5.484373e+03	3.188180e+03	0	1.750306e-03
2.900000e+08	1.553098e+14	0.000000e+00	5.873015e-01	1.872310e+15	2.356517e+15	3.624967e+14	1.901521e+04	5.481903e+03	3.186744e+03	0	1.737658e-03
3.000000e+08	1.519792e+14	0.000000e+00	5.873015e-01	1.841731e+15	2.337230e+15	3.606019e+14	1.895373e+04	5.479097e+03	3.185113e+03	0	1.725147e-03
3.100000e+08	1.487322e+14	0.000000e+00	5.873015e-01	1.811904e+15	2.317362e+15	3.587209e+14	1.889325e+04	5.475987e+03	3.183305e+03	0	1.712772e-03
3.200000e+08	1.455666e+14	0.000000e+00	5.873015e-01	1.782809e+15	2.297010e+15	3.568536e+14	1.883375e+04	5.472605e+03	3.181339e+03	0	1.700533e-03
3.300000e+08	1.424801e+14	0.000000e+00	5.873015e-01	1.754427e+15	2.276264e+15	3.549998e+14	1.877519e+04	5.468979e+03	3.179231e+03	0	1.688428e-03
3.400000e+08	1.394706e+14	0.000000e+00	5.873015e-01	1.726739e+15	2.255204e+15	3.531595e+14	1.871756e+04	5.465134e+03	3.176996e+03	0	1.676456e-03
3.500000e+08	1.365361e+14	0.000000e+00	5.873015e-01	1.699725e+15	2.233903e+15	3.513326e+14	1.866084e+04	5.461094e+03	3.174647e+03	0	1.664615e-03
3.600000e+08	1.336744e+14	0.000000e+00	5.873015e-01	1.673367e+15	2.212423e+15	3.495189e+14	1.860500e+04	5.456879e+03	3.172197e+03	0	1.652903e-03
3.700000e+08	1.308834e+14	0.000000e+00	5.873015e-01	1.647646e+15	2.190823e+15	3.477183e+14	1.855002e+04	5.452510e+03	3.169658e+03	0	1.641318e-03
3.800000e+08	1.281612e+14	0.000000e+00	5.873015e-01	1.622545e+15	2.169153e+15	3.459308e+14	1.849588e+04	5.448004e+03	3.167038e+03	0	1.629859e-03
3.900000e+08	1.255058e+14	0.000000e+00	5.873015e-01	1.598045e+15	2.147459e+15	3.441562e+14	1.844256e+04	5.443377e+03	3.164348e+03	0	1.618524e-03
4.000000e+08	1.229152e+14	0.000000e+00	5.873015e-01	1.574130e+15	2.125781e+15	3.423944e+14	1.839005e+04	5.438643e+03	3.161596e+03	0	1.607310e-03
4.100000e+08	1.203875e+14	0.000000e+00	5.873015e-01	1.550782e+15	2.104153e+15	3.406453e+14	1.833831e+04	5.433816e+03	3.158790e+03	0	1.596216e-03
4.200000e+08	1.179209e+14	0.000000e+00	5.873015e-01	1.527985e+15	2.082609e+15	3.389088e+14	1.828734e+04	5.428909e+03	3.155937e+03	0	1.585240e-03
4.300000e+08	1.155137e+14	0.000000e+00	5.873015e-01	1.505723e+15	2.061174e+15	3.371848e+14	1.823711e+04	5.423931e+03	3.153044e+03	0	1.574378e-03
4.400000e+08	1.131640e+14	0.000000e+00	5.873015e-01	1.483981e+15	2.039874e+15	3.354733e+14	1.818762e+04	5.418893e+03	3.150115e+03	0	1.563630e-03
4.500000e+08	1.108703e+14	0.000000e+00	5.873015e-01	1.462743e+15	2.018728e+15	3.337740e+14	1.813883e+04	5.413805e+03	3.147157e+03	0	1.552994e-03
4.600000e+08	1.086307e+14	0.000000e+00	5.873015e-01	1.441994e+15	1.997756e+15	3.320869e+14	1.809074e+04	5.408674e+03	3.144175e+03	0	1.542466e-03
4.700000e+08	1.064439e+14	0.000000e+00	5.873015e-01	1.421721e+15	1.976973e+15	3.304119e+14	1.804333e+04	5.403509e+03	3.141172e+03	0	1.532045e-03
4.800000e+08	1.043081e+14	0.000000e+00	5.873015e-01	1.401909e+15	1.956393e+15	3.287490e+14	1.799658e+04	5.398315e+03	3.138153e+03	0	1.521729e-03
4.900000e+08	1.022219e+14	0.000000e+00	5.873015e-01	1.382545e+15	1.936026e+15	3.270979e+14	1.795048e+04	5.393100e+03	3.135121e+03	0	1.511516e-03
5.000000e+08	1.001839e+14	0.000000e+00	5.873015e-01	1.363616e+15	1.915884e+15	3.254586e+14	1.790501e+04	5.387868e+03	3.132080e+03	0	1.501403e-03
5.100000e+08	9.819260e+13	0.000000e+00	5.873015e-01	1.345109e+15	1.895974e+15	3.238311e+14	1.786016e+04	5.382625e+03	3.129032e+03	0	1.491389e-03
5.200000e+08	9.624668e+13	0.000000e+00	5.873015e-01	1.327013e+15	1.876302e+15	3.222151e+14	1.781592e+04	5.377377e+03	3.125981e+03	0	1.481471e-03
5.300000e+08	9.434481e+13	0.000000e+00	5.873015e-01	1.309315e+15	1.856874e+15	3.206107e+14	1.777227e+04	5.372126e+03	3.122928e+03	0	1.471648e-03
5.400000e+08	9.248572e+13	0.000000e+00	5.873015e-01	1.292004e+15	1.837695e+15	3.190177e+14	1.772920e+04	5.366876e+03	3.119877e+03	0	1.461917e-03
5.500000e+08	9.066816e+13	0.000000e+00	5.873015e-01	1.275069e+15	1.818768e+15	3.174361e+14	1.768670e+04	5.361633e+03	3.116828e+03	0	1.452277e-03
5.600000e+08	8.889094e+13	0.000000e+00	5.873015e-01	1.258499e+15	1.800095e+15	3.158657e+14	1.764475e+04	5.356397e+03	3.113785e+03	0	1.442726e-03
5.700000e+08	8.715290e+13	0.000000e+00	5.873015e-01	1.242284e+15	1.781677e+15	3.143064e+14	1.760334e+04	5.351173e+03	3.110748e+03	0	1.433261e-03
5.800000e+08	8.545292e+13	0.000000e+00	5.873015e-01	1.226413e+15	1.763516e+15	3.127582e+14	1.756247e+04	5.345962e+03	3.107719e+03	0	1.423881e-03
5.900000e+08	8.378991e+13	0.000000e+00	5.873015e-01	1.210877e+15	1.745612e+15	3.112210e+14	1.752212e+04	5.340768e+03	3.104699e+03	0	1.414583e-03
6.000000e+08	8.216283e+13	0.000000e+00	5.873015e-01	1.195667e+15	1.727965e+15	3.096947e+14	1.748227e+04	5.335592e+03	3.101690e+03	0	1.405367e-03
6.100000e+08	8.057066e+13	0.000000e+00	5.873015e-01	1.180773e+15	1.710573e+15	3.081792e+14	1.744293e+04	5.330436e+03	3.098693e+03	0	1.396230e-03
6.200000e+08	7.901242e+13	0.000000e+00	5.873015e-01	1.166188e+15	1.693435e+15	3.066743e+14	1.740407e+04	5.325301e+03	3.095708e+03	0	1.387170e-03
6.300000e+08	7.748716e+13	0.000000e+00	5.873015e-01	1.151901e+15	1.676551e+15	3.051801e+14	1.736569e+04	5.320190e+03	3.092737e+03	0	1.378186e-03
6.400000e+08	7.599396e+13	0.000000e+00	5.873015e-01	1.137905e+15	1.659917e+15	3.036965e+14	1.732777e+04	5.315103e+03	3.089780e+03	0	1.369276e-03
6.500000e+08	7.453194e+13	0.000000e+00	5.873015e-01	1.124192e+15	1.643532e+15	3.022232e+14	1.729032e+04	5.310042e+03	3.086838e+03	0	1.360438e-03
6.600000e+08	7.310023e+13	0.000000e+00	5.873015e-01	1.110755e+15	1.627394e+15	3.007604e+14	1.725332e+04	5.305008e+03	3.083912e+03	0	1.351671e-03
6.700000e+08	7.169801e+13	0.000000e+00	5.873015e-01	1.097585e+15	1.611499e+15	2.993078e+14	1.721675e+04	5.300002e+03	3.081001e+03	0	1.342972e-03
6.800000e+08	7.032448e+13	0.000000e+00	5.873015e-01	1.084677e+15	1.595845e+15	2.978655e+14	1.718062e+04	5.295024e+03	3.078108e+03	0	1.334341e-03
6.900000e+08	6.897885e+13	0.000000e+00	5.873015e-01	1.072021e+15	1.580428e+15	2.964332e+14	1.714491e+04	5.290076e+03	3.075231e+03	0	1.325775e-03
7.000000e+08	6.766037e+13	0.000000e+00	5.873015e-01	1.059613e+15	1.565247e+15	2.950110e+14	1.710962e+04	5.285157e+03	3.072372e+03	0	1.317274e-03
7.100000e+08	6.636832e+13	0.000000e+00	5.873015e-01	1.047445e+15	1.550296e+15	2.935988e+14	1.707473e+04	5.280269e+03	3.069530e+03	0	1.308835e-03
7.200000e+08	6.510199e+13	0.000000e+00	5.873015e-01	1.035511e+15	1.535574e+15	2.921964e+14	1.704025e+04	5.275412e+03	3.066707e+03	0	1.300457e-03
7.300000e+08	6.386070e+13	0.000000e+00	5.873015e-01	1.023805e+15	1.521077e+15	2.908038e+14	1.700615e+04	5.270586e+03	3.063901e+03	0	1.292139e-03
7.400000e+08	6.264379e+13	0.000000e+00	5.873015e-01	1.012321e+15	1.506801e+15	2.894210e+14	1.697244e+04	5.265792e+03	3.061114e+03	0	1.283879e-03
7.500000e+08	6.145062e+13	0.000000e+00	5.873015e-01	1.001054e+15	1.492742e+15	2.880478e+14	1.693910e+04	5.261030e+03	3.058346e+03	0	1.275675e-03
7.600000e+08	6.028057e+13	0.000000e+00	5.873015e-01	9.899969e+14	1.478898e+15	2.866841e+14	1.690614e+04	5.256299e+03	3.055596e+03	0	1.267527e-03
7.700000e+08	5.913304e+13	0.000000e+00	5.873015e-01	9.791454e+14	1.465265e+15	2.853300e+14	1.687354e+04	5.251601e+03	3.052865e+03	0	1.259432e-03
7.800000e+08	5.800746e+13	0.000000e+00	5.873015e-01	9.684939e+14	1.451838e+15	2.839852e+14	1.684129e+04	5.246936e+03	3.050153e+03	0	1.251390e-03
7.900000e+08	5.690326e+13	0.000000e+00	5.873015e-01	9.580375e+14	1.438616e+15	2.826498e+14	1.680939e+04	5.242303e+03	3.047460e+03	0	1.243398e-03
8.000000e+08	5.581990e+13	0.000000e+00	5.873015e-01	9.477713e+14	1.425594e+15	2.813237e+14	1.677784e+04	5.237702e+03	3.044785e+03	0	1.235457e-03
8.100000e+08	5.475684e+13	0.000000e+00	5.873015e-01	9.376905e+14	1.412768e+15	2.800067e+14	1.674662e+04	5.233134e+03	3.042130e+03	0	1.227564e-03
8.200000e+08	5.371359e+13	0.000000e+00	5.873015e-01	9.277905e+14	1.400136e+15	2.786989e+14	1.671573e+04	5.228599e+03	3.039493e+03	0	1.219718e-03
8.300000e+08	5.268964e+13	0.000000e+00	5.873015e-01	9.180669e+14	1.387693e+15	2.774001e+14	1.668517e+04	5.224095e+03	3.036875e+03	0	1.211917e-03
8.400000e+08	5.168452e+13	0.000000e+00	5.873015e-01	9.085154e+14	1.375437e+15	2.761103e+14	1.665493e+04	5.219624e+03	3.034276e+03	0	1.204162e-03
8.500000e+08	5.069775e+13	0.000000e+00	5.873015e-01	8.991317e+14	1.363364e+15	2.748293e+14	1.662500e+04	5.215186e+03	3.031696e+03	0	1.196449e-03
8.600000e+08	4.972890e+13	0.000000e+00	5.873015e-01	8.899118e+14	1.351470e+15	2.735572e+14	1.659538e+04	5.210779e+03	3.029134e+03	0	1.188778e-03
8.700000e+08	4.877751e+13	0.000000e+00	5.873015e-01	8.808518e+14	1.339753e+15	2.722939e+14	1.656606e+04	5.206405e+03	3.026591e+03	0	1.181148e-03
8.800000e+08	4.784318e+13	0.000000e+00	5.873015e-01	8.719479e+14	1.328209e+15	2.710392e+14	1.653704e+04	5.202062e+03	3.024067e+03	0	1.173558e-03
8.900000e+08	4.692548e+13	0.000000e+00	5.873015e-01	8.631962e+14	1.316835e+15	2.697932e+14	1.650831e+04	5.197751e+03	3.021560e+03	0	1.166006e-03
9.000000e+08	4.602401e+13	0.000000e+00	5.873015e-01	8.545933e+14	1.305628e+15	2.685557e+14	1.647987e+04	5.193471e+03	3.019072e+03	0	1.158491e-03
9.100000e+08	4.513840e+13	0.000000e+00	5.873015e-01	8.461357e+14	1.294584e+15	2.673267e+14	1.645172e+04	5.189222e+03	3.016603e+03	0	1.151012e-03
9.200000e+08	4.426826e+13	0.000000e+00	5.873015e-01	8.378199e+14	1.283701e+15	2.661062e+14	1.642384e+04	5.185005e+03	3.014151e+03	0	1.143568e-03
9.300000e+08	4.341323e+13	0.000000e+00	5.873015e-01	8.296427e+14	1.272975e+15	2.648939e+14	1.639623e+04	5.180818e+03	3.011717e+03	0	1.136158e-03
9.400000e+08	4.257295e+13	0.000000e+00	5.873015e-01	8.216008e+14	1.262404e+15	2.636900e+14	1.636889e+04	5.176662e+03	3.009301e+03	0	1.128780e-03
9.500000e+08	4.174709e+13	0.000000e+00	5.873015e-01	8.136912e+14	1.251985e+15	2.624942e+14	1.634181e+04	5.172536e+03	3.006902e+03	0	1.121433e-03
9.600000e+08	4.093530e+13	0.000000e+00	5.873015e-01	8.059109e+14	1.241715e+15	2.613067e+14	1.631500e+04	5.168440e+03	3.004521e+03	0	1.114116e-03
9.700000e+08	4.013727e+13	0.000000e+00	5.873015e-01	7.982569e+14	1.231591e+15	2.601272e+14	1.628844e+04	5.164374e+03	3.002158e+03	0	1.106829e-03
9.800000e+08	3.935267e+13	0.000000e+00	5.873015e-01	7.907264e+14	1.221610e+15	2.589557e+14	1.626213e+04	5.160337e+03	2.999811e+03	0	1.099570e-03
9.900000e+08	3.858121e+13	0.000000e+00	5.873015e-01	7.833165e+14	1.211770e+15	2.577922e+14	1.623607e+04	5.156330e+03	2.997482e+03	0	1.092337e-03
1.000000e+09	3.782259e+13	0.000000e+00	5.873015e-01	7.760248e+14	1.202068e+15	2.566366e+14	1.621026e+04	5.152352e+03	2.995169e+03	0	1.085130e-03
1.010000e+09	3.707651e+13	0.000000e+00	5.873015e-01	7.688484e+14	1.192501e+15	2.554889e+14	1.618468e+04	5.148402e+03	2.992873e+03	0	1.077947e-03
1.020000e+09	3.634270e+13	0.000000e+00	5.873015e-01	7.617849e+14	1.183067e+15	2.543489e+14	1.615934e+04	5.144481e+03	2.990594e+03	0	1.070788e-03
1.030000e+09	3.562089e+13	0.000000e+00	5.873015e-01	7.548319e+14	1.173764e+15	2.532166e+14	1.613423e+04	5.140589e+03	2.988331e+03	0	1.063652e-03
1.040000e+09	3.491080e+13	0.000000e+00	5.873015e-01	7.479869e+14	1.164589e+15	2.520920e+14	1.610935e+04	5.136724e+03	2.986084e+03	0	1.056537e-03
1.050000e+09	3.421218e+13	0.000000e+00	5.873015e-01	7.412475e+14	1.155539e+15	2.509750e+14	1.608469e+04	5.132887e+03	2.983854e+03	0	1.049441e-03
1.060000e+09	3.352479e+13	0.000000e+00	5.873015e-01	7.346116e+14	1.146613e+15	2.498655e+14	1.606025e+04	5.129077e+03	2.981639e+03	0	1.042365e-03
1.070000e+09	3.284837e+13	0.000000e+00	5.873015e-01	7.280769e+14	1.137807e+15	2.487635e+14	1.603604e+04	5.125294e+03	2.979440e+03	0	1.035307e-03
1.080000e+09	3.218269e+13	0.000000e+00	5.873015e-01	7.216412e+14	1.129121e+15	2.476689e+14	1.601204e+04	5.121539e+03	2.977257e+03	0	1.028266e-03
1.090000e+09	3.152752e+13	0.000000e+00	5.873015e-01	7.153025e+14	1.120551e+15	2.465816e+14	1.598825e+04	5.117809e+03	2.975089e+03	0	1.021240e-03
1.100000e+09	3.088263e+13	0.000000e+00	5.873015e-01	7.090587e+14	1.112095e+15	2.455017e+14	1.596466e+04	5.114106e+03	2.972936e+03	0	1.014229e-03
1.110000e+09	3.024780e+13	0.000000e+00	5.873015e-01	7.029079e+14	1.103752e+15	2.444290e+14	1.594129e+04	5.110429e+03	2.970799e+03	0	1.007231e-03
1.120000e+09	2.962283e+13	0.000000e+00	5.873015e-01	6.968481e+14	1.095520e+15	2.433635e+14	1.591811e+04	5.106778e+03	2.968676e+03	0	1.000246e-03
1.130000e+09	2.900751e+13	0.000000e+00	5.873015e-01	6.908775e+14	1.087395e+15	2.423051e+14	1.589514e+04	5.103152e+03	2.966568e+03	0	9.932718e-04
1.140000e+09	2.840163e+13	0.000000e+00	5.873015e-01	6.849942e+14	1.079377e+15	2.412538e+14	1.587236e+04	5.099552e+03	2.964475e+03	0	9.863076e-04
1.150000e+09	2.780500e+13	0.000000e+00	5.873015e-01	6.791964e+14	1.071463e+15	2.402095e+14	1.584977e+04	5.095976e+03	2.962397e+03	0	9.793522e-04
1.160000e+09	2.721742e+13	0.000000e+00	5.873015e-01	6.734824e+14	1.063652e+15	2.391721e+14	1.582738e+04	5.092425e+03	2.960332e+03	0	9.724044e-04
1.170000e+09	2.663871e+13	0.000000e+00	5.873015e-01	6.678505e+14	1.055941e+15	2.381417e+14	1.580517e+04	5.088898e+03	2.958282e+03	0	9.654631e-04
1.180000e+09	2.606870e+13	0.000000e+00	5.873015e-01	6.622990e+14	1.048330e+15	2.371182e+14	1.578315e+04	5.085396e+03	2.956246e+03	0	9.585271e-04
1.190000e+09	2.550719e+13	0.000000e+00	5.873015e-01	6.568265e+14	1.040815e+15	2.361014e+14	1.576131e+04	5.081917e+03	2.954224e+03	0	9.515950e-04
1.200000e+09	2.495403e+13	0.000000e+00	5.873015e-01	6.514312e+14	1.033396e+15	2.350914e+14	1.573965e+04	5.078462e+03	2.952215e+03	0	9.446657e-04
1.210000e+09	2.440903e+13	0.000000e+00	5.873015e-01	6.461117e+14	1.026070e+15	2.340881e+14	1.571817e+04	5.075030e+03	2.950221e+03	0	9.377379e-04
1.220000e+09	2.387205e+13	0.000000e+00	5.873015e-01	6.408664e+14	1.018837e+15	2.330915e+14	1.569686e+04	5.071622e+03	2.948239e+03	0	9.308103e-04
1.230000e+09	2.334291e+13	0.000000e+00	5.873015e-01	6.356940e+14	1.011694e+15	2.321014e+14	1.567573e+04	5.068236e+03	2.946271e+03	0	9.238815e-04
1.240000e+09	2.282147e+13	0.000000e+00	5.873015e-01	6.305930e+14	1.004640e+15	2.311179e+14	1.565476e+04	5.064873e+03	2.944316e+03	0	9.169503e-04
1.250000e+09	2.230757e+13	0.000000e+00	5.873015e-01	6.255621e+14	9.976729e+14	2.301409e+14	1.563397e+04	5.061532e+03	2.942374e+03	0	9.100153e-04
1.260000e+09	2.180106e+13	0.000000e+00	5.873015e-01	6.205998e+14	9.907918e+14	2.291703e+14	1.561334e+04	5.058213e+03	2.940444e+03	0	9.030750e-04
1.270000e+09	2.130181e+13	0.000000e+00	5.873015e-01	6.157049e+14	9.839950e+14	2.282061e+14	1.559287e+04	5.054916e+03	2.938528e+03	0	8.961281e-04
1.280000e+09	2.080966e+13	0.000000e+00	5.873015e-01	6.108761e+14	9.772811e+14	2.272482e+14	1.557256e+04	5.051641e+03	2.936624e+03	0	8.891730e-04
1.290000e+09	2.032449e+13	0.000000e+00	5.873015e-01	6.061122e+14	9.706485e+14	2.262967e+14	1.555241e+04	5.048387e+03	2.934732e+03	0	8.822083e-04
1.300000e+09	1.984615e+13	0.000000e+00	5.873015e-01	6.014119e+14	9.640960e+14	2.253514e+14	1.553242e+04	5.045155e+03	2.932853e+03	0	8.752324e-04
1.310000e+09	1.937453e+13	0.000000e+00	5.873015e-01	5.967740e+14	9.576222e+14	2.244123e+14	1.551258e+04	5.041943e+03	2.930986e+03	0	8.682437e-04
1.320000e+09	1.890948e+13	0.000000e+00	5.873015e-01	5.921974e+14	9.512257e+14	2.234793e+14	1.549290e+04	5.038752e+03	2.929131e+03	0	8.612406e-04
1.330000e+09	1.845089e+13	0.000000e+00	5.873015e-01	5.876810e+14	9.449052e+14	2.225524e+14	1.547337e+04	5.035581e+03	2.927288e+03	0	8.542213e-04
1.340000e+09	1.799864e+13	0.000000e+00	5.873015e-01	5.832236e+14	9.386595e+14	2.216316e+14	1.545398e+04	5.032431e+03	2.925457e+03	0	8.471841e-04
1.350000e+09	1.755260e+13	0.000000e+00	5.873015e-01	5.788241e+14	9.324873e+14	2.207168e+14	1.543474e+04	5.029301e+03	2.923637e+03	0	8.401272e-04
1.360000e+09	1.711266e+13	0.000000e+00	5.873015e-01	5.744816e+14	9.263873e+14	2.198080e+14	1.541565e+04	5.026190e+03	2.921829e+03	0	8.330488e-04
