#t		Qconv[W]	Ri[Rp]		R*[Rp]		Qc[W]		Qm[W]		Qr[W]		Tcmb[K]		Tl[K]		Tup[K]		RiFlag		Bs[T]
0.000000e+00	3.274576e+14	0.000000e+00	5.873017e-01	3.465538e+15	1.654810e+15	4.591917e+14	2.263826e+04	5.283169e+03	3.026308e+03	0	2.224411e-03
1.000000e+07	3.214356e+14	0.000000e+00	5.873017e-01	3.412243e+15	1.757307e+15	4.566475e+14	2.253650e+04	5.331941e+03	3.054246e+03	0	2.210691e-03
2.000000e+07	3.154204e+14	0.000000e+00	5.873017e-01	3.359056e+15	1.855614e+15	4.541222e+14	2.243630e+04	5.377263e+03	3.080207e+03	0	2.196814e-03
3.000000e+07	3.094215e+14	0.000000e+00	5.873017e-01	3.306055e+15	1.949099e+15	4.516159e+14	2.233764e+04	5.419238e+03	3.104251e+03	0	2.182798e-03
4.000000e+07	3.034480e+14	0.000000e+00	5.873017e-01	3.253316e+15	2.037255e+15	4.491282e+14	2.224053e+04	5.457981e+03	3.126444e+03	0	2.168660e-03
5.000000e+07	2.975090e+14	0.000000e+00	5.873017e-01	3.200914e+15	2.119696e+15	4.466591e+14	2.214496e+04	5.493623e+03	3.146861e+03	0	2.154418e-03
6.000000e+07	2.916129e+14	0.000000e+00	5.873017e-01	3.148919e+15	2.196152e+15	4.442084e+14	2.205092e+04	5.526300e+03	3.165579e+03	0	2.140091e-03
7.000000e+07	2.857679e+14	0.000000e+00	5.873017e-01	3.097397e+15	2.266462e+15	4.417760e+14	2.195839e+04	5.556156e+03	3.182681e+03	0	2.125696e-03
8.000000e+07	2.799812e+14	0.000000e+00	5.873017e-01	3.046409e+15	2.330561e+15	4.393616e+14	2.186737e+04	5.583337e+03	3.198251e+03	0	2.111250e-03
9.000000e+07	2.742597e+14	0.000000e+00	5.873017e-01	2.996011e+15	2.388472e+15	4.369652e+14	2.177783e+04	5.607995e+03	3.212375e+03	0	2.096769e-03
1.000000e+08	2.686096e+14	0.000000e+00	5.873017e-01	2.946253e+15	2.440290e+15	4.345866e+14	2.168977e+04	5.630277e+03	3.225139e+03	0	2.082271e-03
1.100000e+08	2.630363e+14	0.000000e+00	5.873017e-01	2.897179e+15	2.486172e+15	4.322257e+14	2.160316e+04	5.650331e+03	3.236626e+03	0	2.067768e-03
1.200000e+08	2.575445e+14	0.000000e+00	5.873017e-01	2.848830e+15	2.526324e+15	4.298822e+14	2.151798e+04	5.668303e+03	3.246921e+03	0	2.053276e-03
1.300000e+08	2.521384e+14	0.000000e+00	5.873017e-01	2.801237e+15	2.560991e+15	4.275561e+14	2.143421e+04	5.684332e+03	3.256102e+03	0	2.038808e-03
1.400000e+08	2.468214e+14	0.000000e+00	5.873017e-01	2.754429e+15	2.590446e+15	4.252473e+14	2.135183e+04	5.698553e+03	3.264249e+03	0	2.024375e-03
1.500000e+08	2.415965e+14	0.000000e+00	5.873017e-01	2.708430e+15	2.614982e+15	4.229554e+14	2.127083e+04	5.711097e+03	3.271434e+03	0	2.009988e-03
1.600000e+08	2.364659e+14	0.000000e+00	5.873017e-01	2.663257e+15	2.634904e+15	4.206806e+14	2.119116e+04	5.722087e+03	3.277729e+03	0	1.995658e-03
1.700000e+08	2.314314e+14	0.000000e+00	5.873017e-01	2.618924e+15	2.650520e+15	4.184224e+14	2.111282e+04	5.731640e+03	3.283201e+03	0	1.981394e-03
1.800000e+08	2.264943e+14	0.000000e+00	5.873017e-01	2.575442e+15	2.662140e+15	4.161810e+14	2.103577e+04	5.739866e+03	3.287914e+03	0	1.967202e-03
1.900000e+08	2.216554e+14	0.000000e+00	5.873017e-01	2.532817e+15	2.670070e+15	4.139560e+14	2.095999e+04	5.746871e+03	3.291926e+03	0	1.953092e-03
2.000000e+08	2.169152e+14	0.000000e+00	5.873017e-01	2.491050e+15	2.674605e+15	4.117475e+14	2.088546e+04	5.752751e+03	3.295294e+03	0	1.939069e-03
2.100000e+08	2.122738e+14	0.000000e+00	5.873017e-01	2.450143e+15	2.676034e+15	4.095551e+14	2.081215e+04	5.757597e+03	3.298071e+03	0	1.925139e-03
2.200000e+08	2.077309e+14	0.000000e+00	5.873017e-01	2.410093e+15	2.674628e+15	4.073789e+14	2.074004e+04	5.761495e+03	3.300304e+03	0	1.911307e-03
2.300000e+08	2.032861e+14	0.000000e+00	5.873017e-01	2.370894e+15	2.670649e+15	4.052186e+14	2.066910e+04	5.764524e+03	3.302038e+03	0	1.897576e-03
2.400000e+08	1.989385e+14	0.000000e+00	5.873017e-01	2.332539e+15	2.664341e+15	4.030742e+14	2.059931e+04	5.766756e+03	3.303317e+03	0	1.883951e-03
2.500000e+08	1.946872e+14	0.000000e+00	5.873017e-01	2.295020e+15	2.655933e+15	4.009455e+14	2.053064e+04	5.768260e+03	3.304178e+03	0	1.870434e-03
2.600000e+08	1.905310e+14	0.000000e+00	5.873017e-01	2.258326e+15	2.645641e+15	3.988324e+14	2.046306e+04	5.769098e+03	3.304659e+03	0	1.857028e-03
2.700000e+08	1.864686e+14	0.000000e+00	5.873017e-01	2.222445e+15	2.633664e+15	3.967347e+14	2.039656e+04	5.769329e+03	3.304791e+03	0	1.843735e-03
2.800000e+08	1.824986e+14	0.000000e+00	5.873017e-01	2.187364e+15	2.620186e+15	3.946523e+14	2.033112e+04	5.769005e+03	3.304605e+03	0	1.830556e-03
2.900000e+08	1.786193e+14	0.000000e+00	5.873017e-01	2.153069e+15	2.605378e+15	3.925852e+14	2.026670e+04	5.768176e+03	3.304130e+03	0	1.817493e-03
3.000000e+08	1.748291e+14	0.000000e+00	5.873017e-01	2.119547e+15	2.589397e+15	3.905331e+14	2.020328e+04	5.766887e+03	3.303392e+03	0	1.804546e-03
3.100000e+08	1.711264e+14	0.000000e+00	5.873017e-01	2.086782e+15	2.572386e+15	3.884959e+14	2.014085e+04	5.765180e+03	3.302414e+03	0	1.791715e-03
3.200000e+08	1.675093e+14	0.000000e+00	5.873017e-01	2.054759e+15	2.554477e+15	3.864736e+14	2.007937e+04	5.763094e+03	3.301219e+03	0	1.779001e-03
3.300000e+08	1.639760e+14	0.000000e+00	5.873017e-01	2.023461e+15	2.535790e+15	3.844659e+14	2.001884e+04	5.760662e+03	3.299826e+03	0	1.766404e-03
3.400000e+08	1.605246e+14	0.000000e+00	5.873017e-01	1.992873e+15	2.516435e+15	3.824729e+14	1.995922e+04	5.757918e+03	3.298254e+03	0	1.753923e-03
3.500000e+08	1.571533e+14	0.000000e+00	5.873017e-01	1.962979e+15	2.496511e+15	3.804943e+14	1.990050e+04	5.754891e+03	3.296521e+03	0	1.741558e-03
3.600000e+08	1.538602e+14	0.000000e+00	5.873017e-01	1.933762e+15	2.476108e+15	3.785301e+14	1.984265e+04	5.751609e+03	3.294640e+03	0	1.729307e-03
3.700000e+08	1.506435e+14	0.000000e+00	5.873017e-01	1.905206e+15	2.455308e+15	3.765801e+14	1.978566e+04	5.748095e+03	3.292628e+03	0	1.717170e-03
3.800000e+08	1.475012e+14	0.000000e+00	5.873017e-01	1.877295e+15	2.434185e+15	3.746442e+14	1.972951e+04	5.744374e+03	3.290496e+03	0	1.705147e-03
3.900000e+08	1.444314e+14	0.000000e+00	5.873017e-01	1.850013e+15	2.412805e+15	3.727223e+14	1.967418e+04	5.740465e+03	3.288257e+03	0	1.693235e-03
4.000000e+08	1.414325e+14	0.000000e+00	5.873017e-01	1.823344e+15	2.391229e+15	3.708142e+14	1.961965e+04	5.736389e+03	3.285922e+03	0	1.681433e-03
4.100000e+08	1.385024e+14	0.000000e+00	5.873017e-01	1.797272e+15	2.369511e+15	3.689200e+14	1.956590e+04	5.732161e+03	3.283500e+03	0	1.669741e-03
4.200000e+08	1.356396e+14	0.000000e+00	5.873017e-01	1.771783e+15	2.347698e+15	3.670393e+14	1.951291e+04	5.727800e+03	3.281002e+03	0	1.658156e-03
4.300000e+08	1.328421e+14	0.000000e+00	5.873017e-01	1.746860e+15	2.325835e+15	3.651723e+14	1.946067e+04	5.723318e+03	3.278435e+03	0	1.646677e-03
4.400000e+08	1.301082e+14	0.000000e+00	5.873017e-01	1.722489e+15	2.303959e+15	3.633186e+14	1.940917e+04	5.718730e+03	3.275807e+03	0	1.635303e-03
4.500000e+08	1.274364e+14	0.000000e+00	5.873017e-01	1.698656e+15	2.282107e+15	3.614783e+14	1.935838e+04	5.714048e+03	3.273125e+03	0	1.624031e-03
4.600000e+08	1.248248e+14	0.000000e+00	5.873017e-01	1.675345e+15	2.260307e+15	3.596512e+14	1.930828e+04	5.709284e+03	3.270396e+03	0	1.612861e-03
4.700000e+08	1.222719e+14	0.000000e+00	5.873017e-01	1.652544e+15	2.238589e+15	3.578372e+14	1.925888e+04	5.704447e+03	3.267625e+03	0	1.601790e-03
4.800000e+08	1.197761e+14	0.000000e+00	5.873017e-01	1.630238e+15	2.216975e+15	3.560362e+14	1.921014e+04	5.699546e+03	3.264818e+03	0	1.590816e-03
4.900000e+08	1.173359e+14	0.000000e+00	5.873017e-01	1.608415e+15	2.195487e+15	3.542481e+14	1.916205e+04	5.694592e+03	3.261980e+03	0	1.579939e-03
5.000000e+08	1.149497e+14	0.000000e+00	5.873017e-01	1.587061e+15	2.174144e+15	3.524727e+14	1.911461e+04	5.689591e+03	3.259115e+03	0	1.569155e-03
5.100000e+08	1.126161e+14	0.000000e+00	5.873017e-01	1.566163e+15	2.152963e+15	3.507101e+14	1.906780e+04	5.684550e+03	3.256228e+03	0	1.558464e-03
5.200000e+08	1.103336e+14	0.000000e+00	5.873017e-01	1.545710e+15	2.131958e+15	3.489600e+14	1.902159e+04	5.679477e+03	3.253322e+03	0	1.547863e-03
5.300000e+08	1.081009e+14	0.000000e+00	5.873017e-01	1.525689e+15	2.111140e+15	3.472225e+14	1.897599e+04	5.674377e+03	3.250400e+03	0	1.537351e-03
5.400000e+08	1.059166e+14	0.000000e+00	5.873017e-01	1.506089e+15	2.090522e+15	3.454973e+14	1.893098e+04	5.669256e+03	3.247467e+03	0	1.526926e-03
5.500000e+08	1.037793e+14	0.000000e+00	5.873017e-01	1.486898e+15	2.070111e+15	3.437843e+14	1.888654e+04	5.664119e+03	3.244524e+03	0	1.516586e-03
5.600000e+08	1.016879e+14	0.000000e+00	5.873017e-01	1.468106e+15	2.049917e+15	3.420836e+14	1.884267e+04	5.658970e+03	3.241575e+03	0	1.506329e-03
5.700000e+08	9.964107e+13	0.000000e+00	5.873017e-01	1.449701e+15	2.029945e+15	3.403949e+14	1.879935e+04	5.653814e+03	3.238621e+03	0	1.496153e-03
5.800000e+08	9.763758e+13	0.000000e+00	5.873017e-01	1.431674e+15	2.010200e+15	3.387182e+14	1.875657e+04	5.648654e+03	3.235666e+03	0	1.486058e-03
5.900000e+08	9.567628e+13	0.000000e+00	5.873017e-01	1.414014e+15	1.990688e+15	3.370534e+14	1.871432e+04	5.643494e+03	3.232710e+03	0	1.476040e-03
6.000000e+08	9.375604e+13	0.000000e+00	5.873017e-01	1.396712e+15	1.971411e+15	3.354004e+14	1.867259e+04	5.638337e+03	3.229756e+03	0	1.466098e-03
6.100000e+08	9.187575e+13	0.000000e+00	5.873017e-01	1.379758e+15	1.952373e+15	3.337590e+14	1.863136e+04	5.633186e+03	3.226805e+03	0	1.456231e-03
6.200000e+08	9.003435e+13	0.000000e+00	5.873017e-01	1.363142e+15	1.933575e+15	3.321293e+14	1.859064e+04	5.628044e+03	3.223860e+03	0	1.446437e-03
6.300000e+08	8.823080e+13	0.000000e+00	5.873017e-01	1.346857e+15	1.915018e+15	3.305111e+14	1.855040e+04	5.622913e+03	3.220920e+03	0	1.436713e-03
6.400000e+08	8.646409e+13	0.000000e+00	5.873017e-01	1.330893e+15	1.896703e+15	3.289043e+14	1.851064e+04	5.617794e+03	3.217988e+03	0	1.427059e-03
6.500000e+08	8.473325e+13	0.000000e+00	5.873017e-01	1.315242e+15	1.878631e+15	3.273088e+14	1.847136e+04	5.612691e+03	3.215065e+03	0	1.417472e-03
6.600000e+08	8.303734e+13	0.000000e+00	5.873017e-01	1.299895e+15	1.860802e+15	3.257245e+14	1.843253e+04	5.607604e+03	3.212152e+03	0	1.407952e-03
6.700000e+08	8.137542e+13	0.000000e+00	5.873017e-01	1.284846e+15	1.843213e+15	3.241514e+14	1.839415e+04	5.602536e+03	3.209249e+03	0	1.398495e-03
6.800000e+08	7.974662e+13	0.000000e+00	5.873017e-01	1.270085e+15	1.825866e+15	3.225893e+14	1.835622e+04	5.597488e+03	3.206357e+03	0	1.389102e-03
6.900000e+08	7.815008e+13	0.000000e+00	5.873017e-01	1.255607e+15	1.808757e+15	3.210381e+14	1.831872e+04	5.592461e+03	3.203477e+03	0	1.379769e-03
7.000000e+08	7.658495e+13	0.000000e+00	5.873017e-01	1.241403e+15	1.791886e+15	3.194979e+14	1.828164e+04	5.587457e+03	3.200611e+03	0	1.370496e-03
7.100000e+08	7.505043e+13	0.000000e+00	5.873017e-01	1.227466e+15	1.775250e+15	3.179684e+14	1.824499e+04	5.582476e+03	3.197757e+03	0	1.361281e-03
7.200000e+08	7.354572e+13	0.000000e+00	5.873017e-01	1.213790e+15	1.758848e+15	3.164497e+14	1.820874e+04	5.577519e+03	3.194918e+03	0	1.352122e-03
7.300000e+08	7.207008e+13	0.000000e+00	5.873017e-01	1.200369e+15	1.742677e+15	3.149415e+14	1.817290e+04	5.572588e+03	3.192093e+03	0	1.343017e-03
7.400000e+08	7.062275e+13	0.000000e+00	5.873017e-01	1.187195e+15	1.726735e+15	3.134439e+14	1.813745e+04	5.567682e+03	3.189283e+03	0	1.333966e-03
7.500000e+08	6.920302e+13	0.000000e+00	5.873017e-01	1.174263e+15	1.711019e+15	3.119567e+14	1.810239e+04	5.562803e+03	3.186488e+03	0	1.324967e-03
7.600000e+08	6.781020e+13	0.000000e+00	5.873017e-01	1.161567e+15	1.695527e+15	3.104798e+14	1.806770e+04	5.557951e+03	3.183709e+03	0	1.316017e-03
7.700000e+08	6.644361e+13	0.000000e+00	5.873017e-01	1.149100e+15	1.680255e+15	3.090133e+14	1.803340e+04	5.553127e+03	3.180946e+03	0	1.307117e-03
7.800000e+08	6.510259e+13	0.000000e+00	5.873017e-01	1.136858e+15	1.665201e+15	3.075569e+14	1.799946e+04	5.548331e+03	3.178198e+03	0	1.298263e-03
7.900000e+08	6.378652e+13	0.000000e+00	5.873017e-01	1.124834e+15	1.650362e+15	3.061107e+14	1.796588e+04	5.543563e+03	3.175467e+03	0	1.289455e-03
8.000000e+08	6.249477e+13	0.000000e+00	5.873017e-01	1.113024e+15	1.635735e+15	3.046745e+14	1.793265e+04	5.538825e+03	3.172753e+03	0	1.280692e-03
8.100000e+08	6.122676e+13	0.000000e+00	5.873017e-01	1.101422e+15	1.621317e+15	3.032482e+14	1.789977e+04	5.534115e+03	3.170055e+03	0	1.271971e-03
8.200000e+08	5.998189e+13	0.000000e+00	5.873017e-01	1.090023e+15	1.607104e+15	3.018318e+14	1.786723e+04	5.529435e+03	3.167374e+03	0	1.263291e-03
8.300000e+08	5.875961e+13	0.000000e+00	5.873017e-01	1.078823e+15	1.593095e+15	3.004252e+14	1.783503e+04	5.524784e+03	3.164710e+03	0	1.254651e-03
8.400000e+08	5.755937e+13	0.000000e+00	5.873017e-01	1.067816e+15	1.579284e+15	2.990283e+14	1.780316e+04	5.520162e+03	3.162063e+03	0	1.246050e-03
8.500000e+08	5.638064e+13	0.000000e+00	5.873017e-01	1.056999e+15	1.565671e+15	2.976411e+14	1.777161e+04	5.515571e+03	3.159433e+03	0	1.237485e-03
8.600000e+08	5.522292e+13	0.000000e+00	5.873017e-01	1.046366e+15	1.552250e+15	2.962634e+14	1.774038e+04	5.511009e+03	3.156820e+03	0	1.228956e-03
8.700000e+08	5.408569e+13	0.000000e+00	5.873017e-01	1.035913e+15	1.539020e+15	2.948952e+14	1.770947e+04	5.506477e+03	3.154224e+03	0	1.220462e-03
8.800000e+08	5.296847e+13	0.000000e+00	5.873017e-01	1.025636e+15	1.525977e+15	2.935364e+14	1.767886e+04	5.501975e+03	3.151645e+03	0	1.212000e-03
8.900000e+08	5.187079e+13	0.000000e+00	5.873017e-01	1.015532e+15	1.513118e+15	2.921869e+14	1.764855e+04	5.497502e+03	3.149083e+03	0	1.203569e-03
9.000000e+08	5.079221e+13	0.000000e+00	5.873017e-01	1.005595e+15	1.500440e+15	2.908467e+14	1.761855e+04	5.493060e+03	3.146538e+03	0	1.195168e-03
9.100000e+08	4.973226e+13	0.000000e+00	5.873017e-01	9.958228e+14	1.487939e+15	2.895157e+14	1.758883e+04	5.488647e+03	3.144010e+03	0	1.186796e-03
9.200000e+08	4.869052e+13	0.000000e+00	5.873017e-01	9.862111e+14	1.475614e+15	2.881938e+14	1.755940e+04	5.484263e+03	3.141499e+03	0	1.178451e-03
9.300000e+08	4.766658e+13	0.000000e+00	5.873017e-01	9.767562e+14	1.463461e+15	2.868810e+14	1.753026e+04	5.479910e+03	3.139005e+03	0	1.170131e-03
9.400000e+08	4.666002e+13	0.000000e+00	5.873017e-01	9.674546e+14	1.451477e+15	2.855771e+14	1.750139e+04	5.475585e+03	3.136528e+03	0	1.161836e-03
9.500000e+08	4.567044e+13	0.000000e+00	5.873017e-01	9.583030e+14	1.439659e+15	2.842821e+14	1.747280e+04	5.471290e+03	3.134068e+03	0	1.153564e-03
9.600000e+08	4.469748e+13	0.000000e+00	5.873017e-01	9.492980e+14	1.428004e+15	2.829960e+14	1.744448e+04	5.467024e+03	3.131624e+03	0	1.145313e-03
9.700000e+08	4.374074e+13	0.000000e+00	5.873017e-01	9.404363e+14	1.416510e+15	2.817186e+14	1.741642e+04	5.462787e+03	3.129197e+03	0	1.137083e-03
9.800000e+08	4.279986e+13	0.000000e+00	5.873017e-01	9.317147e+14	1.405173e+15	2.804499e+14	1.738862e+04	5.458579e+03	3.126786e+03	0	1.128870e-03
9.900000e+08	4.187451e+13	0.000000e+00	5.873017e-01	9.231304e+14	1.393992e+15	2.791898e+14	1.736108e+04	5.454399e+03	3.124392e+03	0	1.120676e-03
1.000000e+09	4.096432e+13	0.000000e+00	5.873017e-01	9.146801e+14	1.382962e+15	2.779383e+14	1.733380e+04	5.450248e+03	3.122014e+03	0	1.112496e-03
1.010000e+09	4.006896e+13	0.000000e+00	5.873017e-01	9.063611e+14	1.372082e+15	2.766953e+14	1.730676e+04	5.446125e+03	3.119653e+03	0	1.104331e-03
1.020000e+09	3.918812e+13	0.000000e+00	5.873017e-01	8.981705e+14	1.361349e+15	2.754607e+14	1.727997e+04	5.442030e+03	3.117307e+03	0	1.096179e-03
1.030000e+09	3.832148e+13	0.000000e+00	5.873017e-01	8.901056e+14	1.350760e+15	2.742344e+14	1.725342e+04	5.437963e+03	3.114977e+03	0	1.088038e-03
1.040000e+09	3.746871e+13	0.000000e+00	5.873017e-01	8.821637e+14	1.340313e+15	2.730164e+14	1.722711e+04	5.433923e+03	3.112663e+03	0	1.079907e-03
1.050000e+09	3.662954e+13	0.000000e+00	5.873017e-01	8.743422e+14	1.330006e+15	2.718067e+14	1.720103e+04	5.429911e+03	3.110365e+03	0	1.071784e-03
1.060000e+09	3.580367e+13	0.000000e+00	5.873017e-01	8.666385e+14	1.319835e+15	2.706051e+14	1.717518e+04	5.425926e+03	3.108083e+03	0	1.063667e-03
1.070000e+09	3.499080e+13	0.000000e+00	5.873017e-01	8.590503e+14	1.309799e+15	2.694116e+14	1.714956e+04	5.421968e+03	3.105815e+03	0	1.055556e-03
1.080000e+09	3.419068e+13	0.000000e+00	5.873017e-01	8.515751e+14	1.299895e+15	2.682262e+14	1.712416e+04	5.418037e+03	3.103564e+03	0	1.047448e-03
1.090000e+09	3.340302e+13	0.000000e+00	5.873017e-01	8.442105e+14	1.290121e+15	2.670487e+14	1.709898e+04	5.414133e+03	3.101327e+03	0	1.039342e-03
1.100000e+09	3.262757e+13	0.000000e+00	5.873017e-01	8.369543e+14	1.280474e+15	2.658791e+14	1.707402e+04	5.410254e+03	3.099105e+03	0	1.031236e-03
1.110000e+09	3.186407e+13	0.000000e+00	5.873017e-01	8.298043e+14	1.270953e+15	2.647174e+14	1.704928e+04	5.406402e+03	3.096899e+03	0	1.023129e-03
1.120000e+09	3.111227e+13	0.000000e+00	5.873017e-01	8.227583e+14	1.261555e+15	2.635634e+14	1.702474e+04	5.402575e+03	3.094707e+03	0	1.015018e-03
1.130000e+09	3.037194e+13	0.000000e+00	5.873017e-01	8.158142e+14	1.252278e+15	2.624172e+14	1.700041e+04	5.398775e+03	3.092529e+03	0	1.006903e-03
1.140000e+09	2.964283e+13	0.000000e+00	5.873017e-01	8.089700e+14	1.243120e+15	2.612786e+14	1.697629e+04	5.394999e+03	3.090367e+03	0	9.987801e-04
1.150000e+09	2.892473e+13	0.000000e+00	5.873017e-01	8.022236e+14	1.234078e+15	2.601476e+14	1.695237e+04	5.391249e+03	3.088218e+03	0	9.906488e-04
1.160000e+09	2.821739e+13	0.000000e+00	5.873017e-01	7.955732e+14	1.225152e+15	2.590242e+14	1.692865e+04	5.387523e+03	3.086084e+03	0	9.825069e-04
1.170000e+09	2.752061e+13	0.000000e+00	5.873017e-01	7.890167e+14	1.216338e+15	2.579083e+14	1.690512e+04	5.383822e+03	3.083964e+03	0	9.743523e-04
1.180000e+09	2.683418e+13	0.000000e+00	5.873017e-01	7.825525e+14	1.207635e+15	2.567998e+14	1.688179e+04	5.380145e+03	3.081858e+03	0	9.661831e-04
1.190000e+09	2.615788e+13	0.000000e+00	5.873017e-01	7.761785e+14	1.199041e+15	2.556986e+14	1.685865e+04	5.376493e+03	3.079766e+03	0	9.579971e-04
1.200000e+09	2.549152e+13	0.000000e+00	5.873017e-01	7.698932e+14	1.190554e+15	2.546048e+14	1.683569e+04	5.372864e+03	3.077688e+03	0	9.497921e-04
1.210000e+09	2.483490e+13	0.000000e+00	5.873017e-01	7.636947e+14	1.182173e+15	2.535182e+14	1.681293e+04	5.369260e+03	3.075623e+03	0	9.415660e-04
1.220000e+09	2.418782e+13	0.000000e+00	5.873017e-01	7.575815e+14	1.173894e+15	2.524388e+14	1.679034e+04	5.365678e+03	3.073571e+03	0	9.333164e-04
1.230000e+09	2.355011e+13	0.000000e+00	5.873017e-01	7.515518e+14	1.165718e+15	2.513666e+14	1.676793e+04	5.362120e+03	3.071533e+03	0	9.250409e-04
1.240000e+09	2.292157e+13	0.000000e+00	5.873017e-01	7.456041e+14	1.157642e+15	2.503014e+14	1.674571e+04	5.358585e+03	3.069508e+03	0	9.167370e-04
1.250000e+09	2.230203e+13	0.000000e+00	5.873017e-01	7.397368e+14	1.149664e+15	2.492433e+14	1.672365e+04	5.355073e+03	3.067496e+03	0	9.084020e-04
1.260000e+09	2.169131e+13	0.000000e+00	5.873017e-01	7.339484e+14	1.141783e+15	2.481921e+14	1.670177e+04	5.351583e+03	3.065497e+03	0	9.000333e-04
1.270000e+09	2.108925e+13	0.000000e+00	5.873017e-01	7.282374e+14	1.133996e+15	2.471479e+14	1.668007e+04	5.348115e+03	3.063511e+03	0	8.916280e-04
1.280000e+09	2.049568e+13	0.000000e+00	5.873017e-01	7.226024e+14	1.126303e+15	2.461106e+14	1.665853e+04	5.344670e+03	3.061537e+03	0	8.831831e-04
1.290000e+09	1.991044e+13	0.000000e+00	5.873017e-01	7.170420e+14	1.118702e+15	2.450800e+14	1.663715e+04	5.341246e+03	3.059576e+03	0	8.746956e-04
1.300000e+09	1.933338e+13	0.000000e+00	5.873017e-01	7.115547e+14	1.111192e+15	2.440563e+14	1.661594e+04	5.337844e+03	3.057627e+03	0	8.661622e-04
1.310000e+09	1.876433e+13	0.000000e+00	5.873017e-01	7.061393e+14	1.103770e+15	2.430392e+14	1.659490e+04	5.334464e+03	3.055691e+03	0	8.575793e-04
1.320000e+09	1.820314e+13	0.000000e+00	5.873017e-01	7.007944e+14	1.096436e+15	2.420288e+14	1.657401e+04	5.331104e+03	3.053767e+03	0	8.489435e-04
1.330000e+09	1.764968e+13	0.000000e+00	5.873017e-01	6.955187e+14	1.089187e+15	2.410250e+14	1.655328e+04	5.327766e+03	3.051854e+03	0	8.402508e-04
1.340000e+09	1.710380e+13	0.000000e+00	5.873017e-01	6.903110e+14	1.082024e+15	2.400278e+14	1.653270e+04	5.324448e+03	3.049954e+03	0	8.314973e-04
1.350000e+09	1.656535e+13	0.000000e+00	5.873017e-01	6.851701e+14	1.074943e+15	2.390370e+14	1.651228e+04	5.321151e+03	3.048065e+03	0	8.226786e-04
1.360000e+09	1.603421e+13	0.000000e+00	5.873017e-01	6.800947e+14	1.067944e+15	2.380528e+14	1.649201e+04	5.317875e+03	3.046188e+03	0	8.137903e-04
