#t		Qconv[W]	Ri[Rp]		R*[Rp]		Qc[W]		Qm[W]		Qr[W]		Tcmb[K]		Tl[K]		Tup[K]		RiFlag		Bs[T]
0.000000e+00	3.583609e+14	0.000000e+00	5.873016e-01	3.793665e+15	1.553676e+15	4.945145e+14	2.390967e+04	5.435695e+03	3.070396e+03	0	2.289020e-03
1.000000e+07	3.524132e+14	0.000000e+00	5.873016e-01	3.742368e+15	1.663764e+15	4.917745e+14	2.380912e+04	5.490760e+03	3.101500e+03	0	2.276286e-03
2.000000e+07	3.464372e+14	0.000000e+00	5.873016e-01	3.690899e+15	1.771401e+15	4.890550e+14	2.370993e+04	5.542465e+03	3.130706e+03	0	2.263346e-03
3.000000e+07	3.404420e+14	0.000000e+00	5.873016e-01	3.639330e+15	1.875799e+15	4.863559e+14	2.361209e+04	5.590866e+03	3.158045e+03	0	2.250214e-03
4.000000e+07	3.344370e+14	0.000000e+00	5.873016e-01	3.587737e+15	1.976263e+15	4.836769e+14	2.351561e+04	5.636034e+03	3.183559e+03	0	2.236905e-03
5.000000e+07	3.284316e+14	0.000000e+00	5.873016e-01	3.536193e+15	2.072199e+15	4.810179e+14	2.342049e+04	5.678057e+03	3.207296e+03	0	2.223435e-03
6.000000e+07	3.224349e+14	0.000000e+00	5.873016e-01	3.484773e+15	2.163121e+15	4.783787e+14	2.332673e+04	5.717036e+03	3.229314e+03	0	2.209819e-03
7.000000e+07	3.164560e+14	0.000000e+00	5.873016e-01	3.433548e+15	2.248647e+15	4.757591e+14	2.323431e+04	5.753080e+03	3.249674e+03	0	2.196075e-03
8.000000e+07	3.105037e+14	0.000000e+00	5.873016e-01	3.382587e+15	2.328498e+15	4.731590e+14	2.314325e+04	5.786309e+03	3.268443e+03	0	2.182219e-03
9.000000e+07	3.045863e+14	0.000000e+00	5.873016e-01	3.331957e+15	2.402492e+15	4.705783e+14	2.305353e+04	5.816847e+03	3.285693e+03	0	2.168268e-03
1.000000e+08	2.987115e+14	0.000000e+00	5.873016e-01	3.281719e+15	2.470532e+15	4.680167e+14	2.296515e+04	5.844824e+03	3.301496e+03	0	2.154237e-03
1.100000e+08	2.928865e+14	0.000000e+00	5.873016e-01	3.231929e+15	2.532602e+15	4.654742e+14	2.287809e+04	5.870372e+03	3.315927e+03	0	2.140142e-03
1.200000e+08	2.871181e+14	0.000000e+00	5.873016e-01	3.182641e+15	2.588756e+15	4.629504e+14	2.279234e+04	5.893623e+03	3.329060e+03	0	2.125998e-03
1.300000e+08	2.814122e+14	0.000000e+00	5.873016e-01	3.133902e+15	2.639104e+15	4.604454e+14	2.270789e+04	5.914708e+03	3.340970e+03	0	2.111821e-03
1.400000e+08	2.757742e+14	0.000000e+00	5.873016e-01	3.085754e+15	2.683808e+15	4.579589e+14	2.262473e+04	5.933758e+03	3.351731e+03	0	2.097622e-03
1.500000e+08	2.702090e+14	0.000000e+00	5.873016e-01	3.038235e+15	2.723068e+15	4.554908e+14	2.254283e+04	5.950900e+03	3.361414e+03	0	2.083416e-03
1.600000e+08	2.647207e+14	0.000000e+00	5.873016e-01	2.991378e+15	2.757114e+15	4.530409e+14	2.246219e+04	5.966257e+03	3.370088e+03	0	2.069214e-03
1.700000e+08	2.593130e+14	0.000000e+00	5.873016e-01	2.945211e+15	2.786200e+15	4.506091e+14	2.238279e+04	5.979948e+03	3.377822e+03	0	2.055027e-03
1.800000e+08	2.539889e+14	0.000000e+00	5.873016e-01	2.899758e+15	2.810594e+15	4.481952e+14	2.230460e+04	5.992088e+03	3.384679e+03	0	2.040865e-03
1.900000e+08	2.487510e+14	0.000000e+00	5.873016e-01	2.855037e+15	2.830576e+15	4.457991e+14	2.222761e+04	6.002786e+03	3.390722e+03	0	2.026739e-03
2.000000e+08	2.436014e+14	0.000000e+00	5.873016e-01	2.811066e+15	2.846427e+15	4.434207e+14	2.215180e+04	6.012144e+03	3.396008e+03	0	2.012655e-03
2.100000e+08	2.385416e+14	0.000000e+00	5.873016e-01	2.767856e+15	2.858430e+15	4.410597e+14	2.207716e+04	6.020263e+03	3.400594e+03	0	1.998623e-03
2.200000e+08	2.335729e+14	0.000000e+00	5.873016e-01	2.725415e+15	2.866863e+15	4.387161e+14	2.200365e+04	6.027233e+03	3.404531e+03	0	1.984648e-03
2.300000e+08	2.286961e+14	0.000000e+00	5.873016e-01	2.683749e+15	2.871997e+15	4.363896e+14	2.193127e+04	6.033143e+03	3.407870e+03	0	1.970738e-03
2.400000e+08	2.239116e+14	0.000000e+00	5.873016e-01	2.642862e+15	2.874095e+15	4.340802e+14	2.185998e+04	6.038074e+03	3.410655e+03	0	1.956898e-03
2.500000e+08	2.192195e+14	0.000000e+00	5.873016e-01	2.602753e+15	2.873410e+15	4.317878e+14	2.178978e+04	6.042102e+03	3.412930e+03	0	1.943133e-03
2.600000e+08	2.146199e+14	0.000000e+00	5.873016e-01	2.563422e+15	2.870181e+15	4.295121e+14	2.172064e+04	6.045299e+03	3.414736e+03	0	1.929447e-03
2.700000e+08	2.101123e+14	0.000000e+00	5.873016e-01	2.524864e+15	2.864636e+15	4.272530e+14	2.165253e+04	6.047731e+03	3.416109e+03	0	1.915843e-03
2.800000e+08	2.056961e+14	0.000000e+00	5.873016e-01	2.487073e+15	2.856989e+15	4.250105e+14	2.158544e+04	6.049460e+03	3.417086e+03	0	1.902325e-03
2.900000e+08	2.013706e+14	0.000000e+00	5.873016e-01	2.450044e+15	2.847441e+15	4.227843e+14	2.151936e+04	6.050544e+03	3.417698e+03	0	1.888896e-03
3.000000e+08	1.971348e+14	0.000000e+00	5.873016e-01	2.413767e+15	2.836180e+15	4.205744e+14	2.145425e+04	6.051035e+03	3.417976e+03	0	1.875558e-03
3.100000e+08	1.929877e+14	0.000000e+00	5.873016e-01	2.378234e+15	2.823383e+15	4.183805e+14	2.139010e+04	6.050984e+03	3.417947e+03	0	1.862313e-03
3.200000e+08	1.889280e+14	0.000000e+00	5.873016e-01	2.343433e+15	2.809210e+15	4.162026e+14	2.132689e+04	6.050435e+03	3.417637e+03	0	1.849162e-03
3.300000e+08	1.849545e+14	0.000000e+00	5.873016e-01	2.309355e+15	2.793813e+15	4.140405e+14	2.126460e+04	6.049431e+03	3.417070e+03	0	1.836106e-03
3.400000e+08	1.810657e+14	0.000000e+00	5.873016e-01	2.275987e+15	2.777330e+15	4.118942e+14	2.120321e+04	6.048012e+03	3.416268e+03	0	1.823146e-03
3.500000e+08	1.772603e+14	0.000000e+00	5.873016e-01	2.243316e+15	2.759889e+15	4.097634e+14	2.114270e+04	6.046212e+03	3.415252e+03	0	1.810283e-03
3.600000e+08	1.735366e+14	0.000000e+00	5.873016e-01	2.211331e+15	2.741608e+15	4.076481e+14	2.108306e+04	6.044066e+03	3.414039e+03	0	1.797518e-03
3.700000e+08	1.698932e+14	0.000000e+00	5.873016e-01	2.180017e+15	2.722593e+15	4.055481e+14	2.102426e+04	6.041604e+03	3.412648e+03	0	1.784849e-03
3.800000e+08	1.663284e+14	0.000000e+00	5.873016e-01	2.149362e+15	2.702945e+15	4.034632e+14	2.096630e+04	6.038853e+03	3.411095e+03	0	1.772277e-03
3.900000e+08	1.628406e+14	0.000000e+00	5.873016e-01	2.119352e+15	2.682752e+15	4.013935e+14	2.090914e+04	6.035841e+03	3.409393e+03	0	1.759801e-03
4.000000e+08	1.594281e+14	0.000000e+00	5.873016e-01	2.089972e+15	2.662097e+15	3.993387e+14	2.085278e+04	6.032591e+03	3.407557e+03	0	1.747422e-03
4.100000e+08	1.560894e+14	0.000000e+00	5.873016e-01	2.061211e+15	2.641054e+15	3.972987e+14	2.079719e+04	6.029125e+03	3.405600e+03	0	1.735138e-03
4.200000e+08	1.528228e+14	0.000000e+00	5.873016e-01	2.033053e+15	2.619691e+15	3.952734e+14	2.074237e+04	6.025463e+03	3.403531e+03	0	1.722948e-03
4.300000e+08	1.496266e+14	0.000000e+00	5.873016e-01	2.005485e+15	2.598069e+15	3.932627e+14	2.068829e+04	6.021624e+03	3.401363e+03	0	1.710852e-03
4.400000e+08	1.464993e+14	0.000000e+00	5.873016e-01	1.978493e+15	2.576245e+15	3.912665e+14	2.063494e+04	6.017626e+03	3.399104e+03	0	1.698848e-03
4.500000e+08	1.434392e+14	0.000000e+00	5.873016e-01	1.952065e+15	2.554269e+15	3.892846e+14	2.058231e+04	6.013483e+03	3.396764e+03	0	1.686936e-03
4.600000e+08	1.404446e+14	0.000000e+00	5.873016e-01	1.926186e+15	2.532186e+15	3.873169e+14	2.053038e+04	6.009211e+03	3.394351e+03	0	1.675114e-03
4.700000e+08	1.375141e+14	0.000000e+00	5.873016e-01	1.900844e+15	2.510038e+15	3.853634e+14	2.047913e+04	6.004823e+03	3.391873e+03	0	1.663381e-03
4.800000e+08	1.346460e+14	0.000000e+00	5.873016e-01	1.876025e+15	2.487861e+15	3.834239e+14	2.042855e+04	6.000331e+03	3.389336e+03	0	1.651736e-03
4.900000e+08	1.318389e+14	0.000000e+00	5.873016e-01	1.851718e+15	2.465688e+15	3.814982e+14	2.037863e+04	5.995747e+03	3.386746e+03	0	1.640177e-03
5.000000e+08	1.290912e+14	0.000000e+00	5.873016e-01	1.827908e+15	2.443549e+15	3.795863e+14	2.032936e+04	5.991081e+03	3.384110e+03	0	1.628702e-03
5.100000e+08	1.264015e+14	0.000000e+00	5.873016e-01	1.804585e+15	2.421471e+15	3.776881e+14	2.028071e+04	5.986341e+03	3.381433e+03	0	1.617311e-03
5.200000e+08	1.237683e+14	0.000000e+00	5.873016e-01	1.781736e+15	2.399478e+15	3.758034e+14	2.023269e+04	5.981538e+03	3.378720e+03	0	1.606001e-03
5.300000e+08	1.211901e+14	0.000000e+00	5.873016e-01	1.759349e+15	2.377590e+15	3.739321e+14	2.018527e+04	5.976680e+03	3.375976e+03	0	1.594772e-03
5.400000e+08	1.186657e+14	0.000000e+00	5.873016e-01	1.737413e+15	2.355827e+15	3.720742e+14	2.013844e+04	5.971772e+03	3.373204e+03	0	1.583621e-03
5.500000e+08	1.161936e+14	0.000000e+00	5.873016e-01	1.715916e+15	2.334204e+15	3.702295e+14	2.009219e+04	5.966824e+03	3.370408e+03	0	1.572547e-03
5.600000e+08	1.137726e+14	0.000000e+00	5.873016e-01	1.694848e+15	2.312737e+15	3.683980e+14	2.004652e+04	5.961840e+03	3.367593e+03	0	1.561548e-03
5.700000e+08	1.114012e+14	0.000000e+00	5.873016e-01	1.674198e+15	2.291438e+15	3.665794e+14	2.000140e+04	5.956826e+03	3.364761e+03	0	1.550623e-03
5.800000e+08	1.090784e+14	0.000000e+00	5.873016e-01	1.653956e+15	2.270319e+15	3.647737e+14	1.995683e+04	5.951788e+03	3.361915e+03	0	1.539769e-03
5.900000e+08	1.068028e+14	0.000000e+00	5.873016e-01	1.634110e+15	2.249389e+15	3.629808e+14	1.991279e+04	5.946730e+03	3.359058e+03	0	1.528986e-03
6.000000e+08	1.045733e+14	0.000000e+00	5.873016e-01	1.614652e+15	2.228657e+15	3.612007e+14	1.986929e+04	5.941657e+03	3.356193e+03	0	1.518272e-03
6.100000e+08	1.023886e+14	0.000000e+00	5.873016e-01	1.595571e+15	2.208130e+15	3.594331e+14	1.982629e+04	5.936573e+03	3.353321e+03	0	1.507625e-03
6.200000e+08	1.002477e+14	0.000000e+00	5.873016e-01	1.576858e+15	2.187814e+15	3.576780e+14	1.978381e+04	5.931482e+03	3.350445e+03	0	1.497043e-03
6.300000e+08	9.814941e+13	0.000000e+00	5.873016e-01	1.558505e+15	2.167715e+15	3.559353e+14	1.974182e+04	5.926387e+03	3.347567e+03	0	1.486524e-03
6.400000e+08	9.609272e+13	0.000000e+00	5.873016e-01	1.540501e+15	2.147835e+15	3.542048e+14	1.970032e+04	5.921291e+03	3.344689e+03	0	1.476068e-03
6.500000e+08	9.407654e+13	0.000000e+00	5.873016e-01	1.522839e+15	2.128180e+15	3.524866e+14	1.965929e+04	5.916197e+03	3.341812e+03	0	1.465671e-03
6.600000e+08	9.209988e+13	0.000000e+00	5.873016e-01	1.505509e+15	2.108751e+15	3.507805e+14	1.961874e+04	5.911108e+03	3.338937e+03	0	1.455333e-03
6.700000e+08	9.016173e+13	0.000000e+00	5.873016e-01	1.488505e+15	2.089551e+15	3.490863e+14	1.957864e+04	5.906026e+03	3.336066e+03	0	1.445052e-03
6.800000e+08	8.826114e+13	0.000000e+00	5.873016e-01	1.471817e+15	2.070581e+15	3.474041e+14	1.953899e+04	5.900953e+03	3.333201e+03	0	1.434826e-03
6.900000e+08	8.639717e+13	0.000000e+00	5.873016e-01	1.455438e+15	2.051842e+15	3.457336e+14	1.949979e+04	5.895891e+03	3.330341e+03	0	1.424654e-03
7.000000e+08	8.456891e+13	0.000000e+00	5.873016e-01	1.439360e+15	2.033334e+15	3.440749e+14	1.946102e+04	5.890842e+03	3.327490e+03	0	1.414533e-03
7.100000e+08	8.277547e+13	0.000000e+00	5.873016e-01	1.423576e+15	2.015058e+15	3.424278e+14	1.942268e+04	5.885808e+03	3.324646e+03	0	1.404462e-03
7.200000e+08	8.101601e+13	0.000000e+00	5.873016e-01	1.408079e+15	1.997014e+15	3.407922e+14	1.938476e+04	5.880790e+03	3.321812e+03	0	1.394440e-03
7.300000e+08	7.928969e+13	0.000000e+00	5.873016e-01	1.392862e+15	1.979200e+15	3.391680e+14	1.934725e+04	5.875790e+03	3.318987e+03	0	1.384464e-03
7.400000e+08	7.759568e+13	0.000000e+00	5.873016e-01	1.377918e+15	1.961615e+15	3.375552e+14	1.931014e+04	5.870808e+03	3.316173e+03	0	1.374533e-03
7.500000e+08	7.593322e+13	0.000000e+00	5.873016e-01	1.363241e+15	1.944259e+15	3.359536e+14	1.927343e+04	5.865847e+03	3.313371e+03	0	1.364646e-03
7.600000e+08	7.430152e+13	0.000000e+00	5.873016e-01	1.348824e+15	1.927130e+15	3.343631e+14	1.923711e+04	5.860906e+03	3.310580e+03	0	1.354800e-03
7.700000e+08	7.269986e+13	0.000000e+00	5.873016e-01	1.334661e+15	1.910226e+15	3.327838e+14	1.920117e+04	5.855987e+03	3.307801e+03	0	1.344995e-03
7.800000e+08	7.112749e+13	0.000000e+00	5.873016e-01	1.320746e+15	1.893546e+15	3.312154e+14	1.916561e+04	5.851091e+03	3.305036e+03	0	1.335227e-03
7.900000e+08	6.958373e+13	0.000000e+00	5.873016e-01	1.307074e+15	1.877087e+15	3.296579e+14	1.913042e+04	5.846218e+03	3.302283e+03	0	1.325497e-03
8.000000e+08	6.806788e+13	0.000000e+00	5.873016e-01	1.293637e+15	1.860847e+15	3.281112e+14	1.909559e+04	5.841369e+03	3.299544e+03	0	1.315801e-03
8.100000e+08	6.657930e+13	0.000000e+00	5.873016e-01	1.280432e+15	1.844823e+15	3.265752e+14	1.906112e+04	5.836545e+03	3.296819e+03	0	1.306138e-03
8.200000e+08	6.511732e+13	0.000000e+00	5.873016e-01	1.267453e+15	1.829015e+15	3.250499e+14	1.902700e+04	5.831746e+03	3.294109e+03	0	1.296507e-03
8.300000e+08	6.368132e+13	0.000000e+00	5.873016e-01	1.254693e+15	1.813418e+15	3.235350e+14	1.899322e+04	5.826973e+03	3.291412e+03	0	1.286906e-03
8.400000e+08	6.227071e+13	0.000000e+00	5.873016e-01	1.242150e+15	1.798031e+15	3.220307e+14	1.895978e+04	5.822225e+03	3.288731e+03	0	1.277333e-03
8.500000e+08	6.088487e+13	0.000000e+00	5.873016e-01	1.229816e+15	1.782850e+15	3.205367e+14	1.892667e+04	5.817504e+03	3.286064e+03	0	1.267786e-03
8.600000e+08	5.952325e+13	0.000000e+00	5.873016e-01	1.217688e+15	1.767873e+15	3.190531e+14	1.889390e+04	5.812810e+03	3.283412e+03	0	1.258264e-03
8.700000e+08	5.818527e+13	0.000000e+00	5.873016e-01	1.205761e+15	1.753098e+15	3.175796e+14	1.886144e+04	5.808142e+03	3.280776e+03	0	1.248764e-03
8.800000e+08	5.687040e+13	0.000000e+00	5.873016e-01	1.194030e+15	1.738522e+15	3.161163e+14	1.882930e+04	5.803502e+03	3.278155e+03	0	1.239286e-03
8.900000e+08	5.557810e+13	0.000000e+00	5.873016e-01	1.182492e+15	1.724141e+15	3.146631e+14	1.879748e+04	5.798888e+03	3.275549e+03	0	1.229827e-03
9.000000e+08	5.430787e+13	0.000000e+00	5.873016e-01	1.171141e+15	1.709954e+15	3.132198e+14	1.876596e+04	5.794303e+03	3.272959e+03	0	1.220385e-03
9.100000e+08	5.305920e+13	0.000000e+00	5.873016e-01	1.159973e+15	1.695956e+15	3.117864e+14	1.873474e+04	5.789744e+03	3.270384e+03	0	1.210960e-03
9.200000e+08	5.183160e+13	0.000000e+00	5.873016e-01	1.148985e+15	1.682147e+15	3.103628e+14	1.870382e+04	5.785214e+03	3.267825e+03	0	1.201548e-03
9.300000e+08	5.062462e+13	0.000000e+00	5.873016e-01	1.138172e+15	1.668521e+15	3.089490e+14	1.867319e+04	5.780711e+03	3.265281e+03	0	1.192148e-03
9.400000e+08	4.943777e+13	0.000000e+00	5.873016e-01	1.127531e+15	1.655078e+15	3.075448e+14	1.864284e+04	5.776235e+03	3.262753e+03	0	1.182758e-03
9.500000e+08	4.827063e+13	0.000000e+00	5.873016e-01	1.117058e+15	1.641814e+15	3.061502e+14	1.861278e+04	5.771788e+03	3.260241e+03	0	1.173376e-03
9.600000e+08	4.712274e+13	0.000000e+00	5.873016e-01	1.106750e+15	1.628726e+15	3.047651e+14	1.858300e+04	5.767368e+03	3.257744e+03	0	1.164000e-03
9.700000e+08	4.599369e+13	0.000000e+00	5.873016e-01	1.096602e+15	1.615811e+15	3.033895e+14	1.855349e+04	5.762975e+03	3.255263e+03	0	1.154628e-03
9.800000e+08	4.488307e+13	0.000000e+00	5.873016e-01	1.086611e+15	1.603068e+15	3.020232e+14	1.852426e+04	5.758611e+03	3.252798e+03	0	1.145259e-03
9.900000e+08	4.379048e+13	0.000000e+00	5.873016e-01	1.076774e+15	1.590492e+15	3.006662e+14	1.849528e+04	5.754273e+03	3.250348e+03	0	1.135889e-03
1.000000e+09	4.271552e+13	0.000000e+00	5.873016e-01	1.067088e+15	1.578082e+15	2.993184e+14	1.846657e+04	5.749964e+03	3.247913e+03	0	1.126518e-03
1.010000e+09	4.165782e+13	0.000000e+00	5.873016e-01	1.057549e+15	1.565834e+15	2.979797e+14	1.843812e+04	5.745681e+03	3.245494e+03	0	1.117142e-03
1.020000e+09	4.061700e+13	0.000000e+00	5.873016e-01	1.048155e+15	1.553747e+15	2.966502e+14	1.840992e+04	5.741426e+03	3.243090e+03	0	1.107759e-03
1.030000e+09	3.959271e+13	0.000000e+00	5.873016e-01	1.038902e+15	1.541818e+15	2.953296e+14	1.838197e+04	5.737197e+03	3.240702e+03	0	1.098368e-03
1.040000e+09	3.858460e+13	0.000000e+00	5.873016e-01	1.029787e+15	1.530043e+15	2.940179e+14	1.835427e+04	5.732996e+03	3.238329e+03	0	1.088965e-03
1.050000e+09	3.759232e+13	0.000000e+00	5.873016e-01	1.020808e+15	1.518420e+15	2.927151e+14	1.832681e+04	5.728821e+03	3.235971e+03	0	1.079549e-03
1.060000e+09	3.661554e+13	0.000000e+00	5.873016e-01	1.011962e+15	1.506948e+15	2.914211e+14	1.829958e+04	5.724674e+03	3.233628e+03	0	1.070117e-03
1.070000e+09	3.565394e+13	0.000000e+00	5.873016e-01	1.003246e+15	1.495623e+15	2.901358e+14	1.827259e+04	5.720552e+03	3.231300e+03	0	1.060666e-03
1.080000e+09	3.470720e+13	0.000000e+00	5.873016e-01	9.946573e+14	1.484443e+15	2.888592e+14	1.824584e+04	5.716457e+03	3.228987e+03	0	1.051193e-03
1.090000e+09	3.377502e+13	0.000000e+00	5.873016e-01	9.861935e+14	1.473406e+15	2.875911e+14	1.821931e+04	5.712388e+03	3.226688e+03	0	1.041697e-03
1.100000e+09	3.285709e+13	0.000000e+00	5.873016e-01	9.778519e+14	1.462509e+15	2.863315e+14	1.819301e+04	5.708345e+03	3.224405e+03	0	1.032173e-03
1.110000e+09	3.195313e+13	0.000000e+00	5.873016e-01	9.696303e+14	1.451750e+15	2.850804e+14	1.816693e+04	5.704328e+03	3.222136e+03	0	1.022619e-03
1.120000e+09	3.106284e+13	0.000000e+00	5.873016e-01	9.615261e+14	1.441127e+15	2.838377e+14	1.814107e+04	5.700337e+03	3.219881e+03	0	1.013032e-03
1.130000e+09	3.018596e+13	0.000000e+00	5.873016e-01	9.535371e+14	1.430638e+15	2.826033e+14	1.811542e+04	5.696371e+03	3.217641e+03	0	1.003408e-03
1.140000e+09	2.932221e+13	0.000000e+00	5.873016e-01	9.456610e+14	1.420279e+15	2.813772e+14	1.808999e+04	5.692430e+03	3.215415e+03	0	9.937451e-04
1.150000e+09	2.847133e+13	0.000000e+00	5.873016e-01	9.378955e+14	1.410050e+15	2.801592e+14	1.806476e+04	5.688514e+03	3.213203e+03	0	9.840383e-04
1.160000e+09	2.763306e+13	0.000000e+00	5.873016e-01	9.302386e+14	1.399948e+15	2.789494e+14	1.803974e+04	5.684623e+03	3.211005e+03	0	9.742844e-04
1.170000e+09	2.680716e+13	0.000000e+00	5.873016e-01	9.226881e+14	1.389971e+15	2.777476e+14	1.801493e+04	5.680757e+03	3.208821e+03	0	9.644795e-04
1.180000e+09	2.599337e+13	0.000000e+00	5.873016e-01	9.152419e+14	1.380116e+15	2.765538e+14	1.799032e+04	5.676915e+03	3.206651e+03	0	9.546194e-04
1.190000e+09	2.519146e+13	0.000000e+00	5.873016e-01	9.078981e+14	1.370383e+15	2.753679e+14	1.796590e+04	5.673097e+03	3.204495e+03	0	9.446999e-04
1.200000e+09	2.440119e+13	0.000000e+00	5.873016e-01	9.006546e+14	1.360768e+15	2.741900e+14	1.794168e+04	5.669304e+03	3.202352e+03	0	9.347162e-04
1.210000e+09	2.362235e+13	0.000000e+00	5.873016e-01	8.935097e+14	1.351270e+15	2.730198e+14	1.791766e+04	5.665534e+03	3.200222e+03	0	9.246637e-04
1.220000e+09	2.285470e+13	0.000000e+00	5.873016e-01	8.864613e+14	1.341887e+15	2.718574e+14	1.789382e+04	5.661788e+03	3.198106e+03	0	9.145370e-04
1.230000e+09	2.209804e+13	0.000000e+00	5.873016e-01	8.795078e+14	1.332617e+15	2.707027e+14	1.787017e+04	5.658065e+03	3.196004e+03	0	9.043309e-04
1.240000e+09	2.135215e+13	0.000000e+00	5.873016e-01	8.726473e+14	1.323458e+15	2.695556e+14	1.784671e+04	5.654366e+03	3.193914e+03	0	8.940394e-04
1.250000e+09	2.061683e+13	0.000000e+00	5.873016e-01	8.658780e+14	1.314409e+15	2.684160e+14	1.782342e+04	5.650689e+03	3.191837e+03	0	8.836563e-04
1.260000e+09	1.989187e+13	0.000000e+00	5.873016e-01	8.591984e+14	1.305468e+15	2.672840e+14	1.780032e+04	5.647035e+03	3.189773e+03	0	8.731750e-04
1.270000e+09	1.917708e+13	0.000000e+00	5.873016e-01	8.526067e+14	1.296632e+15	2.661595e+14	1.777740e+04	5.643404e+03	3.187722e+03	0	8.625884e-04
1.280000e+09	1.847227e+13	0.000000e+00	5.873016e-01	8.461013e+14	1.287901e+15	2.650423e+14	1.775465e+04	5.639795e+03	3.185684e+03	0	8.518887e-04
1.290000e+09	1.777726e+13	0.000000e+00	5.873016e-01	8.396807e+14	1.279272e+15	2.639325e+14	1.773207e+04	5.636209e+03	3.183658e+03	0	8.410678e-04
1.300000e+09	1.709185e+13	0.000000e+00	5.873016e-01	8.333433e+14	1.270744e+15	2.628300e+14	1.770967e+04	5.632644e+03	3.181644e+03	0	8.301166e-04
1.310000e+09	1.641587e+13	0.000000e+00	5.873016e-01	8.270876e+14	1.262316e+15	2.617347e+14	1.768743e+04	5.629101e+03	3.179643e+03	0	8.190255e-04
1.320000e+09	1.574915e+13	0.000000e+00	5.873016e-01	8.209122e+14	1.253985e+15	2.606466e+14	1.766536e+04	5.625580e+03	3.177654e+03	0	8.077839e-04
1.330000e+09	1.509152e+13	0.000000e+00	5.873016e-01	8.148155e+14	1.245750e+15	2.595656e+14	1.764346e+04	5.622080e+03	3.175677e+03	0	7.963802e-04
1.340000e+09	1.444281e+13	0.000000e+00	5.873016e-01	8.087962e+14	1.237609e+15	2.584916e+14	1.762172e+04	5.618601e+03	3.173712e+03	0	7.848019e-04
1.350000e+09	1.380286e+13	0.000000e+00	5.873016e-01	8.028530e+14	1.229562e+15	2.574247e+14	1.760013e+04	5.615143e+03	3.171759e+03	0	7.730350e-04
1.360000e+09	1.317151e+13	0.000000e+00	5.873016e-01	7.969844e+14	1.221607e+15	2.563647e+14	1.757871e+04	5.611706e+03	3.169818e+03	0	7.610642e-04
