#t		Qconv[W]	Ri[Rp]		R*[Rp]		Qc[W]		Qm[W]		Qr[W]		Tcmb[K]		Tl[K]		Tup[K]		RiFlag		Bs[T]
0.000000e+00	3.066624e+13	0.000000e+00	9.166667e-01	4.071909e+14	6.073573e+14	2.612102e+13	8.693669e+03	3.257388e+03	2.241302e+03	0	8.182602e-04
1.000000e+07	3.024604e+13	0.000000e+00	9.166667e-01	4.022866e+14	5.546040e+14	2.597629e+13	8.676076e+03	3.206629e+03	2.206376e+03	0	8.145057e-04
2.000000e+07	2.986376e+13	0.000000e+00	9.166667e-01	3.978158e+14	5.176232e+14	2.583264e+13	8.658694e+03	3.169450e+03	2.180794e+03	0	8.110596e-04
3.000000e+07	2.951120e+13	0.000000e+00	9.166667e-01	3.936847e+14	4.907429e+14	2.569007e+13	8.641504e+03	3.141610e+03	2.161638e+03	0	8.078553e-04
4.000000e+07	2.918191e+13	0.000000e+00	9.166667e-01	3.898200e+14	4.706024e+14	2.554856e+13	8.624493e+03	3.120359e+03	2.147016e+03	0	8.048393e-04
5.000000e+07	2.887096e+13	0.000000e+00	9.166667e-01	3.861654e+14	4.551020e+14	2.540811e+13	8.607648e+03	3.103846e+03	2.135654e+03	0	8.019704e-04
6.000000e+07	2.857465e+13	0.000000e+00	9.166667e-01	3.826785e+14	4.428745e+14	2.526870e+13	8.590961e+03	3.090789e+03	2.126671e+03	0	7.992173e-04
7.000000e+07	2.829016e+13	0.000000e+00	9.166667e-01	3.793274e+14	4.330001e+14	2.513033e+13	8.574424e+03	3.080285e+03	2.119443e+03	0	7.965562e-04
8.000000e+07	2.801539e+13	0.000000e+00	9.166667e-01	3.760880e+14	4.248439e+14	2.499299e+13	8.558032e+03	3.071680e+03	2.113522e+03	0	7.939689e-04
9.000000e+07	2.774874e+13	0.000000e+00	9.166667e-01	3.729419e+14	4.179584e+14	2.485667e+13	8.541779e+03	3.064502e+03	2.108583e+03	0	7.914418e-04
1.000000e+08	2.748898e+13	0.000000e+00	9.166667e-01	3.698754e+14	4.120232e+14	2.472137e+13	8.525662e+03	3.058401e+03	2.104385e+03	0	7.889646e-04
1.100000e+08	2.723520e+13	0.000000e+00	9.166667e-01	3.668777e+14	4.068057e+14	2.458706e+13	8.509677e+03	3.053118e+03	2.100750e+03	0	7.865291e-04
1.200000e+08	2.698667e+13	0.000000e+00	9.166667e-01	3.639408e+14	4.021354e+14	2.445376e+13	8.493821e+03	3.048461e+03	2.097546e+03	0	7.841293e-04
1.300000e+08	2.674284e+13	0.000000e+00	9.166667e-01	3.610583e+14	3.978862e+14	2.432144e+13	8.478092e+03	3.044284e+03	2.094672e+03	0	7.817605e-04
1.400000e+08	2.650327e+13	0.000000e+00	9.166667e-01	3.582252e+14	3.939639e+14	2.419010e+13	8.462487e+03	3.040477e+03	2.092052e+03	0	7.794192e-04
1.500000e+08	2.626764e+13	0.000000e+00	9.166667e-01	3.554376e+14	3.902982e+14	2.405973e+13	8.447005e+03	3.036957e+03	2.089630e+03	0	7.771024e-04
1.600000e+08	2.603566e+13	0.000000e+00	9.166667e-01	3.526926e+14	3.868359e+14	2.393032e+13	8.431642e+03	3.033661e+03	2.087363e+03	0	7.748081e-04
1.700000e+08	2.580712e+13	0.000000e+00	9.166667e-01	3.499875e+14	3.835367e+14	2.380187e+13	8.416398e+03	3.030542e+03	2.085216e+03	0	7.725343e-04
1.800000e+08	2.558185e+13	0.000000e+00	9.166667e-01	3.473204e+14	3.803701e+14	2.367436e+13	8.401271e+03	3.027562e+03	2.083166e+03	0	7.702799e-04
1.900000e+08	2.535970e+13	0.000000e+00	9.166667e-01	3.446895e+14	3.773126e+14	2.354780e+13	8.386258e+03	3.024693e+03	2.081192e+03	0	7.680437e-04
2.000000e+08	2.514054e+13	0.000000e+00	9.166667e-01	3.420936e+14	3.743464e+14	2.342216e+13	8.371359e+03	3.021914e+03	2.079280e+03	0	7.658248e-04
2.100000e+08	2.492427e+13	0.000000e+00	9.166667e-01	3.395313e+14	3.714576e+14	2.329745e+13	8.356572e+03	3.019207e+03	2.077417e+03	0	7.636226e-04
2.200000e+08	2.471081e+13	0.000000e+00	9.166667e-01	3.370018e+14	3.686355e+14	2.317366e+13	8.341896e+03	3.016560e+03	2.075596e+03	0	7.614363e-04
2.300000e+08	2.450007e+13	0.000000e+00	9.166667e-01	3.345040e+14	3.658719e+14	2.305077e+13	8.327328e+03	3.013963e+03	2.073809e+03	0	7.592656e-04
2.400000e+08	2.429199e+13	0.000000e+00	9.166667e-01	3.320372e+14	3.631602e+14	2.292879e+13	8.312868e+03	3.011407e+03	2.072050e+03	0	7.571099e-04
2.500000e+08	2.408650e+13	0.000000e+00	9.166667e-01	3.296006e+14	3.604953e+14	2.280770e+13	8.298515e+03	3.008888e+03	2.070317e+03	0	7.549691e-04
2.600000e+08	2.388355e+13	0.000000e+00	9.166667e-01	3.271936e+14	3.578733e+14	2.268749e+13	8.284267e+03	3.006400e+03	2.068605e+03	0	7.528426e-04
2.700000e+08	2.368308e+13	0.000000e+00	9.166667e-01	3.248156e+14	3.552907e+14	2.256816e+13	8.270122e+03	3.003939e+03	2.066912e+03	0	7.507304e-04
2.800000e+08	2.348505e+13	0.000000e+00	9.166667e-01	3.224661e+14	3.527451e+14	2.244971e+13	8.256080e+03	3.001503e+03	2.065236e+03	0	7.486320e-04
2.900000e+08	2.328940e+13	0.000000e+00	9.166667e-01	3.201444e+14	3.502344e+14	2.233212e+13	8.242140e+03	2.999089e+03	2.063575e+03	0	7.465473e-04
3.000000e+08	2.309610e+13	0.000000e+00	9.166667e-01	3.178500e+14	3.477568e+14	2.221539e+13	8.228300e+03	2.996696e+03	2.061928e+03	0	7.444761e-04
3.100000e+08	2.290510e+13	0.000000e+00	9.166667e-01	3.155826e+14	3.453108e+14	2.209950e+13	8.214558e+03	2.994322e+03	2.060295e+03	0	7.424182e-04
3.200000e+08	2.271636e+13	0.000000e+00	9.166667e-01	3.133416e+14	3.428953e+14	2.198446e+13	8.200914e+03	2.991966e+03	2.058673e+03	0	7.403734e-04
3.300000e+08	2.252984e+13	0.000000e+00	9.166667e-01	3.111266e+14	3.405093e+14	2.187026e+13	8.187368e+03	2.989626e+03	2.057064e+03	0	7.383416e-04
3.400000e+08	2.234551e+13	0.000000e+00	9.166667e-01	3.089371e+14	3.381518e+14	2.175689e+13	8.173916e+03	2.987303e+03	2.055465e+03	0	7.363225e-04
3.500000e+08	2.216334e+13	0.000000e+00	9.166667e-01	3.067727e+14	3.358221e+14	2.164434e+13	8.160559e+03	2.984995e+03	2.053877e+03	0	7.343160e-04
3.600000e+08	2.198327e+13	0.000000e+00	9.166667e-01	3.046331e+14	3.335194e+14	2.153260e+13	8.147296e+03	2.982702e+03	2.052299e+03	0	7.323219e-04
3.700000e+08	2.180529e+13	0.000000e+00	9.166667e-01	3.025177e+14	3.312432e+14	2.142167e+13	8.134124e+03	2.980424e+03	2.050732e+03	0	7.303402e-04
3.800000e+08	2.162936e+13	0.000000e+00	9.166667e-01	3.004264e+14	3.289929e+14	2.131155e+13	8.121044e+03	2.978160e+03	2.049174e+03	0	7.283707e-04
3.900000e+08	2.145544e+13	0.000000e+00	9.166667e-01	2.983585e+14	3.267679e+14	2.120222e+13	8.108055e+03	2.975909e+03	2.047625e+03	0	7.264132e-04
4.000000e+08	2.128351e+13	0.000000e+00	9.166667e-01	2.963139e+14	3.245678e+14	2.109368e+13	8.095154e+03	2.973672e+03	2.046086e+03	0	7.244676e-04
4.100000e+08	2.111352e+13	0.000000e+00	9.166667e-01	2.942921e+14	3.223921e+14	2.098593e+13	8.082342e+03	2.971449e+03	2.044556e+03	0	7.225338e-04
4.200000e+08	2.094547e+13	0.000000e+00	9.166667e-01	2.922928e+14	3.202404e+14	2.087895e+13	8.069617e+03	2.969239e+03	2.043036e+03	0	7.206116e-04
4.300000e+08	2.077930e+13	0.000000e+00	9.166667e-01	2.903156e+14	3.181123e+14	2.077274e+13	8.056978e+03	2.967041e+03	2.041523e+03	0	7.187010e-04
4.400000e+08	2.061500e+13	0.000000e+00	9.166667e-01	2.883603e+14	3.160074e+14	2.066730e+13	8.044424e+03	2.964856e+03	2.040020e+03	0	7.168017e-04
4.500000e+08	2.045253e+13	0.000000e+00	9.166667e-01	2.864264e+14	3.139253e+14	2.056261e+13	8.031955e+03	2.962684e+03	2.038525e+03	0	7.149137e-04
4.600000e+08	2.029187e+13	0.000000e+00	9.166667e-01	2.845136e+14	3.118657e+14	2.045868e+13	8.019569e+03	2.960524e+03	2.037039e+03	0	7.130368e-04
4.700000e+08	2.013299e+13	0.000000e+00	9.166667e-01	2.826217e+14	3.098282e+14	2.035549e+13	8.007266e+03	2.958376e+03	2.035561e+03	0	7.111710e-04
4.800000e+08	1.997586e+13	0.000000e+00	9.166667e-01	2.807503e+14	3.078124e+14	2.025304e+13	7.995045e+03	2.956240e+03	2.034092e+03	0	7.093161e-04
4.900000e+08	1.982047e+13	0.000000e+00	9.166667e-01	2.788991e+14	3.058181e+14	2.015132e+13	7.982904e+03	2.954117e+03	2.032631e+03	0	7.074719e-04
5.000000e+08	1.966677e+13	0.000000e+00	9.166667e-01	2.770679e+14	3.038448e+14	2.005033e+13	7.970843e+03	2.952005e+03	2.031178e+03	0	7.056385e-04
5.100000e+08	1.951475e+13	0.000000e+00	9.166667e-01	2.752562e+14	3.018924e+14	1.995007e+13	7.958861e+03	2.949905e+03	2.029733e+03	0	7.038156e-04
5.200000e+08	1.936438e+13	0.000000e+00	9.166667e-01	2.734639e+14	2.999605e+14	1.985051e+13	7.946958e+03	2.947816e+03	2.028295e+03	0	7.020032e-04
5.300000e+08	1.921563e+13	0.000000e+00	9.166667e-01	2.716906e+14	2.980488e+14	1.975167e+13	7.935131e+03	2.945739e+03	2.026866e+03	0	7.002012e-04
5.400000e+08	1.906849e+13	0.000000e+00	9.166667e-01	2.699361e+14	2.961569e+14	1.965353e+13	7.923382e+03	2.943673e+03	2.025445e+03	0	6.984094e-04
5.500000e+08	1.892293e+13	0.000000e+00	9.166667e-01	2.682001e+14	2.942847e+14	1.955609e+13	7.911708e+03	2.941619e+03	2.024031e+03	0	6.966277e-04
5.600000e+08	1.877893e+13	0.000000e+00	9.166667e-01	2.664824e+14	2.924318e+14	1.945935e+13	7.900108e+03	2.939575e+03	2.022625e+03	0	6.948561e-04
5.700000e+08	1.863646e+13	0.000000e+00	9.166667e-01	2.647826e+14	2.905980e+14	1.936329e+13	7.888583e+03	2.937543e+03	2.021227e+03	0	6.930944e-04
5.800000e+08	1.849550e+13	0.000000e+00	9.166667e-01	2.631005e+14	2.887830e+14	1.926791e+13	7.877132e+03	2.935521e+03	2.019836e+03	0	6.913426e-04
5.900000e+08	1.835604e+13	0.000000e+00	9.166667e-01	2.614359e+14	2.869864e+14	1.917321e+13	7.865753e+03	2.933510e+03	2.018452e+03	0	6.896005e-04
6.000000e+08	1.821804e+13	0.000000e+00	9.166667e-01	2.597885e+14	2.852082e+14	1.907918e+13	7.854446e+03	2.931510e+03	2.017076e+03	0	6.878680e-04
6.100000e+08	1.808149e+13	0.000000e+00	9.166667e-01	2.581581e+14	2.834479e+14	1.898581e+13	7.843210e+03	2.929521e+03	2.015707e+03	0	6.861451e-04
6.200000e+08	1.794637e+13	0.000000e+00	9.166667e-01	2.565444e+14	2.817054e+14	1.889310e+13	7.832044e+03	2.927542e+03	2.014346e+03	0	6.844317e-04
6.300000e+08	1.781265e+13	0.000000e+00	9.166667e-01	2.549472e+14	2.799804e+14	1.880105e+13	7.820948e+03	2.925574e+03	2.012991e+03	0	6.827276e-04
6.400000e+08	1.768032e+13	0.000000e+00	9.166667e-01	2.533663e+14	2.782727e+14	1.870965e+13	7.809921e+03	2.923616e+03	2.011644e+03	0	6.810327e-04
6.500000e+08	1.754936e+13	0.000000e+00	9.166667e-01	2.518014e+14	2.765820e+14	1.861889e+13	7.798962e+03	2.921668e+03	2.010304e+03	0	6.793471e-04
6.600000e+08	1.741975e+13	0.000000e+00	9.166667e-01	2.502523e+14	2.749081e+14	1.852877e+13	7.788071e+03	2.919730e+03	2.008970e+03	0	6.776705e-04
6.700000e+08	1.729147e+13	0.000000e+00	9.166667e-01	2.487188e+14	2.732507e+14	1.843928e+13	7.777246e+03	2.917802e+03	2.007644e+03	0	6.760029e-04
6.800000e+08	1.716450e+13	0.000000e+00	9.166667e-01	2.472007e+14	2.716097e+14	1.835042e+13	7.766488e+03	2.915884e+03	2.006324e+03	0	6.743442e-04
6.900000e+08	1.703882e+13	0.000000e+00	9.166667e-01	2.456977e+14	2.699849e+14	1.826218e+13	7.755795e+03	2.913976e+03	2.005011e+03	0	6.726943e-04
7.000000e+08	1.691441e+13	0.000000e+00	9.166667e-01	2.442097e+14	2.683759e+14	1.817457e+13	7.745168e+03	2.912078e+03	2.003705e+03	0	6.710531e-04
7.100000e+08	1.679127e+13	0.000000e+00	9.166667e-01	2.427365e+14	2.667826e+14	1.808756e+13	7.734604e+03	2.910190e+03	2.002406e+03	0	6.694206e-04
7.200000e+08	1.666936e+13	0.000000e+00	9.166667e-01	2.412778e+14	2.652048e+14	1.800117e+13	7.724104e+03	2.908311e+03	2.001113e+03	0	6.677967e-04
7.300000e+08	1.654868e+13	0.000000e+00	9.166667e-01	2.398335e+14	2.636423e+14	1.791538e+13	7.713667e+03	2.906442e+03	1.999827e+03	0	6.661812e-04
7.400000e+08	1.642921e+13	0.000000e+00	9.166667e-01	2.384033e+14	2.620948e+14	1.783018e+13	7.703293e+03	2.904582e+03	1.998547e+03	0	6.645742e-04
7.500000e+08	1.631092e+13	0.000000e+00	9.166667e-01	2.369872e+14	2.605622e+14	1.774559e+13	7.692980e+03	2.902731e+03	1.997274e+03	0	6.629755e-04
7.600000e+08	1.619381e+13	0.000000e+00	9.166667e-01	2.355848e+14	2.590443e+14	1.766158e+13	7.682728e+03	2.900890e+03	1.996007e+03	0	6.613850e-04
7.700000e+08	1.607786e+13	0.000000e+00	9.166667e-01	2.341960e+14	2.575408e+14	1.757815e+13	7.672537e+03	2.899058e+03	1.994747e+03	0	6.598026e-04
7.800000e+08	1.596306e+13	0.000000e+00	9.166667e-01	2.328206e+14	2.560517e+14	1.749531e+13	7.662406e+03	2.897235e+03	1.993493e+03	0	6.582284e-04
7.900000e+08	1.584937e+13	0.000000e+00	9.166667e-01	2.314585e+14	2.545766e+14	1.741304e+13	7.652334e+03	2.895422e+03	1.992244e+03	0	6.566621e-04
8.000000e+08	1.573681e+13	0.000000e+00	9.166667e-01	2.301094e+14	2.531155e+14	1.733134e+13	7.642321e+03	2.893617e+03	1.991003e+03	0	6.551038e-04
8.100000e+08	1.562534e+13	0.000000e+00	9.166667e-01	2.287732e+14	2.516681e+14	1.725021e+13	7.632366e+03	2.891821e+03	1.989767e+03	0	6.535534e-04
8.200000e+08	1.551495e+13	0.000000e+00	9.166667e-01	2.274498e+14	2.502343e+14	1.716963e+13	7.622469e+03	2.890034e+03	1.988537e+03	0	6.520107e-04
8.300000e+08	1.540563e+13	0.000000e+00	9.166667e-01	2.261389e+14	2.488139e+14	1.708962e+13	7.612629e+03	2.888255e+03	1.987313e+03	0	6.504758e-04
8.400000e+08	1.529737e+13	0.000000e+00	9.166667e-01	2.248404e+14	2.474066e+14	1.701016e+13	7.602846e+03	2.886485e+03	1.986096e+03	0	6.489485e-04
8.500000e+08	1.519015e+13	0.000000e+00	9.166667e-01	2.235542e+14	2.460125e+14	1.693125e+13	7.593119e+03	2.884724e+03	1.984884e+03	0	6.474287e-04
8.600000e+08	1.508396e+13	0.000000e+00	9.166667e-01	2.222800e+14	2.446312e+14	1.685288e+13	7.583447e+03	2.882972e+03	1.983678e+03	0	6.459165e-04
8.700000e+08	1.497878e+13	0.000000e+00	9.166667e-01	2.210178e+14	2.432626e+14	1.677505e+13	7.573831e+03	2.881227e+03	1.982478e+03	0	6.444117e-04
8.800000e+08	1.487460e+13	0.000000e+00	9.166667e-01	2.197673e+14	2.419066e+14	1.669775e+13	7.564269e+03	2.879492e+03	1.981284e+03	0	6.429142e-04
8.900000e+08	1.477141e+13	0.000000e+00	9.166667e-01	2.185284e+14	2.405630e+14	1.662099e+13	7.554761e+03	2.877764e+03	1.980095e+03	0	6.414241e-04
9.000000e+08	1.466920e+13	0.000000e+00	9.166667e-01	2.173010e+14	2.392317e+14	1.654475e+13	7.545306e+03	2.876045e+03	1.978912e+03	0	6.399412e-04
9.100000e+08	1.456795e+13	0.000000e+00	9.166667e-01	2.160850e+14	2.379124e+14	1.646904e+13	7.535904e+03	2.874334e+03	1.977735e+03	0	6.384654e-04
9.200000e+08	1.446765e+13	0.000000e+00	9.166667e-01	2.148801e+14	2.366051e+14	1.639384e+13	7.526555e+03	2.872631e+03	1.976563e+03	0	6.369968e-04
9.300000e+08	1.436829e+13	0.000000e+00	9.166667e-01	2.136862e+14	2.353095e+14	1.631916e+13	7.517258e+03	2.870936e+03	1.975397e+03	0	6.355351e-04
9.400000e+08	1.426985e+13	0.000000e+00	9.166667e-01	2.125033e+14	2.340256e+14	1.624499e+13	7.508013e+03	2.869249e+03	1.974236e+03	0	6.340805e-04
9.500000e+08	1.417233e+13	0.000000e+00	9.166667e-01	2.113311e+14	2.327532e+14	1.617133e+13	7.498818e+03	2.867570e+03	1.973081e+03	0	6.326328e-04
9.600000e+08	1.407571e+13	0.000000e+00	9.166667e-01	2.101696e+14	2.314922e+14	1.609816e+13	7.489675e+03	2.865899e+03	1.971931e+03	0	6.311919e-04
9.700000e+08	1.397999e+13	0.000000e+00	9.166667e-01	2.090185e+14	2.302424e+14	1.602550e+13	7.480581e+03	2.864236e+03	1.970786e+03	0	6.297578e-04
9.800000e+08	1.388515e+13	0.000000e+00	9.166667e-01	2.078778e+14	2.290037e+14	1.595333e+13	7.471537e+03	2.862580e+03	1.969647e+03	0	6.283304e-04
9.900000e+08	1.379117e+13	0.000000e+00	9.166667e-01	2.067474e+14	2.277759e+14	1.588165e+13	7.462543e+03	2.860932e+03	1.968513e+03	0	6.269097e-04
1.000000e+09	1.369806e+13	0.000000e+00	9.166667e-01	2.056270e+14	2.265590e+14	1.581046e+13	7.453597e+03	2.859292e+03	1.967385e+03	0	6.254956e-04
1.010000e+09	1.360579e+13	0.000000e+00	9.166667e-01	2.045167e+14	2.253527e+14	1.573975e+13	7.444699e+03	2.857659e+03	1.966261e+03	0	6.240880e-04
1.020000e+09	1.351436e+13	0.000000e+00	9.166667e-01	2.034162e+14	2.241570e+14	1.566952e+13	7.435850e+03	2.856034e+03	1.965143e+03	0	6.226869e-04
1.030000e+09	1.342376e+13	0.000000e+00	9.166667e-01	2.023254e+14	2.229717e+14	1.559976e+13	7.427048e+03	2.854416e+03	1.964030e+03	0	6.212923e-04
1.040000e+09	1.333398e+13	0.000000e+00	9.166667e-01	2.012443e+14	2.217967e+14	1.553048e+13	7.418293e+03	2.852805e+03	1.962922e+03	0	6.199041e-04
1.050000e+09	1.324500e+13	0.000000e+00	9.166667e-01	2.001727e+14	2.206319e+14	1.546166e+13	7.409585e+03	2.851202e+03	1.961818e+03	0	6.185221e-04
1.060000e+09	1.315682e+13	0.000000e+00	9.166667e-01	1.991105e+14	2.194772e+14	1.539331e+13	7.400924e+03	2.849606e+03	1.960720e+03	0	6.171465e-04
1.070000e+09	1.306943e+13	0.000000e+00	9.166667e-01	1.980575e+14	2.183324e+14	1.532542e+13	7.392308e+03	2.848017e+03	1.959627e+03	0	6.157770e-04
1.080000e+09	1.298282e+13	0.000000e+00	9.166667e-01	1.970138e+14	2.171975e+14	1.525799e+13	7.383737e+03	2.846436e+03	1.958539e+03	0	6.144137e-04
1.090000e+09	1.289697e+13	0.000000e+00	9.166667e-01	1.959791e+14	2.160722e+14	1.519101e+13	7.375212e+03	2.844861e+03	1.957455e+03	0	6.130565e-04
1.100000e+09	1.281189e+13	0.000000e+00	9.166667e-01	1.949533e+14	2.149566e+14	1.512447e+13	7.366731e+03	2.843294e+03	1.956377e+03	0	6.117054e-04
1.110000e+09	1.272755e+13	0.000000e+00	9.166667e-01	1.939364e+14	2.138504e+14	1.505839e+13	7.358295e+03	2.841733e+03	1.955303e+03	0	6.103602e-04
1.120000e+09	1.264396e+13	0.000000e+00	9.166667e-01	1.929282e+14	2.127536e+14	1.499275e+13	7.349903e+03	2.840180e+03	1.954234e+03	0	6.090211e-04
1.130000e+09	1.256110e+13	0.000000e+00	9.166667e-01	1.919287e+14	2.116660e+14	1.492754e+13	7.341554e+03	2.838633e+03	1.953170e+03	0	6.076878e-04
1.140000e+09	1.247897e+13	0.000000e+00	9.166667e-01	1.909377e+14	2.105876e+14	1.486278e+13	7.333248e+03	2.837093e+03	1.952111e+03	0	6.063603e-04
1.150000e+09	1.239754e+13	0.000000e+00	9.166667e-01	1.899551e+14	2.095183e+14	1.479844e+13	7.324986e+03	2.835560e+03	1.951056e+03	0	6.050387e-04
1.160000e+09	1.231683e+13	0.000000e+00	9.166667e-01	1.889809e+14	2.084579e+14	1.473454e+13	7.316765e+03	2.834034e+03	1.950005e+03	0	6.037228e-04
1.170000e+09	1.223681e+13	0.000000e+00	9.166667e-01	1.880149e+14	2.074064e+14	1.467105e+13	7.308587e+03	2.832514e+03	1.948960e+03	0	6.024126e-04
1.180000e+09	1.215749e+13	0.000000e+00	9.166667e-01	1.870570e+14	2.063635e+14	1.460800e+13	7.300450e+03	2.831001e+03	1.947919e+03	0	6.011081e-04
1.190000e+09	1.207885e+13	0.000000e+00	9.166667e-01	1.861072e+14	2.053294e+14	1.454536e+13	7.292355e+03	2.829494e+03	1.946882e+03	0	5.998091e-04
1.200000e+09	1.200088e+13	0.000000e+00	9.166667e-01	1.851654e+14	2.043038e+14	1.448314e+13	7.284301e+03	2.827994e+03	1.945850e+03	0	5.985158e-04
1.210000e+09	1.192358e+13	0.000000e+00	9.166667e-01	1.842314e+14	2.032866e+14	1.442133e+13	7.276288e+03	2.826501e+03	1.944822e+03	0	5.972279e-04
1.220000e+09	1.184693e+13	0.000000e+00	9.166667e-01	1.833052e+14	2.022778e+14	1.435993e+13	7.268315e+03	2.825014e+03	1.943799e+03	0	5.959455e-04
1.230000e+09	1.177094e+13	0.000000e+00	9.166667e-01	1.823866e+14	2.012772e+14	1.429893e+13	7.260382e+03	2.823533e+03	1.942780e+03	0	5.946685e-04
1.240000e+09	1.169559e+13	0.000000e+00	9.166667e-01	1.814757e+14	2.002848e+14	1.423834e+13	7.252488e+03	2.822059e+03	1.941766e+03	0	5.933970e-04
1.250000e+09	1.162088e+13	0.000000e+00	9.166667e-01	1.805723e+14	1.993004e+14	1.417815e+13	7.244634e+03	2.820590e+03	1.940756e+03	0	5.921307e-04
1.260000e+09	1.154679e+13	0.000000e+00	9.166667e-01	1.796763e+14	1.983241e+14	1.411836e+13	7.236819e+03	2.819129e+03	1.939750e+03	0	5.908697e-04
1.270000e+09	1.147333e+13	0.000000e+00	9.166667e-01	1.787876e+14	1.973556e+14	1.405895e+13	7.229043e+03	2.817673e+03	1.938748e+03	0	5.896140e-04
1.280000e+09	1.140048e+13	0.000000e+00	9.166667e-01	1.779062e+14	1.963950e+14	1.399995e+13	7.221305e+03	2.816224e+03	1.937751e+03	0	5.883634e-04
1.290000e+09	1.132824e+13	0.000000e+00	9.166667e-01	1.770320e+14	1.954420e+14	1.394132e+13	7.213606e+03	2.814780e+03	1.936758e+03	0	5.871181e-04
1.300000e+09	1.125660e+13	0.000000e+00	9.166667e-01	1.761648e+14	1.944967e+14	1.388309e+13	7.205944e+03	2.813343e+03	1.935769e+03	0	5.858778e-04
1.310000e+09	1.118556e+13	0.000000e+00	9.166667e-01	1.753047e+14	1.935590e+14	1.382523e+13	7.198319e+03	2.811911e+03	1.934784e+03	0	5.846426e-04
1.320000e+09	1.111510e+13	0.000000e+00	9.166667e-01	1.744515e+14	1.926287e+14	1.376775e+13	7.190732e+03	2.810486e+03	1.933803e+03	0	5.834125e-04
1.330000e+09	1.104522e+13	0.000000e+00	9.166667e-01	1.736052e+14	1.917058e+14	1.371065e+13	7.183181e+03	2.809067e+03	1.932827e+03	0	5.821873e-04
1.340000e+09	1.097592e+13	0.000000e+00	9.166667e-01	1.727657e+14	1.907902e+14	1.365393e+13	7.175667e+03	2.807653e+03	1.931854e+03	0	5.809671e-04
1.350000e+09	1.090718e+13	0.000000e+00	9.166667e-01	1.719328e+14	1.898818e+14	1.359757e+13	7.168190e+03	2.806246e+03	1.930885e+03	0	5.797518e-04
1.360000e+09	1.083901e+13	0.000000e+00	9.166667e-01	1.711066e+14	1.889806e+14	1.354158e+13	7.160748e+03	2.804844e+03	1.929921e+03	0	5.785414e-04
