#t		Qconv[W]	Ri[Rp]		R*[Rp]		Qc[W]		Qm[W]		Qr[W]		Tcmb[K]		Tl[K]		Tup[K]		RiFlag		Bs[T]
0.000000e+00	4.948786e+13	0.000000e+00	9.090909e-01	6.144328e+14	7.492301e+14	3.323205e+13	9.726294e+03	3.447122e+03	2.304082e+03	0	9.572696e-04
1.000000e+07	4.889072e+13	0.000000e+00	9.090909e-01	6.079033e+14	7.182618e+14	3.304792e+13	9.704372e+03	3.423364e+03	2.288202e+03	0	9.534037e-04
2.000000e+07	4.832541e+13	0.000000e+00	9.090909e-01	6.017133e+14	6.947388e+14	3.286517e+13	9.682683e+03	3.405201e+03	2.276062e+03	0	9.497148e-04
3.000000e+07	4.778530e+13	0.000000e+00	9.090909e-01	5.957923e+14	6.763418e+14	3.268378e+13	9.661214e+03	3.391018e+03	2.266582e+03	0	9.461634e-04
4.000000e+07	4.726551e+13	0.000000e+00	9.090909e-01	5.900884e+14	6.615474e+14	3.250375e+13	9.639956e+03	3.379701e+03	2.259017e+03	0	9.427202e-04
5.000000e+07	4.676241e+13	0.000000e+00	9.090909e-01	5.845634e+14	6.493270e+14	3.232506e+13	9.618900e+03	3.370468e+03	2.252846e+03	0	9.393635e-04
6.000000e+07	4.627335e+13	0.000000e+00	9.090909e-01	5.791888e+14	6.389717e+14	3.214770e+13	9.598042e+03	3.362763e+03	2.247696e+03	0	9.360772e-04
7.000000e+07	4.579633e+13	0.000000e+00	9.090909e-01	5.739436e+14	6.299846e+14	3.197166e+13	9.577374e+03	3.356186e+03	2.243300e+03	0	9.328495e-04
8.000000e+07	4.532984e+13	0.000000e+00	9.090909e-01	5.688116e+14	6.220127e+14	3.179693e+13	9.556893e+03	3.350448e+03	2.239464e+03	0	9.296713e-04
9.000000e+07	4.487275e+13	0.000000e+00	9.090909e-01	5.637810e+14	6.148027e+14	3.162351e+13	9.536595e+03	3.345337e+03	2.236048e+03	0	9.265359e-04
1.000000e+08	4.442420e+13	0.000000e+00	9.090909e-01	5.588425e+14	6.081711e+14	3.145136e+13	9.516476e+03	3.340699e+03	2.232948e+03	0	9.234383e-04
1.100000e+08	4.398350e+13	0.000000e+00	9.090909e-01	5.539888e+14	6.019843e+14	3.128050e+13	9.496532e+03	3.336419e+03	2.230087e+03	0	9.203746e-04
1.200000e+08	4.355015e+13	0.000000e+00	9.090909e-01	5.492145e+14	5.961442e+14	3.111090e+13	9.476762e+03	3.332412e+03	2.227409e+03	0	9.173419e-04
1.300000e+08	4.312371e+13	0.000000e+00	9.090909e-01	5.445150e+14	5.905782e+14	3.094256e+13	9.457161e+03	3.328615e+03	2.224871e+03	0	9.143379e-04
1.400000e+08	4.270384e+13	0.000000e+00	9.090909e-01	5.398868e+14	5.852328e+14	3.077547e+13	9.437728e+03	3.324982e+03	2.222443e+03	0	9.113608e-04
1.500000e+08	4.229028e+13	0.000000e+00	9.090909e-01	5.353268e+14	5.800678e+14	3.060960e+13	9.418459e+03	3.321477e+03	2.220100e+03	0	9.084092e-04
1.600000e+08	4.188278e+13	0.000000e+00	9.090909e-01	5.308325e+14	5.750532e+14	3.044497e+13	9.399353e+03	3.318075e+03	2.217826e+03	0	9.054821e-04
1.700000e+08	4.148114e+13	0.000000e+00	9.090909e-01	5.264019e+14	5.701665e+14	3.028155e+13	9.380406e+03	3.314755e+03	2.215607e+03	0	9.025784e-04
1.800000e+08	4.108520e+13	0.000000e+00	9.090909e-01	5.220330e+14	5.653904e+14	3.011933e+13	9.361618e+03	3.311503e+03	2.213433e+03	0	8.996974e-04
1.900000e+08	4.069479e+13	0.000000e+00	9.090909e-01	5.177242e+14	5.607119e+14	2.995831e+13	9.342985e+03	3.308307e+03	2.211297e+03	0	8.968386e-04
2.000000e+08	4.030978e+13	0.000000e+00	9.090909e-01	5.134741e+14	5.561209e+14	2.979848e+13	9.324505e+03	3.305158e+03	2.209192e+03	0	8.940013e-04
2.100000e+08	3.993004e+13	0.000000e+00	9.090909e-01	5.092812e+14	5.516095e+14	2.963981e+13	9.306177e+03	3.302051e+03	2.207116e+03	0	8.911852e-04
2.200000e+08	3.955546e+13	0.000000e+00	9.090909e-01	5.051443e+14	5.471718e+14	2.948232e+13	9.287998e+03	3.298980e+03	2.205063e+03	0	8.883897e-04
2.300000e+08	3.918592e+13	0.000000e+00	9.090909e-01	5.010622e+14	5.428027e+14	2.932598e+13	9.269966e+03	3.295941e+03	2.203032e+03	0	8.856145e-04
2.400000e+08	3.882133e+13	0.000000e+00	9.090909e-01	4.970339e+14	5.384985e+14	2.917079e+13	9.252079e+03	3.292931e+03	2.201020e+03	0	8.828593e-04
2.500000e+08	3.846159e+13	0.000000e+00	9.090909e-01	4.930582e+14	5.342559e+14	2.901673e+13	9.234336e+03	3.289949e+03	2.199026e+03	0	8.801238e-04
2.600000e+08	3.810659e+13	0.000000e+00	9.090909e-01	4.891342e+14	5.300724e+14	2.886380e+13	9.216735e+03	3.286991e+03	2.197049e+03	0	8.774076e-04
2.700000e+08	3.775626e+13	0.000000e+00	9.090909e-01	4.852609e+14	5.259457e+14	2.871199e+13	9.199273e+03	3.284057e+03	2.195088e+03	0	8.747105e-04
2.800000e+08	3.741051e+13	0.000000e+00	9.090909e-01	4.814373e+14	5.218741e+14	2.856129e+13	9.181950e+03	3.281146e+03	2.193142e+03	0	8.720323e-04
2.900000e+08	3.706925e+13	0.000000e+00	9.090909e-01	4.776626e+14	5.178557e+14	2.841168e+13	9.164762e+03	3.278256e+03	2.191211e+03	0	8.693726e-04
3.000000e+08	3.673240e+13	0.000000e+00	9.090909e-01	4.739359e+14	5.138893e+14	2.826317e+13	9.147709e+03	3.275387e+03	2.189293e+03	0	8.667313e-04
3.100000e+08	3.639989e+13	0.000000e+00	9.090909e-01	4.702564e+14	5.099736e+14	2.811574e+13	9.130789e+03	3.272537e+03	2.187388e+03	0	8.641080e-04
3.200000e+08	3.607163e+13	0.000000e+00	9.090909e-01	4.666231e+14	5.061073e+14	2.796938e+13	9.113999e+03	3.269708e+03	2.185497e+03	0	8.615027e-04
3.300000e+08	3.574756e+13	0.000000e+00	9.090909e-01	4.630354e+14	5.022894e+14	2.782409e+13	9.097339e+03	3.266898e+03	2.183619e+03	0	8.589149e-04
3.400000e+08	3.542759e+13	0.000000e+00	9.090909e-01	4.594924e+14	4.985190e+14	2.767985e+13	9.080807e+03	3.264106e+03	2.181753e+03	0	8.563446e-04
3.500000e+08	3.511167e+13	0.000000e+00	9.090909e-01	4.559933e+14	4.947950e+14	2.753666e+13	9.064401e+03	3.261333e+03	2.179899e+03	0	8.537915e-04
3.600000e+08	3.479971e+13	0.000000e+00	9.090909e-01	4.525375e+14	4.911166e+14	2.739451e+13	9.048120e+03	3.258578e+03	2.178058e+03	0	8.512554e-04
3.700000e+08	3.449166e+13	0.000000e+00	9.090909e-01	4.491242e+14	4.874829e+14	2.725338e+13	9.031962e+03	3.255841e+03	2.176228e+03	0	8.487362e-04
3.800000e+08	3.418744e+13	0.000000e+00	9.090909e-01	4.457526e+14	4.838933e+14	2.711328e+13	9.015925e+03	3.253121e+03	2.174410e+03	0	8.462335e-04
3.900000e+08	3.388699e+13	0.000000e+00	9.090909e-01	4.424220e+14	4.803468e+14	2.697419e+13	9.000009e+03	3.250419e+03	2.172604e+03	0	8.437472e-04
4.000000e+08	3.359025e+13	0.000000e+00	9.090909e-01	4.391319e+14	4.768427e+14	2.683611e+13	8.984211e+03	3.247733e+03	2.170809e+03	0	8.412772e-04
4.100000e+08	3.329716e+13	0.000000e+00	9.090909e-01	4.358815e+14	4.733803e+14	2.669902e+13	8.968530e+03	3.245065e+03	2.169026e+03	0	8.388232e-04
4.200000e+08	3.300765e+13	0.000000e+00	9.090909e-01	4.326701e+14	4.699590e+14	2.656291e+13	8.952965e+03	3.242413e+03	2.167253e+03	0	8.363850e-04
4.300000e+08	3.272167e+13	0.000000e+00	9.090909e-01	4.294971e+14	4.665780e+14	2.642779e+13	8.937515e+03	3.239778e+03	2.165492e+03	0	8.339625e-04
4.400000e+08	3.243916e+13	0.000000e+00	9.090909e-01	4.263620e+14	4.632366e+14	2.629364e+13	8.922178e+03	3.237159e+03	2.163741e+03	0	8.315554e-04
4.500000e+08	3.216005e+13	0.000000e+00	9.090909e-01	4.232640e+14	4.599342e+14	2.616046e+13	8.906952e+03	3.234556e+03	2.162001e+03	0	8.291637e-04
4.600000e+08	3.188431e+13	0.000000e+00	9.090909e-01	4.202026e+14	4.566703e+14	2.602823e+13	8.891837e+03	3.231969e+03	2.160272e+03	0	8.267871e-04
4.700000e+08	3.161186e+13	0.000000e+00	9.090909e-01	4.171771e+14	4.534441e+14	2.589695e+13	8.876831e+03	3.229398e+03	2.158553e+03	0	8.244254e-04
4.800000e+08	3.134266e+13	0.000000e+00	9.090909e-01	4.141871e+14	4.502550e+14	2.576661e+13	8.861932e+03	3.226842e+03	2.156845e+03	0	8.220786e-04
4.900000e+08	3.107666e+13	0.000000e+00	9.090909e-01	4.112319e+14	4.471026e+14	2.563720e+13	8.847140e+03	3.224301e+03	2.155147e+03	0	8.197463e-04
5.000000e+08	3.081380e+13	0.000000e+00	9.090909e-01	4.083110e+14	4.439861e+14	2.550872e+13	8.832454e+03	3.221776e+03	2.153459e+03	0	8.174285e-04
5.100000e+08	3.055403e+13	0.000000e+00	9.090909e-01	4.054238e+14	4.409050e+14	2.538116e+13	8.817871e+03	3.219266e+03	2.151782e+03	0	8.151250e-04
5.200000e+08	3.029731e+13	0.000000e+00	9.090909e-01	4.025698e+14	4.378588e+14	2.525450e+13	8.803392e+03	3.216771e+03	2.150114e+03	0	8.128356e-04
5.300000e+08	3.004359e+13	0.000000e+00	9.090909e-01	3.997486e+14	4.348470e+14	2.512875e+13	8.789014e+03	3.214291e+03	2.148456e+03	0	8.105603e-04
5.400000e+08	2.979281e+13	0.000000e+00	9.090909e-01	3.969595e+14	4.318689e+14	2.500390e+13	8.774736e+03	3.211825e+03	2.146808e+03	0	8.082987e-04
5.500000e+08	2.954494e+13	0.000000e+00	9.090909e-01	3.942021e+14	4.289241e+14	2.487993e+13	8.760558e+03	3.209374e+03	2.145169e+03	0	8.060508e-04
5.600000e+08	2.929993e+13	0.000000e+00	9.090909e-01	3.914758e+14	4.260121e+14	2.475685e+13	8.746479e+03	3.206937e+03	2.143540e+03	0	8.038164e-04
5.700000e+08	2.905772e+13	0.000000e+00	9.090909e-01	3.887803e+14	4.231324e+14	2.463464e+13	8.732496e+03	3.204514e+03	2.141921e+03	0	8.015954e-04
5.800000e+08	2.881829e+13	0.000000e+00	9.090909e-01	3.861150e+14	4.202844e+14	2.451329e+13	8.718610e+03	3.202105e+03	2.140311e+03	0	7.993877e-04
5.900000e+08	2.858159e+13	0.000000e+00	9.090909e-01	3.834794e+14	4.174677e+14	2.439281e+13	8.704818e+03	3.199710e+03	2.138710e+03	0	7.971930e-04
6.000000e+08	2.834756e+13	0.000000e+00	9.090909e-01	3.808732e+14	4.146819e+14	2.427318e+13	8.691121e+03	3.197329e+03	2.137119e+03	0	7.950112e-04
6.100000e+08	2.811618e+13	0.000000e+00	9.090909e-01	3.782958e+14	4.119264e+14	2.415439e+13	8.677516e+03	3.194962e+03	2.135536e+03	0	7.928423e-04
6.200000e+08	2.788741e+13	0.000000e+00	9.090909e-01	3.757468e+14	4.092008e+14	2.403645e+13	8.664004e+03	3.192608e+03	2.133963e+03	0	7.906861e-04
6.300000e+08	2.766119e+13	0.000000e+00	9.090909e-01	3.732259e+14	4.065046e+14	2.391934e+13	8.650582e+03	3.190267e+03	2.132398e+03	0	7.885423e-04
6.400000e+08	2.743751e+13	0.000000e+00	9.090909e-01	3.707325e+14	4.038375e+14	2.380305e+13	8.637250e+03	3.187939e+03	2.130842e+03	0	7.864110e-04
6.500000e+08	2.721630e+13	0.000000e+00	9.090909e-01	3.682663e+14	4.011990e+14	2.368758e+13	8.624006e+03	3.185625e+03	2.129296e+03	0	7.842919e-04
6.600000e+08	2.699755e+13	0.000000e+00	9.090909e-01	3.658269e+14	3.985887e+14	2.357293e+13	8.610851e+03	3.183324e+03	2.127757e+03	0	7.821850e-04
6.700000e+08	2.678121e+13	0.000000e+00	9.090909e-01	3.634138e+14	3.960061e+14	2.345908e+13	8.597783e+03	3.181035e+03	2.126228e+03	0	7.800901e-04
6.800000e+08	2.656725e+13	0.000000e+00	9.090909e-01	3.610267e+14	3.934508e+14	2.334603e+13	8.584801e+03	3.178759e+03	2.124706e+03	0	7.780071e-04
6.900000e+08	2.635562e+13	0.000000e+00	9.090909e-01	3.586651e+14	3.909226e+14	2.323377e+13	8.571904e+03	3.176496e+03	2.123194e+03	0	7.759358e-04
7.000000e+08	2.614631e+13	0.000000e+00	9.090909e-01	3.563288e+14	3.884209e+14	2.312230e+13	8.559091e+03	3.174245e+03	2.121689e+03	0	7.738762e-04
7.100000e+08	2.593926e+13	0.000000e+00	9.090909e-01	3.540174e+14	3.859453e+14	2.301161e+13	8.546361e+03	3.172007e+03	2.120193e+03	0	7.718281e-04
7.200000e+08	2.573446e+13	0.000000e+00	9.090909e-01	3.517304e+14	3.834956e+14	2.290170e+13	8.533714e+03	3.169781e+03	2.118705e+03	0	7.697914e-04
7.300000e+08	2.553186e+13	0.000000e+00	9.090909e-01	3.494676e+14	3.810713e+14	2.279255e+13	8.521148e+03	3.167567e+03	2.117225e+03	0	7.677659e-04
7.400000e+08	2.533143e+13	0.000000e+00	9.090909e-01	3.472285e+14	3.786721e+14	2.268417e+13	8.508663e+03	3.165365e+03	2.115754e+03	0	7.657517e-04
7.500000e+08	2.513315e+13	0.000000e+00	9.090909e-01	3.450129e+14	3.762976e+14	2.257654e+13	8.496258e+03	3.163175e+03	2.114290e+03	0	7.637484e-04
7.600000e+08	2.493698e+13	0.000000e+00	9.090909e-01	3.428203e+14	3.739475e+14	2.246966e+13	8.483932e+03	3.160997e+03	2.112834e+03	0	7.617562e-04
7.700000e+08	2.474289e+13	0.000000e+00	9.090909e-01	3.406506e+14	3.716214e+14	2.236352e+13	8.471684e+03	3.158830e+03	2.111385e+03	0	7.597747e-04
7.800000e+08	2.455085e+13	0.000000e+00	9.090909e-01	3.385033e+14	3.693190e+14	2.225813e+13	8.459513e+03	3.156675e+03	2.109945e+03	0	7.578040e-04
7.900000e+08	2.436084e+13	0.000000e+00	9.090909e-01	3.363781e+14	3.670400e+14	2.215346e+13	8.447419e+03	3.154531e+03	2.108512e+03	0	7.558439e-04
8.000000e+08	2.417281e+13	0.000000e+00	9.090909e-01	3.342748e+14	3.647839e+14	2.204952e+13	8.435400e+03	3.152399e+03	2.107087e+03	0	7.538942e-04
8.100000e+08	2.398675e+13	0.000000e+00	9.090909e-01	3.321929e+14	3.625506e+14	2.194630e+13	8.423457e+03	3.150278e+03	2.105669e+03	0	7.519550e-04
8.200000e+08	2.380263e+13	0.000000e+00	9.090909e-01	3.301323e+14	3.603397e+14	2.184379e+13	8.411588e+03	3.148168e+03	2.104259e+03	0	7.500261e-04
8.300000e+08	2.362042e+13	0.000000e+00	9.090909e-01	3.280926e+14	3.581509e+14	2.174200e+13	8.399792e+03	3.146070e+03	2.102856e+03	0	7.481073e-04
8.400000e+08	2.344009e+13	0.000000e+00	9.090909e-01	3.260735e+14	3.559839e+14	2.164090e+13	8.388070e+03	3.143982e+03	2.101461e+03	0	7.461987e-04
8.500000e+08	2.326162e+13	0.000000e+00	9.090909e-01	3.240747e+14	3.538384e+14	2.154051e+13	8.376419e+03	3.141905e+03	2.100073e+03	0	7.443000e-04
8.600000e+08	2.308498e+13	0.000000e+00	9.090909e-01	3.220960e+14	3.517140e+14	2.144080e+13	8.364839e+03	3.139839e+03	2.098692e+03	0	7.424112e-04
8.700000e+08	2.291014e+13	0.000000e+00	9.090909e-01	3.201371e+14	3.496106e+14	2.134179e+13	8.353330e+03	3.137784e+03	2.097318e+03	0	7.405322e-04
8.800000e+08	2.273709e+13	0.000000e+00	9.090909e-01	3.181977e+14	3.475278e+14	2.124345e+13	8.341891e+03	3.135739e+03	2.095951e+03	0	7.386629e-04
8.900000e+08	2.256579e+13	0.000000e+00	9.090909e-01	3.162775e+14	3.454654e+14	2.114579e+13	8.330521e+03	3.133704e+03	2.094591e+03	0	7.368032e-04
9.000000e+08	2.239622e+13	0.000000e+00	9.090909e-01	3.143763e+14	3.434230e+14	2.104880e+13	8.319219e+03	3.131680e+03	2.093238e+03	0	7.349531e-04
9.100000e+08	2.222836e+13	0.000000e+00	9.090909e-01	3.124939e+14	3.414004e+14	2.095247e+13	8.307986e+03	3.129667e+03	2.091892e+03	0	7.331123e-04
9.200000e+08	2.206218e+13	0.000000e+00	9.090909e-01	3.106299e+14	3.393974e+14	2.085680e+13	8.296819e+03	3.127663e+03	2.090553e+03	0	7.312808e-04
9.300000e+08	2.189767e+13	0.000000e+00	9.090909e-01	3.087841e+14	3.374136e+14	2.076179e+13	8.285719e+03	3.125670e+03	2.089221e+03	0	7.294586e-04
9.400000e+08	2.173480e+13	0.000000e+00	9.090909e-01	3.069563e+14	3.354489e+14	2.066743e+13	8.274685e+03	3.123686e+03	2.087895e+03	0	7.276456e-04
9.500000e+08	2.157354e+13	0.000000e+00	9.090909e-01	3.051462e+14	3.335030e+14	2.057371e+13	8.263716e+03	3.121713e+03	2.086576e+03	0	7.258416e-04
9.600000e+08	2.141388e+13	0.000000e+00	9.090909e-01	3.033537e+14	3.315756e+14	2.048063e+13	8.252811e+03	3.119749e+03	2.085264e+03	0	7.240465e-04
9.700000e+08	2.125579e+13	0.000000e+00	9.090909e-01	3.015784e+14	3.296665e+14	2.038819e+13	8.241971e+03	3.117796e+03	2.083958e+03	0	7.222604e-04
9.800000e+08	2.109926e+13	0.000000e+00	9.090909e-01	2.998201e+14	3.277754e+14	2.029637e+13	8.231194e+03	3.115852e+03	2.082658e+03	0	7.204830e-04
9.900000e+08	2.094425e+13	0.000000e+00	9.090909e-01	2.980787e+14	3.259022e+14	2.020518e+13	8.220479e+03	3.113917e+03	2.081365e+03	0	7.187144e-04
1.000000e+09	2.079076e+13	0.000000e+00	9.090909e-01	2.963539e+14	3.240465e+14	2.011461e+13	8.209827e+03	3.111992e+03	2.080079e+03	0	7.169544e-04
1.010000e+09	2.063877e+13	0.000000e+00	9.090909e-01	2.946454e+14	3.222082e+14	2.002465e+13	8.199236e+03	3.110077e+03	2.078798e+03	0	7.152029e-04
1.020000e+09	2.048824e+13	0.000000e+00	9.090909e-01	2.929531e+14	3.203870e+14	1.993530e+13	8.188706e+03	3.108171e+03	2.077524e+03	0	7.134599e-04
1.030000e+09	2.033917e+13	0.000000e+00	9.090909e-01	2.912768e+14	3.185828e+14	1.984655e+13	8.178236e+03	3.106274e+03	2.076257e+03	0	7.117253e-04
1.040000e+09	2.019153e+13	0.000000e+00	9.090909e-01	2.896162e+14	3.167952e+14	1.975841e+13	8.167827e+03	3.104386e+03	2.074995e+03	0	7.099991e-04
1.050000e+09	2.004531e+13	0.000000e+00	9.090909e-01	2.879711e+14	3.150242e+14	1.967086e+13	8.157476e+03	3.102508e+03	2.073739e+03	0	7.082810e-04
1.060000e+09	1.990048e+13	0.000000e+00	9.090909e-01	2.863414e+14	3.132694e+14	1.958390e+13	8.147184e+03	3.100638e+03	2.072490e+03	0	7.065712e-04
1.070000e+09	1.975704e+13	0.000000e+00	9.090909e-01	2.847269e+14	3.115307e+14	1.949752e+13	8.136950e+03	3.098778e+03	2.071246e+03	0	7.048694e-04
1.080000e+09	1.961495e+13	0.000000e+00	9.090909e-01	2.831273e+14	3.098079e+14	1.941173e+13	8.126774e+03	3.096926e+03	2.070009e+03	0	7.031756e-04
1.090000e+09	1.947421e+13	0.000000e+00	9.090909e-01	2.815424e+14	3.081007e+14	1.932651e+13	8.116655e+03	3.095084e+03	2.068777e+03	0	7.014897e-04
1.100000e+09	1.933480e+13	0.000000e+00	9.090909e-01	2.799722e+14	3.064090e+14	1.924187e+13	8.106593e+03	3.093250e+03	2.067551e+03	0	6.998117e-04
1.110000e+09	1.919669e+13	0.000000e+00	9.090909e-01	2.784163e+14	3.047326e+14	1.915780e+13	8.096586e+03	3.091425e+03	2.066331e+03	0	6.981416e-04
1.120000e+09	1.905988e+13	0.000000e+00	9.090909e-01	2.768747e+14	3.030713e+14	1.907428e+13	8.086636e+03	3.089608e+03	2.065117e+03	0	6.964791e-04
1.130000e+09	1.892434e+13	0.000000e+00	9.090909e-01	2.753471e+14	3.014249e+14	1.899133e+13	8.076740e+03	3.087800e+03	2.063908e+03	0	6.948242e-04
1.140000e+09	1.879007e+13	0.000000e+00	9.090909e-01	2.738333e+14	2.997932e+14	1.890893e+13	8.066898e+03	3.086000e+03	2.062706e+03	0	6.931770e-04
1.150000e+09	1.865704e+13	0.000000e+00	9.090909e-01	2.723332e+14	2.981761e+14	1.882708e+13	8.057111e+03	3.084209e+03	2.061508e+03	0	6.915373e-04
1.160000e+09	1.852523e+13	0.000000e+00	9.090909e-01	2.708467e+14	2.965733e+14	1.874578e+13	8.047377e+03	3.082426e+03	2.060317e+03	0	6.899050e-04
1.170000e+09	1.839465e+13	0.000000e+00	9.090909e-01	2.693735e+14	2.949847e+14	1.866502e+13	8.037696e+03	3.080652e+03	2.059131e+03	0	6.882800e-04
1.180000e+09	1.826526e+13	0.000000e+00	9.090909e-01	2.679134e+14	2.934102e+14	1.858479e+13	8.028068e+03	3.078886e+03	2.057950e+03	0	6.866624e-04
1.190000e+09	1.813705e+13	0.000000e+00	9.090909e-01	2.664664e+14	2.918495e+14	1.850510e+13	8.018491e+03	3.077127e+03	2.056775e+03	0	6.850521e-04
1.200000e+09	1.801001e+13	0.000000e+00	9.090909e-01	2.650323e+14	2.903024e+14	1.842594e+13	8.008967e+03	3.075377e+03	2.055605e+03	0	6.834489e-04
1.210000e+09	1.788413e+13	0.000000e+00	9.090909e-01	2.636108e+14	2.887689e+14	1.834730e+13	7.999493e+03	3.073635e+03	2.054441e+03	0	6.818528e-04
1.220000e+09	1.775939e+13	0.000000e+00	9.090909e-01	2.622020e+14	2.872487e+14	1.826919e+13	7.990071e+03	3.071901e+03	2.053282e+03	0	6.802638e-04
1.230000e+09	1.763577e+13	0.000000e+00	9.090909e-01	2.608055e+14	2.857417e+14	1.819159e+13	7.980698e+03	3.070175e+03	2.052128e+03	0	6.786817e-04
1.240000e+09	1.751326e+13	0.000000e+00	9.090909e-01	2.594212e+14	2.842478e+14	1.811450e+13	7.971376e+03	3.068457e+03	2.050979e+03	0	6.771066e-04
1.250000e+09	1.739186e+13	0.000000e+00	9.090909e-01	2.580491e+14	2.827667e+14	1.803793e+13	7.962103e+03	3.066746e+03	2.049836e+03	0	6.755384e-04
1.260000e+09	1.727154e+13	0.000000e+00	9.090909e-01	2.566889e+14	2.812984e+14	1.796185e+13	7.952878e+03	3.065043e+03	2.048698e+03	0	6.739769e-04
1.270000e+09	1.715229e+13	0.000000e+00	9.090909e-01	2.553405e+14	2.798426e+14	1.788628e+13	7.943703e+03	3.063348e+03	2.047565e+03	0	6.724222e-04
1.280000e+09	1.703410e+13	0.000000e+00	9.090909e-01	2.540038e+14	2.783993e+14	1.781121e+13	7.934575e+03	3.061661e+03	2.046437e+03	0	6.708742e-04
1.290000e+09	1.691696e+13	0.000000e+00	9.090909e-01	2.526786e+14	2.769682e+14	1.773663e+13	7.925495e+03	3.059980e+03	2.045314e+03	0	6.693328e-04
1.300000e+09	1.680085e+13	0.000000e+00	9.090909e-01	2.513648e+14	2.755493e+14	1.766254e+13	7.916463e+03	3.058308e+03	2.044196e+03	0	6.677980e-04
1.310000e+09	1.668576e+13	0.000000e+00	9.090909e-01	2.500623e+14	2.741424e+14	1.758893e+13	7.907477e+03	3.056643e+03	2.043083e+03	0	6.662697e-04
1.320000e+09	1.657169e+13	0.000000e+00	9.090909e-01	2.487709e+14	2.727473e+14	1.751581e+13	7.898538e+03	3.054985e+03	2.041975e+03	0	6.647479e-04
1.330000e+09	1.645861e+13	0.000000e+00	9.090909e-01	2.474904e+14	2.713640e+14	1.744316e+13	7.889645e+03	3.053334e+03	2.040872e+03	0	6.632324e-04
1.340000e+09	1.634652e+13	0.000000e+00	9.090909e-01	2.462209e+14	2.699922e+14	1.737099e+13	7.880798e+03	3.051691e+03	2.039773e+03	0	6.617233e-04
1.350000e+09	1.623540e+13	0.000000e+00	9.090909e-01	2.449621e+14	2.686319e+14	1.729929e+13	7.871996e+03	3.050055e+03	2.038680e+03	0	6.602205e-04
1.360000e+09	1.612524e+13	0.000000e+00	9.090909e-01	2.437139e+14	2.672830e+14	1.722806e+13	7.863238e+03	3.048426e+03	2.037591e+03	0	6.587239e-04
