#t		Qconv[W]	Ri[Rp]		R*[Rp]		Qc[W]		Qm[W]		Qr[W]		Tcmb[K]		Tl[K]		Tup[K]		RiFlag		Bs[T]
0.000000e+00	1.171547e+12	0.000000e+00	3.863637e-01	5.276731e+13	1.542362e+15	1.465900e+14	5.557336e+03	3.331773e+03	2.178635e+03	0	4.593312e-04
1.000000e+07	1.122431e+12	0.000000e+00	3.863637e-01	5.065005e+13	1.350677e+15	1.457778e+14	5.528045e+03	3.249444e+03	2.124800e+03	0	4.528202e-04
2.000000e+07	1.075477e+12	0.000000e+00	3.863637e-01	4.862595e+13	1.197704e+15	1.449716e+14	5.499911e+03	3.178263e+03	2.078255e+03	0	4.464159e-04
3.000000e+07	1.031129e+12	0.000000e+00	3.863637e-01	4.671401e+13	1.073443e+15	1.441715e+14	5.472886e+03	3.116027e+03	2.037559e+03	0	4.401935e-04
4.000000e+07	9.895071e+11	0.000000e+00	3.863637e-01	4.491928e+13	9.709426e+14	1.433774e+14	5.446910e+03	3.061087e+03	2.001634e+03	0	4.341891e-04
5.000000e+07	9.505633e+11	0.000000e+00	3.863637e-01	4.323972e+13	8.852535e+14	1.425891e+14	5.421920e+03	3.012183e+03	1.969656e+03	0	4.284166e-04
6.000000e+07	9.141689e+11	0.000000e+00	3.863637e-01	4.166978e+13	8.127705e+14	1.418068e+14	5.397854e+03	2.968336e+03	1.940984e+03	0	4.228777e-04
7.000000e+07	8.801589e+11	0.000000e+00	3.863637e-01	4.020235e+13	7.508171e+14	1.410303e+14	5.374652e+03	2.928771e+03	1.915113e+03	0	4.175672e-04
8.000000e+07	8.483570e+11	0.000000e+00	3.863637e-01	3.882988e+13	6.973712e+14	1.402595e+14	5.352259e+03	2.892869e+03	1.891636e+03	0	4.124761e-04
9.000000e+07	8.185884e+11	0.000000e+00	3.863637e-01	3.754484e+13	6.508809e+14	1.394945e+14	5.330623e+03	2.860125e+03	1.870225e+03	0	4.075940e-04
1.000000e+08	7.906870e+11	0.000000e+00	3.863637e-01	3.634010e+13	6.101383e+14	1.387352e+14	5.309696e+03	2.830127e+03	1.850610e+03	0	4.029095e-04
1.100000e+08	7.644978e+11	0.000000e+00	3.863637e-01	3.520900e+13	5.741913e+14	1.379815e+14	5.289434e+03	2.802533e+03	1.832567e+03	0	3.984110e-04
1.200000e+08	7.398785e+11	0.000000e+00	3.863637e-01	3.414544e+13	5.422808e+14	1.372334e+14	5.269797e+03	2.777057e+03	1.815908e+03	0	3.940876e-04
1.300000e+08	7.166996e+11	0.000000e+00	3.863637e-01	3.314383e+13	5.137949e+14	1.364908e+14	5.250748e+03	2.753457e+03	1.800476e+03	0	3.899285e-04
1.400000e+08	6.948431e+11	0.000000e+00	3.863637e-01	3.219913e+13	4.882358e+14	1.357537e+14	5.232253e+03	2.731527e+03	1.786136e+03	0	3.859238e-04
1.500000e+08	6.742027e+11	0.000000e+00	3.863637e-01	3.130674e+13	4.651948e+14	1.350221e+14	5.214281e+03	2.711093e+03	1.772774e+03	0	3.820640e-04
1.600000e+08	6.546820e+11	0.000000e+00	3.863637e-01	3.046255e+13	4.443337e+14	1.342959e+14	5.196803e+03	2.692002e+03	1.760290e+03	0	3.783404e-04
1.700000e+08	6.361937e+11	0.000000e+00	3.863637e-01	2.966279e+13	4.253705e+14	1.335750e+14	5.179792e+03	2.674124e+03	1.748600e+03	0	3.747449e-04
1.800000e+08	6.186593e+11	0.000000e+00	3.863637e-01	2.890409e+13	4.080685e+14	1.328595e+14	5.163225e+03	2.657344e+03	1.737627e+03	0	3.712700e-04
1.900000e+08	6.020073e+11	0.000000e+00	3.863637e-01	2.818337e+13	3.922275e+14	1.321492e+14	5.147078e+03	2.641562e+03	1.727308e+03	0	3.679085e-04
2.000000e+08	5.861731e+11	0.000000e+00	3.863637e-01	2.749787e+13	3.776773e+14	1.314441e+14	5.131331e+03	2.626690e+03	1.717583e+03	0	3.646542e-04
2.100000e+08	5.710981e+11	0.000000e+00	3.863637e-01	2.684506e+13	3.642725e+14	1.307443e+14	5.115965e+03	2.612650e+03	1.708402e+03	0	3.615010e-04
2.200000e+08	5.567289e+11	0.000000e+00	3.863637e-01	2.622265e+13	3.518880e+14	1.300495e+14	5.100960e+03	2.599373e+03	1.699721e+03	0	3.584434e-04
2.300000e+08	5.430169e+11	0.000000e+00	3.863637e-01	2.562855e+13	3.404159e+14	1.293599e+14	5.086301e+03	2.586798e+03	1.691498e+03	0	3.554761e-04
2.400000e+08	5.299180e+11	0.000000e+00	3.863637e-01	2.506086e+13	3.297624e+14	1.286753e+14	5.071972e+03	2.574870e+03	1.683698e+03	0	3.525945e-04
2.500000e+08	5.173917e+11	0.000000e+00	3.863637e-01	2.451784e+13	3.198459e+14	1.279958e+14	5.057958e+03	2.563539e+03	1.676289e+03	0	3.497941e-04
2.600000e+08	5.054009e+11	0.000000e+00	3.863637e-01	2.399790e+13	3.105949e+14	1.273212e+14	5.044246e+03	2.552761e+03	1.669241e+03	0	3.470707e-04
2.700000e+08	4.939118e+11	0.000000e+00	3.863637e-01	2.349958e+13	3.019467e+14	1.266515e+14	5.030822e+03	2.542495e+03	1.662528e+03	0	3.444206e-04
2.800000e+08	4.828933e+11	0.000000e+00	3.863637e-01	2.302154e+13	2.938458e+14	1.259868e+14	5.017676e+03	2.532706e+03	1.656128e+03	0	3.418401e-04
2.900000e+08	4.723167e+11	0.000000e+00	3.863637e-01	2.256255e+13	2.862434e+14	1.253268e+14	5.004796e+03	2.523361e+03	1.650017e+03	0	3.393259e-04
3.000000e+08	4.621557e+11	0.000000e+00	3.863637e-01	2.212148e+13	2.790959e+14	1.246717e+14	4.992170e+03	2.514430e+03	1.644177e+03	0	3.368750e-04
3.100000e+08	4.523860e+11	0.000000e+00	3.863637e-01	2.169729e+13	2.723647e+14	1.240214e+14	4.979790e+03	2.505885e+03	1.638589e+03	0	3.344843e-04
3.200000e+08	4.429851e+11	0.000000e+00	3.863637e-01	2.128900e+13	2.660153e+14	1.233758e+14	4.967646e+03	2.497701e+03	1.633238e+03	0	3.321511e-04
3.300000e+08	4.339323e+11	0.000000e+00	3.863637e-01	2.089572e+13	2.600166e+14	1.227349e+14	4.955730e+03	2.489857e+03	1.628108e+03	0	3.298729e-04
3.400000e+08	4.252084e+11	0.000000e+00	3.863637e-01	2.051663e+13	2.543409e+14	1.220987e+14	4.944032e+03	2.482329e+03	1.623186e+03	0	3.276473e-04
3.500000e+08	4.167955e+11	0.000000e+00	3.863637e-01	2.015096e+13	2.489632e+14	1.214670e+14	4.932545e+03	2.475101e+03	1.618459e+03	0	3.254720e-04
3.600000e+08	4.086770e+11	0.000000e+00	3.863637e-01	1.979799e+13	2.438609e+14	1.208400e+14	4.921262e+03	2.468152e+03	1.613916e+03	0	3.233449e-04
3.700000e+08	4.008375e+11	0.000000e+00	3.863637e-01	1.945707e+13	2.390137e+14	1.202175e+14	4.910175e+03	2.461469e+03	1.609545e+03	0	3.212640e-04
3.800000e+08	3.932627e+11	0.000000e+00	3.863637e-01	1.912757e+13	2.344030e+14	1.195995e+14	4.899278e+03	2.455034e+03	1.605338e+03	0	3.192274e-04
3.900000e+08	3.859393e+11	0.000000e+00	3.863637e-01	1.880892e+13	2.300121e+14	1.189859e+14	4.888565e+03	2.448834e+03	1.601284e+03	0	3.172334e-04
4.000000e+08	3.788546e+11	0.000000e+00	3.863637e-01	1.850058e+13	2.258255e+14	1.183768e+14	4.878029e+03	2.442856e+03	1.597375e+03	0	3.152803e-04
4.100000e+08	3.719971e+11	0.000000e+00	3.863637e-01	1.820205e+13	2.218295e+14	1.177721e+14	4.867665e+03	2.437088e+03	1.593603e+03	0	3.133664e-04
4.200000e+08	3.653558e+11	0.000000e+00	3.863637e-01	1.791286e+13	2.180112e+14	1.171717e+14	4.857468e+03	2.431519e+03	1.589962e+03	0	3.114904e-04
4.300000e+08	3.589205e+11	0.000000e+00	3.863637e-01	1.763256e+13	2.143591e+14	1.165757e+14	4.847431e+03	2.426138e+03	1.586443e+03	0	3.096507e-04
4.400000e+08	3.526817e+11	0.000000e+00	3.863637e-01	1.736076e+13	2.108623e+14	1.159839e+14	4.837551e+03	2.420936e+03	1.583041e+03	0	3.078461e-04
4.500000e+08	3.466302e+11	0.000000e+00	3.863637e-01	1.709704e+13	2.075111e+14	1.153965e+14	4.827823e+03	2.415903e+03	1.579750e+03	0	3.060752e-04
4.600000e+08	3.407578e+11	0.000000e+00	3.863637e-01	1.684107e+13	2.042965e+14	1.148132e+14	4.818241e+03	2.411031e+03	1.576565e+03	0	3.043369e-04
4.700000e+08	3.350564e+11	0.000000e+00	3.863637e-01	1.659248e+13	2.012101e+14	1.142341e+14	4.808803e+03	2.406312e+03	1.573479e+03	0	3.026300e-04
4.800000e+08	3.295185e+11	0.000000e+00	3.863637e-01	1.635096e+13	1.982442e+14	1.136591e+14	4.799503e+03	2.401738e+03	1.570488e+03	0	3.009534e-04
4.900000e+08	3.241371e+11	0.000000e+00	3.863637e-01	1.611621e+13	1.953918e+14	1.130883e+14	4.790337e+03	2.397303e+03	1.567588e+03	0	2.993061e-04
5.000000e+08	3.189055e+11	0.000000e+00	3.863637e-01	1.588794e+13	1.926463e+14	1.125216e+14	4.781303e+03	2.393000e+03	1.564774e+03	0	2.976871e-04
5.100000e+08	3.138176e+11	0.000000e+00	3.863637e-01	1.566588e+13	1.900016e+14	1.119589e+14	4.772396e+03	2.388823e+03	1.562042e+03	0	2.960954e-04
5.200000e+08	3.088673e+11	0.000000e+00	3.863637e-01	1.544977e+13	1.874521e+14	1.114002e+14	4.763613e+03	2.384765e+03	1.559389e+03	0	2.945303e-04
5.300000e+08	3.040491e+11	0.000000e+00	3.863637e-01	1.523937e+13	1.849925e+14	1.108455e+14	4.754951e+03	2.380822e+03	1.556811e+03	0	2.929907e-04
5.400000e+08	2.993577e+11	0.000000e+00	3.863637e-01	1.503446e+13	1.826180e+14	1.102947e+14	4.746406e+03	2.376988e+03	1.554304e+03	0	2.914760e-04
5.500000e+08	2.947880e+11	0.000000e+00	3.863637e-01	1.483481e+13	1.803240e+14	1.097479e+14	4.737975e+03	2.373259e+03	1.551866e+03	0	2.899852e-04
5.600000e+08	2.903354e+11	0.000000e+00	3.863637e-01	1.464023e+13	1.781063e+14	1.092050e+14	4.729656e+03	2.369630e+03	1.549492e+03	0	2.885178e-04
5.700000e+08	2.859952e+11	0.000000e+00	3.863637e-01	1.445052e+13	1.759610e+14	1.086659e+14	4.721446e+03	2.366096e+03	1.547182e+03	0	2.870729e-04
5.800000e+08	2.817633e+11	0.000000e+00	3.863637e-01	1.426550e+13	1.738844e+14	1.081306e+14	4.713341e+03	2.362654e+03	1.544931e+03	0	2.856499e-04
5.900000e+08	2.776356e+11	0.000000e+00	3.863637e-01	1.408498e+13	1.718730e+14	1.075992e+14	4.705340e+03	2.359299e+03	1.542737e+03	0	2.842482e-04
6.000000e+08	2.736082e+11	0.000000e+00	3.863637e-01	1.390881e+13	1.699236e+14	1.070715e+14	4.697440e+03	2.356028e+03	1.540598e+03	0	2.828670e-04
6.100000e+08	2.696775e+11	0.000000e+00	3.863637e-01	1.373682e+13	1.680333e+14	1.065475e+14	4.689638e+03	2.352838e+03	1.538512e+03	0	2.815059e-04
6.200000e+08	2.658399e+11	0.000000e+00	3.863637e-01	1.356887e+13	1.661991e+14	1.060272e+14	4.681932e+03	2.349725e+03	1.536477e+03	0	2.801642e-04
6.300000e+08	2.620922e+11	0.000000e+00	3.863637e-01	1.340481e+13	1.644184e+14	1.055106e+14	4.674320e+03	2.346686e+03	1.534490e+03	0	2.788415e-04
6.400000e+08	2.584313e+11	0.000000e+00	3.863637e-01	1.324451e+13	1.626887e+14	1.049977e+14	4.666800e+03	2.343719e+03	1.532549e+03	0	2.775371e-04
6.500000e+08	2.548540e+11	0.000000e+00	3.863637e-01	1.308784e+13	1.610078e+14	1.044883e+14	4.659369e+03	2.340820e+03	1.530653e+03	0	2.762505e-04
6.600000e+08	2.513575e+11	0.000000e+00	3.863637e-01	1.293466e+13	1.593733e+14	1.039826e+14	4.652026e+03	2.337986e+03	1.528801e+03	0	2.749813e-04
6.700000e+08	2.479391e+11	0.000000e+00	3.863637e-01	1.278487e+13	1.577831e+14	1.034804e+14	4.644768e+03	2.335215e+03	1.526989e+03	0	2.737291e-04
6.800000e+08	2.445961e+11	0.000000e+00	3.863637e-01	1.263835e+13	1.562355e+14	1.029817e+14	4.637594e+03	2.332506e+03	1.525217e+03	0	2.724933e-04
6.900000e+08	2.413262e+11	0.000000e+00	3.863637e-01	1.249500e+13	1.547284e+14	1.024865e+14	4.630502e+03	2.329854e+03	1.523483e+03	0	2.712735e-04
7.000000e+08	2.381268e+11	0.000000e+00	3.863637e-01	1.235470e+13	1.532602e+14	1.019948e+14	4.623490e+03	2.327259e+03	1.521786e+03	0	2.700694e-04
7.100000e+08	2.349956e+11	0.000000e+00	3.863637e-01	1.221737e+13	1.518291e+14	1.015066e+14	4.616557e+03	2.324718e+03	1.520125e+03	0	2.688804e-04
7.200000e+08	2.319306e+11	0.000000e+00	3.863637e-01	1.208290e+13	1.504337e+14	1.010217e+14	4.609700e+03	2.322230e+03	1.518498e+03	0	2.677063e-04
7.300000e+08	2.289296e+11	0.000000e+00	3.863637e-01	1.195121e+13	1.490725e+14	1.005403e+14	4.602919e+03	2.319791e+03	1.516903e+03	0	2.665467e-04
7.400000e+08	2.259906e+11	0.000000e+00	3.863637e-01	1.182221e+13	1.477441e+14	1.000622e+14	4.596211e+03	2.317401e+03	1.515340e+03	0	2.654011e-04
7.500000e+08	2.231117e+11	0.000000e+00	3.863637e-01	1.169581e+13	1.464472e+14	9.958742e+13	4.589575e+03	2.315058e+03	1.513808e+03	0	2.642693e-04
7.600000e+08	2.202910e+11	0.000000e+00	3.863637e-01	1.157194e+13	1.451805e+14	9.911597e+13	4.583010e+03	2.312760e+03	1.512305e+03	0	2.631509e-04
7.700000e+08	2.175268e+11	0.000000e+00	3.863637e-01	1.145053e+13	1.439428e+14	9.864779e+13	4.576515e+03	2.310505e+03	1.510831e+03	0	2.620456e-04
7.800000e+08	2.148174e+11	0.000000e+00	3.863637e-01	1.133149e+13	1.427330e+14	9.818287e+13	4.570087e+03	2.308293e+03	1.509384e+03	0	2.609531e-04
7.900000e+08	2.121612e+11	0.000000e+00	3.863637e-01	1.121476e+13	1.415501e+14	9.772118e+13	4.563726e+03	2.306121e+03	1.507964e+03	0	2.598731e-04
8.000000e+08	2.095566e+11	0.000000e+00	3.863637e-01	1.110027e+13	1.403930e+14	9.726269e+13	4.557430e+03	2.303988e+03	1.506569e+03	0	2.588052e-04
8.100000e+08	2.070021e+11	0.000000e+00	3.863637e-01	1.098796e+13	1.392608e+14	9.680737e+13	4.551198e+03	2.301893e+03	1.505200e+03	0	2.577493e-04
8.200000e+08	2.044962e+11	0.000000e+00	3.863637e-01	1.087776e+13	1.381525e+14	9.635521e+13	4.545029e+03	2.299835e+03	1.503854e+03	0	2.567050e-04
8.300000e+08	2.020377e+11	0.000000e+00	3.863637e-01	1.076962e+13	1.370673e+14	9.590617e+13	4.538921e+03	2.297812e+03	1.502531e+03	0	2.556721e-04
8.400000e+08	1.996250e+11	0.000000e+00	3.863637e-01	1.066347e+13	1.360044e+14	9.546024e+13	4.532875e+03	2.295824e+03	1.501231e+03	0	2.546504e-04
8.500000e+08	1.972571e+11	0.000000e+00	3.863637e-01	1.055926e+13	1.349629e+14	9.501738e+13	4.526887e+03	2.293868e+03	1.499952e+03	0	2.536395e-04
8.600000e+08	1.949326e+11	0.000000e+00	3.863637e-01	1.045694e+13	1.339422e+14	9.457758e+13	4.520958e+03	2.291945e+03	1.498695e+03	0	2.526392e-04
8.700000e+08	1.926503e+11	0.000000e+00	3.863637e-01	1.035645e+13	1.329414e+14	9.414080e+13	4.515086e+03	2.290053e+03	1.497457e+03	0	2.516494e-04
8.800000e+08	1.904091e+11	0.000000e+00	3.863637e-01	1.025775e+13	1.319600e+14	9.370702e+13	4.509271e+03	2.288191e+03	1.496240e+03	0	2.506697e-04
8.900000e+08	1.882079e+11	0.000000e+00	3.863637e-01	1.016079e+13	1.309972e+14	9.327623e+13	4.503510e+03	2.286358e+03	1.495041e+03	0	2.497000e-04
9.000000e+08	1.860456e+11	0.000000e+00	3.863637e-01	1.006553e+13	1.300525e+14	9.284839e+13	4.497804e+03	2.284553e+03	1.493861e+03	0	2.487401e-04
9.100000e+08	1.839213e+11	0.000000e+00	3.863637e-01	9.971908e+12	1.291252e+14	9.242349e+13	4.492151e+03	2.282776e+03	1.492699e+03	0	2.477897e-04
9.200000e+08	1.818339e+11	0.000000e+00	3.863637e-01	9.879895e+12	1.282147e+14	9.200150e+13	4.486551e+03	2.281025e+03	1.491554e+03	0	2.468487e-04
9.300000e+08	1.797824e+11	0.000000e+00	3.863637e-01	9.789445e+12	1.273206e+14	9.158239e+13	4.481002e+03	2.279300e+03	1.490426e+03	0	2.459169e-04
9.400000e+08	1.777660e+11	0.000000e+00	3.863637e-01	9.700520e+12	1.264423e+14	9.116615e+13	4.475504e+03	2.277600e+03	1.489315e+03	0	2.449940e-04
9.500000e+08	1.757837e+11	0.000000e+00	3.863637e-01	9.613081e+12	1.255793e+14	9.075275e+13	4.470055e+03	2.275925e+03	1.488219e+03	0	2.440800e-04
9.600000e+08	1.738347e+11	0.000000e+00	3.863637e-01	9.527091e+12	1.247311e+14	9.034216e+13	4.464656e+03	2.274273e+03	1.487139e+03	0	2.431745e-04
9.700000e+08	1.719182e+11	0.000000e+00	3.863637e-01	9.442513e+12	1.238973e+14	8.993438e+13	4.459305e+03	2.272643e+03	1.486073e+03	0	2.422776e-04
9.800000e+08	1.700333e+11	0.000000e+00	3.863637e-01	9.359314e+12	1.230774e+14	8.952937e+13	4.454001e+03	2.271036e+03	1.485023e+03	0	2.413889e-04
9.900000e+08	1.681793e+11	0.000000e+00	3.863637e-01	9.277458e+12	1.222711e+14	8.912711e+13	4.448743e+03	2.269451e+03	1.483986e+03	0	2.405083e-04
1.000000e+09	1.663555e+11	0.000000e+00	3.863637e-01	9.196915e+12	1.214778e+14	8.872758e+13	4.443532e+03	2.267886e+03	1.482963e+03	0	2.396358e-04
1.010000e+09	1.645610e+11	0.000000e+00	3.863637e-01	9.117652e+12	1.206973e+14	8.833076e+13	4.438365e+03	2.266342e+03	1.481953e+03	0	2.387710e-04
1.020000e+09	1.627953e+11	0.000000e+00	3.863637e-01	9.039639e+12	1.199292e+14	8.793663e+13	4.433243e+03	2.264818e+03	1.480956e+03	0	2.379139e-04
1.030000e+09	1.610576e+11	0.000000e+00	3.863637e-01	8.962847e+12	1.191730e+14	8.754517e+13	4.428165e+03	2.263313e+03	1.479972e+03	0	2.370644e-04
1.040000e+09	1.593472e+11	0.000000e+00	3.863637e-01	8.887247e+12	1.184285e+14	8.715635e+13	4.423130e+03	2.261826e+03	1.479000e+03	0	2.362222e-04
1.050000e+09	1.576636e+11	0.000000e+00	3.863637e-01	8.812811e+12	1.176953e+14	8.677016e+13	4.418137e+03	2.260358e+03	1.478040e+03	0	2.353873e-04
1.060000e+09	1.560061e+11	0.000000e+00	3.863637e-01	8.739513e+12	1.169732e+14	8.638657e+13	4.413186e+03	2.258908e+03	1.477092e+03	0	2.345595e-04
1.070000e+09	1.543740e+11	0.000000e+00	3.863637e-01	8.667326e+12	1.162618e+14	8.600557e+13	4.408275e+03	2.257475e+03	1.476155e+03	0	2.337388e-04
1.080000e+09	1.527670e+11	0.000000e+00	3.863637e-01	8.596227e+12	1.155607e+14	8.562713e+13	4.403406e+03	2.256059e+03	1.475229e+03	0	2.329248e-04
1.090000e+09	1.511843e+11	0.000000e+00	3.863637e-01	8.526189e+12	1.148699e+14	8.525123e+13	4.398576e+03	2.254659e+03	1.474313e+03	0	2.321176e-04
1.100000e+09	1.496254e+11	0.000000e+00	3.863637e-01	8.457190e+12	1.141889e+14	8.487786e+13	4.393785e+03	2.253275e+03	1.473408e+03	0	2.313171e-04
1.110000e+09	1.480898e+11	0.000000e+00	3.863637e-01	8.389207e+12	1.135175e+14	8.450699e+13	4.389033e+03	2.251906e+03	1.472513e+03	0	2.305230e-04
1.120000e+09	1.465770e+11	0.000000e+00	3.863637e-01	8.322217e+12	1.128555e+14	8.413861e+13	4.384319e+03	2.250553e+03	1.471628e+03	0	2.297354e-04
1.130000e+09	1.450865e+11	0.000000e+00	3.863637e-01	8.256199e+12	1.122026e+14	8.377269e+13	4.379643e+03	2.249214e+03	1.470753e+03	0	2.289540e-04
1.140000e+09	1.436177e+11	0.000000e+00	3.863637e-01	8.191132e+12	1.115586e+14	8.340922e+13	4.375003e+03	2.247890e+03	1.469887e+03	0	2.281788e-04
1.150000e+09	1.421703e+11	0.000000e+00	3.863637e-01	8.126995e+12	1.109233e+14	8.304818e+13	4.370400e+03	2.246580e+03	1.469031e+03	0	2.274097e-04
1.160000e+09	1.407438e+11	0.000000e+00	3.863637e-01	8.063770e+12	1.102964e+14	8.268954e+13	4.365833e+03	2.245284e+03	1.468183e+03	0	2.266465e-04
1.170000e+09	1.393377e+11	0.000000e+00	3.863637e-01	8.001435e+12	1.096777e+14	8.233329e+13	4.361302e+03	2.244001e+03	1.467344e+03	0	2.258892e-04
1.180000e+09	1.379516e+11	0.000000e+00	3.863637e-01	7.939974e+12	1.090671e+14	8.197942e+13	4.356805e+03	2.242731e+03	1.466514e+03	0	2.251377e-04
1.190000e+09	1.365851e+11	0.000000e+00	3.863637e-01	7.879367e+12	1.084644e+14	8.162789e+13	4.352343e+03	2.241473e+03	1.465691e+03	0	2.243918e-04
1.200000e+09	1.352378e+11	0.000000e+00	3.863637e-01	7.819598e+12	1.078693e+14	8.127870e+13	4.347915e+03	2.240229e+03	1.464877e+03	0	2.236516e-04
1.210000e+09	1.339092e+11	0.000000e+00	3.863637e-01	7.760648e+12	1.072817e+14	8.093183e+13	4.343520e+03	2.238996e+03	1.464071e+03	0	2.229168e-04
1.220000e+09	1.325991e+11	0.000000e+00	3.863637e-01	7.702502e+12	1.067014e+14	8.058725e+13	4.339159e+03	2.237775e+03	1.463273e+03	0	2.221874e-04
1.230000e+09	1.313069e+11	0.000000e+00	3.863637e-01	7.645143e+12	1.061283e+14	8.024495e+13	4.334830e+03	2.236566e+03	1.462482e+03	0	2.214633e-04
1.240000e+09	1.300325e+11	0.000000e+00	3.863637e-01	7.588555e+12	1.055621e+14	7.990492e+13	4.330533e+03	2.235368e+03	1.461699e+03	0	2.207445e-04
1.250000e+09	1.287753e+11	0.000000e+00	3.863637e-01	7.532724e+12	1.050027e+14	7.956713e+13	4.326267e+03	2.234181e+03	1.460923e+03	0	2.200308e-04
1.260000e+09	1.275351e+11	0.000000e+00	3.863637e-01	7.477633e+12	1.044500e+14	7.923157e+13	4.322034e+03	2.233005e+03	1.460154e+03	0	2.193222e-04
1.270000e+09	1.263115e+11	0.000000e+00	3.863637e-01	7.423269e+12	1.039039e+14	7.889822e+13	4.317831e+03	2.231839e+03	1.459392e+03	0	2.186185e-04
1.280000e+09	1.251042e+11	0.000000e+00	3.863637e-01	7.369617e+12	1.033641e+14	7.856706e+13	4.313658e+03	2.230684e+03	1.458636e+03	0	2.179198e-04
1.290000e+09	1.239129e+11	0.000000e+00	3.863637e-01	7.316664e+12	1.028305e+14	7.823807e+13	4.309516e+03	2.229539e+03	1.457887e+03	0	2.172258e-04
1.300000e+09	1.227373e+11	0.000000e+00	3.863637e-01	7.264396e+12	1.023031e+14	7.791125e+13	4.305403e+03	2.228404e+03	1.457145e+03	0	2.165367e-04
1.310000e+09	1.215771e+11	0.000000e+00	3.863637e-01	7.212800e+12	1.017816e+14	7.758657e+13	4.301319e+03	2.227278e+03	1.456409e+03	0	2.158522e-04
1.320000e+09	1.204319e+11	0.000000e+00	3.863637e-01	7.161863e+12	1.012660e+14	7.726401e+13	4.297265e+03	2.226162e+03	1.455679e+03	0	2.151724e-04
1.330000e+09	1.193015e+11	0.000000e+00	3.863637e-01	7.111573e+12	1.007561e+14	7.694357e+13	4.293239e+03	2.225055e+03	1.454956e+03	0	2.144970e-04
1.340000e+09	1.181857e+11	0.000000e+00	3.863637e-01	7.061918e+12	1.002518e+14	7.662522e+13	4.289241e+03	2.223958e+03	1.454238e+03	0	2.138262e-04
1.350000e+09	1.170840e+11	0.000000e+00	3.863637e-01	7.012886e+12	9.975305e+13	7.630894e+13	4.285271e+03	2.222869e+03	1.453526e+03	0	2.131597e-04
1.360000e+09	1.159964e+11	0.000000e+00	3.863637e-01	6.964465e+12	9.925966e+13	7.599473e+13	4.281329e+03	2.221789e+03	1.452820e+03	0	2.124976e-04
