#t		Qconv[W]	Ri[Rp]		R*[Rp]		Qc[W]		Qm[W]		Qr[W]		Tcmb[K]		Tl[K]		Tup[K]		RiFlag		Bs[T]
0.000000e+00	2.949747e+12	0.000000e+00	3.828571e-01	1.050187e+14	2.029347e+15	2.159872e+14	7.061895e+03	3.886036e+03	2.315252e+03	0	6.151544e-04
1.000000e+07	2.816392e+12	0.000000e+00	3.828571e-01	1.005601e+14	1.818620e+15	2.147905e+14	7.023283e+03	3.810564e+03	2.270287e+03	0	6.057409e-04
2.000000e+07	2.692623e+12	0.000000e+00	3.828571e-01	9.642079e+13	1.644667e+15	2.136027e+14	6.986290e+03	3.743866e+03	2.230549e+03	0	5.967344e-04
3.000000e+07	2.577807e+12	0.000000e+00	3.828571e-01	9.257970e+13	1.499136e+15	2.124238e+14	6.950800e+03	3.684430e+03	2.195137e+03	0	5.881291e-04
4.000000e+07	2.471234e+12	0.000000e+00	3.828571e-01	8.901320e+13	1.375946e+15	2.112537e+14	6.916708e+03	3.631078e+03	2.163351e+03	0	5.799099e-04
5.000000e+07	2.372193e+12	0.000000e+00	3.828571e-01	8.569760e+13	1.270578e+15	2.100923e+14	6.883915e+03	3.582880e+03	2.134635e+03	0	5.720569e-04
6.000000e+07	2.280008e+12	0.000000e+00	3.828571e-01	8.261040e+13	1.179618e+15	2.089396e+14	6.852330e+03	3.539093e+03	2.108547e+03	0	5.645486e-04
7.000000e+07	2.194053e+12	0.000000e+00	3.828571e-01	7.973082e+13	1.100443e+15	2.077955e+14	6.821872e+03	3.499110e+03	2.084726e+03	0	5.573631e-04
8.000000e+07	2.113760e+12	0.000000e+00	3.828571e-01	7.703995e+13	1.031012e+15	2.066599e+14	6.792464e+03	3.462436e+03	2.062876e+03	0	5.504794e-04
9.000000e+07	2.038617e+12	0.000000e+00	3.828571e-01	7.452074e+13	9.697155e+14	2.055327e+14	6.764039e+03	3.428660e+03	2.042753e+03	0	5.438775e-04
1.000000e+08	1.968164e+12	0.000000e+00	3.828571e-01	7.215790e+13	9.152686e+14	2.044139e+14	6.736535e+03	3.397438e+03	2.024151e+03	0	5.375386e-04
1.100000e+08	1.901990e+12	0.000000e+00	3.828571e-01	6.993771e+13	8.666360e+14	2.033034e+14	6.709895e+03	3.368479e+03	2.006898e+03	0	5.314454e-04
1.200000e+08	1.839726e+12	0.000000e+00	3.828571e-01	6.784793e+13	8.229750e+14	2.022011e+14	6.684068e+03	3.341536e+03	1.990846e+03	0	5.255818e-04
1.300000e+08	1.781043e+12	0.000000e+00	3.828571e-01	6.587759e+13	7.835934e+14	2.011070e+14	6.659006e+03	3.316399e+03	1.975869e+03	0	5.199330e-04
1.400000e+08	1.725645e+12	0.000000e+00	3.828571e-01	6.401685e+13	7.479182e+14	2.000210e+14	6.634665e+03	3.292885e+03	1.961860e+03	0	5.144854e-04
1.500000e+08	1.673268e+12	0.000000e+00	3.828571e-01	6.225690e+13	7.154715e+14	1.989430e+14	6.611006e+03	3.270837e+03	1.948724e+03	0	5.092265e-04
1.600000e+08	1.623673e+12	0.000000e+00	3.828571e-01	6.058982e+13	6.858516e+14	1.978730e+14	6.587993e+03	3.250116e+03	1.936379e+03	0	5.041449e-04
1.700000e+08	1.576646e+12	0.000000e+00	3.828571e-01	5.900847e+13	6.587192e+14	1.968108e+14	6.565591e+03	3.230604e+03	1.924754e+03	0	4.992300e-04
1.800000e+08	1.531995e+12	0.000000e+00	3.828571e-01	5.750642e+13	6.337855e+14	1.957565e+14	6.543769e+03	3.212193e+03	1.913785e+03	0	4.944719e-04
1.900000e+08	1.489543e+12	0.000000e+00	3.828571e-01	5.607784e+13	6.108037e+14	1.947100e+14	6.522498e+03	3.194791e+03	1.903416e+03	0	4.898618e-04
2.000000e+08	1.449134e+12	0.000000e+00	3.828571e-01	5.471747e+13	5.895614e+14	1.936712e+14	6.501752e+03	3.178313e+03	1.893599e+03	0	4.853914e-04
2.100000e+08	1.410624e+12	0.000000e+00	3.828571e-01	5.342054e+13	5.698752e+14	1.926400e+14	6.481506e+03	3.162687e+03	1.884289e+03	0	4.810530e-04
2.200000e+08	1.373881e+12	0.000000e+00	3.828571e-01	5.218268e+13	5.515858e+14	1.916163e+14	6.461736e+03	3.147845e+03	1.875447e+03	0	4.768396e-04
2.300000e+08	1.338788e+12	0.000000e+00	3.828571e-01	5.099994e+13	5.345546e+14	1.906002e+14	6.442421e+03	3.133729e+03	1.867037e+03	0	4.727445e-04
2.400000e+08	1.305236e+12	0.000000e+00	3.828571e-01	4.986869e+13	5.186600e+14	1.895916e+14	6.423541e+03	3.120285e+03	1.859027e+03	0	4.687618e-04
2.500000e+08	1.273125e+12	0.000000e+00	3.828571e-01	4.878564e+13	5.037951e+14	1.885903e+14	6.405076e+03	3.107464e+03	1.851388e+03	0	4.648857e-04
2.600000e+08	1.242364e+12	0.000000e+00	3.828571e-01	4.774774e+13	4.898660e+14	1.875964e+14	6.387011e+03	3.095224e+03	1.844096e+03	0	4.611110e-04
2.700000e+08	1.212870e+12	0.000000e+00	3.828571e-01	4.675221e+13	4.767892e+14	1.866097e+14	6.369327e+03	3.083523e+03	1.837125e+03	0	4.574328e-04
2.800000e+08	1.184566e+12	0.000000e+00	3.828571e-01	4.579649e+13	4.644908e+14	1.856302e+14	6.352009e+03	3.072328e+03	1.830455e+03	0	4.538465e-04
2.900000e+08	1.157382e+12	0.000000e+00	3.828571e-01	4.487823e+13	4.529049e+14	1.846579e+14	6.335043e+03	3.061604e+03	1.824065e+03	0	4.503478e-04
3.000000e+08	1.131251e+12	0.000000e+00	3.828571e-01	4.399526e+13	4.419726e+14	1.836927e+14	6.318416e+03	3.051321e+03	1.817939e+03	0	4.469328e-04
3.100000e+08	1.106115e+12	0.000000e+00	3.828571e-01	4.314555e+13	4.316412e+14	1.827345e+14	6.302113e+03	3.041452e+03	1.812059e+03	0	4.435977e-04
3.200000e+08	1.081917e+12	0.000000e+00	3.828571e-01	4.232725e+13	4.218635e+14	1.817832e+14	6.286123e+03	3.031971e+03	1.806411e+03	0	4.403391e-04
3.300000e+08	1.058606e+12	0.000000e+00	3.828571e-01	4.153863e+13	4.125967e+14	1.808389e+14	6.270435e+03	3.022856e+03	1.800980e+03	0	4.371535e-04
3.400000e+08	1.036133e+12	0.000000e+00	3.828571e-01	4.077811e+13	4.038024e+14	1.799015e+14	6.255038e+03	3.014084e+03	1.795754e+03	0	4.340379e-04
3.500000e+08	1.014454e+12	0.000000e+00	3.828571e-01	4.004419e+13	3.954458e+14	1.789708e+14	6.239921e+03	3.005637e+03	1.790721e+03	0	4.309894e-04
3.600000e+08	9.935275e+11	0.000000e+00	3.828571e-01	3.933548e+13	3.874954e+14	1.780469e+14	6.225074e+03	2.997495e+03	1.785870e+03	0	4.280053e-04
3.700000e+08	9.733153e+11	0.000000e+00	3.828571e-01	3.865071e+13	3.799224e+14	1.771297e+14	6.210489e+03	2.989642e+03	1.781192e+03	0	4.250830e-04
3.800000e+08	9.537812e+11	0.000000e+00	3.828571e-01	3.798866e+13	3.727007e+14	1.762191e+14	6.196156e+03	2.982063e+03	1.776676e+03	0	4.222200e-04
3.900000e+08	9.348916e+11	0.000000e+00	3.828571e-01	3.734822e+13	3.658066e+14	1.753151e+14	6.182068e+03	2.974741e+03	1.772314e+03	0	4.194140e-04
4.000000e+08	9.166149e+11	0.000000e+00	3.828571e-01	3.672833e+13	3.592183e+14	1.744176e+14	6.168215e+03	2.967665e+03	1.768098e+03	0	4.166629e-04
4.100000e+08	8.989219e+11	0.000000e+00	3.828571e-01	3.612802e+13	3.529158e+14	1.735266e+14	6.154592e+03	2.960821e+03	1.764020e+03	0	4.139646e-04
4.200000e+08	8.817849e+11	0.000000e+00	3.828571e-01	3.554636e+13	3.468809e+14	1.726421e+14	6.141190e+03	2.954197e+03	1.760074e+03	0	4.113171e-04
4.300000e+08	8.651782e+11	0.000000e+00	3.828571e-01	3.498250e+13	3.410968e+14	1.717639e+14	6.128002e+03	2.947782e+03	1.756252e+03	0	4.087186e-04
4.400000e+08	8.490773e+11	0.000000e+00	3.828571e-01	3.443561e+13	3.355481e+14	1.708920e+14	6.115023e+03	2.941567e+03	1.752549e+03	0	4.061673e-04
4.500000e+08	8.334597e+11	0.000000e+00	3.828571e-01	3.390494e+13	3.302204e+14	1.700264e+14	6.102245e+03	2.935541e+03	1.748959e+03	0	4.036616e-04
4.600000e+08	8.183037e+11	0.000000e+00	3.828571e-01	3.338977e+13	3.251007e+14	1.691669e+14	6.089664e+03	2.929696e+03	1.745476e+03	0	4.011998e-04
4.700000e+08	8.035893e+11	0.000000e+00	3.828571e-01	3.288943e+13	3.201769e+14	1.683137e+14	6.077273e+03	2.924022e+03	1.742096e+03	0	3.987805e-04
4.800000e+08	7.892973e+11	0.000000e+00	3.828571e-01	3.240327e+13	3.154376e+14	1.674666e+14	6.065066e+03	2.918512e+03	1.738813e+03	0	3.964022e-04
4.900000e+08	7.754099e+11	0.000000e+00	3.828571e-01	3.193071e+13	3.108725e+14	1.666255e+14	6.053039e+03	2.913159e+03	1.735624e+03	0	3.940636e-04
5.000000e+08	7.619101e+11	0.000000e+00	3.828571e-01	3.147117e+13	3.064719e+14	1.657905e+14	6.041187e+03	2.907955e+03	1.732523e+03	0	3.917633e-04
5.100000e+08	7.487819e+11	0.000000e+00	3.828571e-01	3.102412e+13	3.022269e+14	1.649614e+14	6.029505e+03	2.902894e+03	1.729508e+03	0	3.895002e-04
5.200000e+08	7.360101e+11	0.000000e+00	3.828571e-01	3.058905e+13	2.981290e+14	1.641382e+14	6.017987e+03	2.897969e+03	1.726574e+03	0	3.872729e-04
5.300000e+08	7.235805e+11	0.000000e+00	3.828571e-01	3.016548e+13	2.941705e+14	1.633209e+14	6.006631e+03	2.893175e+03	1.723717e+03	0	3.850805e-04
5.400000e+08	7.114795e+11	0.000000e+00	3.828571e-01	2.975296e+13	2.903442e+14	1.625094e+14	5.995431e+03	2.888505e+03	1.720936e+03	0	3.829217e-04
5.500000e+08	6.996941e+11	0.000000e+00	3.828571e-01	2.935106e+13	2.866433e+14	1.617037e+14	5.984383e+03	2.883956e+03	1.718225e+03	0	3.807956e-04
5.600000e+08	6.882124e+11	0.000000e+00	3.828571e-01	2.895937e+13	2.830615e+14	1.609038e+14	5.973484e+03	2.879521e+03	1.715583e+03	0	3.787012e-04
5.700000e+08	6.770226e+11	0.000000e+00	3.828571e-01	2.857751e+13	2.795927e+14	1.601095e+14	5.962730e+03	2.875197e+03	1.713006e+03	0	3.766375e-04
5.800000e+08	6.661138e+11	0.000000e+00	3.828571e-01	2.820510e+13	2.762316e+14	1.593208e+14	5.952117e+03	2.870977e+03	1.710493e+03	0	3.746037e-04
5.900000e+08	6.554755e+11	0.000000e+00	3.828571e-01	2.784180e+13	2.729730e+14	1.585378e+14	5.941642e+03	2.866859e+03	1.708039e+03	0	3.725987e-04
6.000000e+08	6.450979e+11	0.000000e+00	3.828571e-01	2.748727e+13	2.698119e+14	1.577602e+14	5.931301e+03	2.862839e+03	1.705644e+03	0	3.706219e-04
6.100000e+08	6.349714e+11	0.000000e+00	3.828571e-01	2.714121e+13	2.667438e+14	1.569882e+14	5.921091e+03	2.858912e+03	1.703304e+03	0	3.686724e-04
6.200000e+08	6.250872e+11	0.000000e+00	3.828571e-01	2.680330e+13	2.637643e+14	1.562216e+14	5.911010e+03	2.855075e+03	1.701018e+03	0	3.667494e-04
6.300000e+08	6.154366e+11	0.000000e+00	3.828571e-01	2.647326e+13	2.608696e+14	1.554605e+14	5.901053e+03	2.851324e+03	1.698783e+03	0	3.648522e-04
6.400000e+08	6.060115e+11	0.000000e+00	3.828571e-01	2.615081e+13	2.580557e+14	1.547047e+14	5.891218e+03	2.847656e+03	1.696598e+03	0	3.629801e-04
6.500000e+08	5.968040e+11	0.000000e+00	3.828571e-01	2.583571e+13	2.553191e+14	1.539542e+14	5.881503e+03	2.844068e+03	1.694461e+03	0	3.611324e-04
6.600000e+08	5.878069e+11	0.000000e+00	3.828571e-01	2.552769e+13	2.526564e+14	1.532090e+14	5.871904e+03	2.840558e+03	1.692369e+03	0	3.593085e-04
6.700000e+08	5.790128e+11	0.000000e+00	3.828571e-01	2.522652e+13	2.500644e+14	1.524691e+14	5.862419e+03	2.837122e+03	1.690322e+03	0	3.575076e-04
6.800000e+08	5.704152e+11	0.000000e+00	3.828571e-01	2.493197e+13	2.475401e+14	1.517344e+14	5.853046e+03	2.833757e+03	1.688317e+03	0	3.557292e-04
6.900000e+08	5.620074e+11	0.000000e+00	3.828571e-01	2.464382e+13	2.450808e+14	1.510048e+14	5.843782e+03	2.830461e+03	1.686353e+03	0	3.539728e-04
7.000000e+08	5.537834e+11	0.000000e+00	3.828571e-01	2.436188e+13	2.426836e+14	1.502803e+14	5.834624e+03	2.827232e+03	1.684429e+03	0	3.522377e-04
7.100000e+08	5.457371e+11	0.000000e+00	3.828571e-01	2.408593e+13	2.403461e+14	1.495609e+14	5.825571e+03	2.824067e+03	1.682544e+03	0	3.505234e-04
7.200000e+08	5.378630e+11	0.000000e+00	3.828571e-01	2.381579e+13	2.380658e+14	1.488465e+14	5.816620e+03	2.820964e+03	1.680695e+03	0	3.488294e-04
7.300000e+08	5.301555e+11	0.000000e+00	3.828571e-01	2.355128e+13	2.358405e+14	1.481371e+14	5.807769e+03	2.817920e+03	1.678882e+03	0	3.471552e-04
7.400000e+08	5.226095e+11	0.000000e+00	3.828571e-01	2.329222e+13	2.336680e+14	1.474327e+14	5.799016e+03	2.814935e+03	1.677103e+03	0	3.455002e-04
7.500000e+08	5.152200e+11	0.000000e+00	3.828571e-01	2.303844e+13	2.315462e+14	1.467332e+14	5.790358e+03	2.812005e+03	1.675358e+03	0	3.438641e-04
7.600000e+08	5.079822e+11	0.000000e+00	3.828571e-01	2.278978e+13	2.294733e+14	1.460385e+14	5.781795e+03	2.809130e+03	1.673644e+03	0	3.422463e-04
7.700000e+08	5.008914e+11	0.000000e+00	3.828571e-01	2.254610e+13	2.274473e+14	1.453487e+14	5.773324e+03	2.806306e+03	1.671962e+03	0	3.406464e-04
7.800000e+08	4.939434e+11	0.000000e+00	3.828571e-01	2.230723e+13	2.254666e+14	1.446637e+14	5.764943e+03	2.803533e+03	1.670310e+03	0	3.390639e-04
7.900000e+08	4.871338e+11	0.000000e+00	3.828571e-01	2.207305e+13	2.235294e+14	1.439834e+14	5.756651e+03	2.800809e+03	1.668687e+03	0	3.374986e-04
8.000000e+08	4.804586e+11	0.000000e+00	3.828571e-01	2.184340e+13	2.216341e+14	1.433079e+14	5.748445e+03	2.798132e+03	1.667092e+03	0	3.359499e-04
8.100000e+08	4.739139e+11	0.000000e+00	3.828571e-01	2.161817e+13	2.197793e+14	1.426370e+14	5.740325e+03	2.795501e+03	1.665525e+03	0	3.344175e-04
8.200000e+08	4.674959e+11	0.000000e+00	3.828571e-01	2.139723e+13	2.179635e+14	1.419708e+14	5.732287e+03	2.792914e+03	1.663984e+03	0	3.329011e-04
8.300000e+08	4.612011e+11	0.000000e+00	3.828571e-01	2.118044e+13	2.161853e+14	1.413092e+14	5.724332e+03	2.790371e+03	1.662468e+03	0	3.314001e-04
8.400000e+08	4.550259e+11	0.000000e+00	3.828571e-01	2.096771e+13	2.144434e+14	1.406521e+14	5.716457e+03	2.787868e+03	1.660977e+03	0	3.299144e-04
8.500000e+08	4.489670e+11	0.000000e+00	3.828571e-01	2.075891e+13	2.127366e+14	1.399996e+14	5.708661e+03	2.785407e+03	1.659511e+03	0	3.284435e-04
8.600000e+08	4.430211e+11	0.000000e+00	3.828571e-01	2.055393e+13	2.110636e+14	1.393516e+14	5.700942e+03	2.782984e+03	1.658067e+03	0	3.269872e-04
8.700000e+08	4.371852e+11	0.000000e+00	3.828571e-01	2.035268e+13	2.094234e+14	1.387080e+14	5.693299e+03	2.780599e+03	1.656646e+03	0	3.255450e-04
8.800000e+08	4.314563e+11	0.000000e+00	3.828571e-01	2.015505e+13	2.078149e+14	1.380689e+14	5.685731e+03	2.778251e+03	1.655247e+03	0	3.241168e-04
8.900000e+08	4.258315e+11	0.000000e+00	3.828571e-01	1.996095e+13	2.062369e+14	1.374342e+14	5.678236e+03	2.775939e+03	1.653870e+03	0	3.227021e-04
9.000000e+08	4.203081e+11	0.000000e+00	3.828571e-01	1.977027e+13	2.046886e+14	1.368038e+14	5.670813e+03	2.773661e+03	1.652513e+03	0	3.213008e-04
9.100000e+08	4.148832e+11	0.000000e+00	3.828571e-01	1.958294e+13	2.031689e+14	1.361777e+14	5.663461e+03	2.771418e+03	1.651176e+03	0	3.199125e-04
9.200000e+08	4.095544e+11	0.000000e+00	3.828571e-01	1.939886e+13	2.016771e+14	1.355560e+14	5.656178e+03	2.769206e+03	1.649859e+03	0	3.185369e-04
9.300000e+08	4.043192e+11	0.000000e+00	3.828571e-01	1.921796e+13	2.002121e+14	1.349385e+14	5.648963e+03	2.767027e+03	1.648560e+03	0	3.171738e-04
9.400000e+08	3.991751e+11	0.000000e+00	3.828571e-01	1.904014e+13	1.987731e+14	1.343252e+14	5.641816e+03	2.764879e+03	1.647280e+03	0	3.158230e-04
9.500000e+08	3.941198e+11	0.000000e+00	3.828571e-01	1.886533e+13	1.973594e+14	1.337161e+14	5.634734e+03	2.762760e+03	1.646018e+03	0	3.144841e-04
9.600000e+08	3.891511e+11	0.000000e+00	3.828571e-01	1.869346e+13	1.959702e+14	1.331111e+14	5.627717e+03	2.760671e+03	1.644773e+03	0	3.131569e-04
9.700000e+08	3.842668e+11	0.000000e+00	3.828571e-01	1.852445e+13	1.946048e+14	1.325103e+14	5.620764e+03	2.758610e+03	1.643545e+03	0	3.118412e-04
9.800000e+08	3.794647e+11	0.000000e+00	3.828571e-01	1.835823e+13	1.932624e+14	1.319135e+14	5.613874e+03	2.756576e+03	1.642334e+03	0	3.105368e-04
9.900000e+08	3.747430e+11	0.000000e+00	3.828571e-01	1.819473e+13	1.919424e+14	1.313208e+14	5.607045e+03	2.754570e+03	1.641138e+03	0	3.092434e-04
1.000000e+09	3.700995e+11	0.000000e+00	3.828571e-01	1.803389e+13	1.906441e+14	1.307322e+14	5.600277e+03	2.752589e+03	1.639958e+03	0	3.079608e-04
1.010000e+09	3.655324e+11	0.000000e+00	3.828571e-01	1.787565e+13	1.893669e+14	1.301475e+14	5.593568e+03	2.750634e+03	1.638794e+03	0	3.066888e-04
1.020000e+09	3.610399e+11	0.000000e+00	3.828571e-01	1.771993e+13	1.881102e+14	1.295668e+14	5.586918e+03	2.748704e+03	1.637644e+03	0	3.054271e-04
1.030000e+09	3.566202e+11	0.000000e+00	3.828571e-01	1.756669e+13	1.868735e+14	1.289900e+14	5.580326e+03	2.746798e+03	1.636508e+03	0	3.041757e-04
1.040000e+09	3.522715e+11	0.000000e+00	3.828571e-01	1.741586e+13	1.856561e+14	1.284171e+14	5.573791e+03	2.744915e+03	1.635386e+03	0	3.029343e-04
1.050000e+09	3.479922e+11	0.000000e+00	3.828571e-01	1.726738e+13	1.844575e+14	1.278481e+14	5.567312e+03	2.743056e+03	1.634278e+03	0	3.017026e-04
1.060000e+09	3.437806e+11	0.000000e+00	3.828571e-01	1.712121e+13	1.832773e+14	1.272829e+14	5.560887e+03	2.741218e+03	1.633184e+03	0	3.004805e-04
1.070000e+09	3.396353e+11	0.000000e+00	3.828571e-01	1.697729e+13	1.821149e+14	1.267215e+14	5.554517e+03	2.739403e+03	1.632102e+03	0	2.992679e-04
1.080000e+09	3.355547e+11	0.000000e+00	3.828571e-01	1.683556e+13	1.809699e+14	1.261639e+14	5.548201e+03	2.737608e+03	1.631033e+03	0	2.980645e-04
1.090000e+09	3.315372e+11	0.000000e+00	3.828571e-01	1.669599e+13	1.798418e+14	1.256101e+14	5.541937e+03	2.735834e+03	1.629976e+03	0	2.968702e-04
1.100000e+09	3.275815e+11	0.000000e+00	3.828571e-01	1.655851e+13	1.787302e+14	1.250599e+14	5.535724e+03	2.734081e+03	1.628931e+03	0	2.956848e-04
1.110000e+09	3.236862e+11	0.000000e+00	3.828571e-01	1.642309e+13	1.776345e+14	1.245135e+14	5.529563e+03	2.732347e+03	1.627898e+03	0	2.945081e-04
1.120000e+09	3.198500e+11	0.000000e+00	3.828571e-01	1.628968e+13	1.765545e+14	1.239707e+14	5.523452e+03	2.730632e+03	1.626877e+03	0	2.933400e-04
1.130000e+09	3.160715e+11	0.000000e+00	3.828571e-01	1.615823e+13	1.754898e+14	1.234316e+14	5.517391e+03	2.728936e+03	1.625866e+03	0	2.921803e-04
1.140000e+09	3.123495e+11	0.000000e+00	3.828571e-01	1.602870e+13	1.744399e+14	1.228960e+14	5.511378e+03	2.727259e+03	1.624867e+03	0	2.910289e-04
1.150000e+09	3.086827e+11	0.000000e+00	3.828571e-01	1.590105e+13	1.734044e+14	1.223641e+14	5.505413e+03	2.725599e+03	1.623878e+03	0	2.898856e-04
1.160000e+09	3.050700e+11	0.000000e+00	3.828571e-01	1.577524e+13	1.723831e+14	1.218356e+14	5.499496e+03	2.723956e+03	1.622899e+03	0	2.887503e-04
1.170000e+09	3.015102e+11	0.000000e+00	3.828571e-01	1.565124e+13	1.713756e+14	1.213107e+14	5.493625e+03	2.722331e+03	1.621931e+03	0	2.876227e-04
1.180000e+09	2.980021e+11	0.000000e+00	3.828571e-01	1.552899e+13	1.703816e+14	1.207893e+14	5.487801e+03	2.720722e+03	1.620972e+03	0	2.865029e-04
1.190000e+09	2.945447e+11	0.000000e+00	3.828571e-01	1.540848e+13	1.694007e+14	1.202714e+14	5.482022e+03	2.719130e+03	1.620024e+03	0	2.853906e-04
1.200000e+09	2.911370e+11	0.000000e+00	3.828571e-01	1.528965e+13	1.684326e+14	1.197569e+14	5.476287e+03	2.717553e+03	1.619084e+03	0	2.842857e-04
1.210000e+09	2.877778e+11	0.000000e+00	3.828571e-01	1.517247e+13	1.674770e+14	1.192458e+14	5.470597e+03	2.715992e+03	1.618154e+03	0	2.831881e-04
1.220000e+09	2.844661e+11	0.000000e+00	3.828571e-01	1.505692e+13	1.665337e+14	1.187381e+14	5.464950e+03	2.714447e+03	1.617233e+03	0	2.820976e-04
1.230000e+09	2.812011e+11	0.000000e+00	3.828571e-01	1.494296e+13	1.656023e+14	1.182338e+14	5.459346e+03	2.712916e+03	1.616321e+03	0	2.810142e-04
1.240000e+09	2.779817e+11	0.000000e+00	3.828571e-01	1.483055e+13	1.646826e+14	1.177328e+14	5.453784e+03	2.711399e+03	1.615418e+03	0	2.799376e-04
1.250000e+09	2.748070e+11	0.000000e+00	3.828571e-01	1.471967e+13	1.637744e+14	1.172351e+14	5.448264e+03	2.709897e+03	1.614523e+03	0	2.788679e-04
1.260000e+09	2.716761e+11	0.000000e+00	3.828571e-01	1.461028e+13	1.628773e+14	1.167406e+14	5.442785e+03	2.708409e+03	1.613636e+03	0	2.778048e-04
1.270000e+09	2.685882e+11	0.000000e+00	3.828571e-01	1.450235e+13	1.619911e+14	1.162495e+14	5.437347e+03	2.706934e+03	1.612758e+03	0	2.767482e-04
1.280000e+09	2.655423e+11	0.000000e+00	3.828571e-01	1.439586e+13	1.611157e+14	1.157615e+14	5.431949e+03	2.705473e+03	1.611887e+03	0	2.756981e-04
1.290000e+09	2.625377e+11	0.000000e+00	3.828571e-01	1.429078e+13	1.602507e+14	1.152768e+14	5.426591e+03	2.704025e+03	1.611024e+03	0	2.746543e-04
1.300000e+09	2.595735e+11	0.000000e+00	3.828571e-01	1.418708e+13	1.593959e+14	1.147953e+14	5.421271e+03	2.702590e+03	1.610169e+03	0	2.736168e-04
1.310000e+09	2.566490e+11	0.000000e+00	3.828571e-01	1.408473e+13	1.585512e+14	1.143169e+14	5.415990e+03	2.701167e+03	1.609322e+03	0	2.725853e-04
1.320000e+09	2.537634e+11	0.000000e+00	3.828571e-01	1.398371e+13	1.577163e+14	1.138416e+14	5.410747e+03	2.699756e+03	1.608481e+03	0	2.715598e-04
1.330000e+09	2.509159e+11	0.000000e+00	3.828571e-01	1.388399e+13	1.568910e+14	1.133695e+14	5.405541e+03	2.698358e+03	1.607648e+03	0	2.705403e-04
1.340000e+09	2.481059e+11	0.000000e+00	3.828571e-01	1.378556e+13	1.560751e+14	1.129004e+14	5.400373e+03	2.696971e+03	1.606822e+03	0	2.695266e-04
1.350000e+09	2.453325e+11	0.000000e+00	3.828571e-01	1.368837e+13	1.552684e+14	1.124344e+14	5.395241e+03	2.695596e+03	1.606002e+03	0	2.685185e-04
1.360000e+09	2.425951e+11	0.000000e+00	3.828571e-01	1.359241e+13	1.544708e+14	1.119714e+14	5.390145e+03	2.694232e+03	1.605190e+03	0	2.675161e-04
