#t		Qconv[W]	Ri[Rp]		R*[Rp]		Qc[W]		Qm[W]		Qr[W]		Tcmb[K]		Tl[K]		Tup[K]		RiFlag		Bs[T]
0.000000e+00	7.645672e+12	0.000000e+00	3.828570e-01	2.376151e+14	2.485605e+15	2.479794e+14	8.279591e+03	4.276181e+03	2.340079e+03	0	8.335700e-04
1.000000e+07	7.195339e+12	0.000000e+00	3.828570e-01	2.241717e+14	2.226469e+15	2.466054e+14	8.204917e+03	4.196722e+03	2.296597e+03	0	8.168719e-04
2.000000e+07	6.787887e+12	0.000000e+00	3.828570e-01	2.120044e+14	2.013322e+15	2.452417e+14	8.134393e+03	4.126659e+03	2.258256e+03	0	8.011523e-04
3.000000e+07	6.418120e+12	0.000000e+00	3.828570e-01	2.009588e+14	1.835479e+15	2.438882e+14	8.067633e+03	4.064325e+03	2.224144e+03	0	7.863324e-04
4.000000e+07	6.081481e+12	0.000000e+00	3.828570e-01	1.908994e+14	1.685233e+15	2.425448e+14	8.004296e+03	4.008432e+03	2.193558e+03	0	7.723367e-04
5.000000e+07	5.774021e+12	0.000000e+00	3.828570e-01	1.817087e+14	1.556903e+15	2.412114e+14	7.944080e+03	3.957973e+03	2.165945e+03	0	7.590954e-04
6.000000e+07	5.492335e+12	0.000000e+00	3.828570e-01	1.732855e+14	1.446225e+15	2.398879e+14	7.886720e+03	3.912145e+03	2.140866e+03	0	7.465448e-04
7.000000e+07	5.233484e+12	0.000000e+00	3.828570e-01	1.655425e+14	1.349944e+15	2.385743e+14	7.831981e+03	3.870300e+03	2.117967e+03	0	7.346275e-04
8.000000e+07	4.994933e+12	0.000000e+00	3.828570e-01	1.584042e+14	1.265537e+15	2.372705e+14	7.779655e+03	3.831909e+03	2.096958e+03	0	7.232916e-04
9.000000e+07	4.774492e+12	0.000000e+00	3.828570e-01	1.518054e+14	1.191022e+15	2.359764e+14	7.729554e+03	3.796537e+03	2.077601e+03	0	7.124908e-04
1.000000e+08	4.570260e+12	0.000000e+00	3.828570e-01	1.456897e+14	1.124825e+15	2.346918e+14	7.681515e+03	3.763818e+03	2.059696e+03	0	7.021834e-04
1.100000e+08	4.380584e+12	0.000000e+00	3.828570e-01	1.400078e+14	1.065679e+15	2.334168e+14	7.635386e+03	3.733448e+03	2.043076e+03	0	6.923317e-04
1.200000e+08	4.204020e+12	0.000000e+00	3.828570e-01	1.347169e+14	1.012555e+15	2.321513e+14	7.591035e+03	3.705168e+03	2.027600e+03	0	6.829021e-04
1.300000e+08	4.039303e+12	0.000000e+00	3.828570e-01	1.297792e+14	9.646127e+14	2.308951e+14	7.548340e+03	3.678756e+03	2.013147e+03	0	6.738642e-04
1.400000e+08	3.885324e+12	0.000000e+00	3.828570e-01	1.251617e+14	9.211542e+14	2.296482e+14	7.507192e+03	3.654022e+03	1.999612e+03	0	6.651904e-04
1.500000e+08	3.741102e+12	0.000000e+00	3.828570e-01	1.208352e+14	8.816001e+14	2.284106e+14	7.467492e+03	3.630803e+03	1.986905e+03	0	6.568558e-04
1.600000e+08	3.605770e+12	0.000000e+00	3.828570e-01	1.167740e+14	8.454641e+14	2.271821e+14	7.429149e+03	3.608955e+03	1.974949e+03	0	6.488379e-04
1.700000e+08	3.478559e+12	0.000000e+00	3.828570e-01	1.129551e+14	8.123353e+14	2.259626e+14	7.392082e+03	3.588354e+03	1.963676e+03	0	6.411161e-04
1.800000e+08	3.358784e+12	0.000000e+00	3.828570e-01	1.093582e+14	7.818647e+14	2.247522e+14	7.356214e+03	3.568889e+03	1.953024e+03	0	6.336716e-04
1.900000e+08	3.245832e+12	0.000000e+00	3.828570e-01	1.059650e+14	7.537541e+14	2.235506e+14	7.321477e+03	3.550465e+03	1.942941e+03	0	6.264873e-04
2.000000e+08	3.139158e+12	0.000000e+00	3.828570e-01	1.027591e+14	7.277471e+14	2.223579e+14	7.287807e+03	3.532994e+03	1.933381e+03	0	6.195475e-04
2.100000e+08	3.038267e+12	0.000000e+00	3.828570e-01	9.972603e+13	7.036225e+14	2.211740e+14	7.255146e+03	3.516401e+03	1.924301e+03	0	6.128378e-04
2.200000e+08	2.942719e+12	0.000000e+00	3.828570e-01	9.685251e+13	6.811882e+14	2.199987e+14	7.223440e+03	3.500618e+03	1.915663e+03	0	6.063450e-04
2.300000e+08	2.852114e+12	0.000000e+00	3.828570e-01	9.412666e+13	6.602768e+14	2.188321e+14	7.192639e+03	3.485583e+03	1.907436e+03	0	6.000570e-04
2.400000e+08	2.766090e+12	0.000000e+00	3.828570e-01	9.153770e+13	6.407418e+14	2.176740e+14	7.162698e+03	3.471242e+03	1.899588e+03	0	5.939625e-04
2.500000e+08	2.684320e+12	0.000000e+00	3.828570e-01	8.907588e+13	6.224547e+14	2.165245e+14	7.133572e+03	3.457544e+03	1.892092e+03	0	5.880510e-04
2.600000e+08	2.606507e+12	0.000000e+00	3.828570e-01	8.673232e+13	6.053018e+14	2.153833e+14	7.105224e+03	3.444446e+03	1.884924e+03	0	5.823130e-04
2.700000e+08	2.532378e+12	0.000000e+00	3.828570e-01	8.449895e+13	5.891829e+14	2.142505e+14	7.077614e+03	3.431906e+03	1.878062e+03	0	5.767396e-04
2.800000e+08	2.461688e+12	0.000000e+00	3.828570e-01	8.236840e+13	5.740087e+14	2.131259e+14	7.050710e+03	3.419888e+03	1.871485e+03	0	5.713224e-04
2.900000e+08	2.394210e+12	0.000000e+00	3.828570e-01	8.033392e+13	5.596998e+14	2.120096e+14	7.024479e+03	3.408357e+03	1.865175e+03	0	5.660537e-04
3.000000e+08	2.329737e+12	0.000000e+00	3.828570e-01	7.838935e+13	5.461853e+14	2.109014e+14	6.998890e+03	3.397283e+03	1.859115e+03	0	5.609264e-04
3.100000e+08	2.268080e+12	0.000000e+00	3.828570e-01	7.652902e+13	5.334017e+14	2.098012e+14	6.973916e+03	3.386638e+03	1.853289e+03	0	5.559337e-04
3.200000e+08	2.209063e+12	0.000000e+00	3.828570e-01	7.474773e+13	5.212917e+14	2.087091e+14	6.949530e+03	3.376395e+03	1.847684e+03	0	5.510694e-04
3.300000e+08	2.152527e+12	0.000000e+00	3.828570e-01	7.304069e+13	5.098040e+14	2.076249e+14	6.925707e+03	3.366532e+03	1.842287e+03	0	5.463275e-04
3.400000e+08	2.098323e+12	0.000000e+00	3.828570e-01	7.140349e+13	4.988922e+14	2.065486e+14	6.902425e+03	3.357025e+03	1.837084e+03	0	5.417027e-04
3.500000e+08	2.046315e+12	0.000000e+00	3.828570e-01	6.983203e+13	4.885143e+14	2.054801e+14	6.879660e+03	3.347855e+03	1.832066e+03	0	5.371898e-04
3.600000e+08	1.996377e+12	0.000000e+00	3.828570e-01	6.832255e+13	4.786321e+14	2.044194e+14	6.857393e+03	3.339003e+03	1.827222e+03	0	5.327838e-04
3.700000e+08	1.948390e+12	0.000000e+00	3.828570e-01	6.687155e+13	4.692110e+14	2.033663e+14	6.835604e+03	3.330452e+03	1.822542e+03	0	5.284804e-04
3.800000e+08	1.902247e+12	0.000000e+00	3.828570e-01	6.547580e+13	4.602195e+14	2.023208e+14	6.814274e+03	3.322185e+03	1.818019e+03	0	5.242751e-04
3.900000e+08	1.857847e+12	0.000000e+00	3.828570e-01	6.413229e+13	4.516287e+14	2.012829e+14	6.793387e+03	3.314188e+03	1.813642e+03	0	5.201639e-04
4.000000e+08	1.815097e+12	0.000000e+00	3.828570e-01	6.283821e+13	4.434124e+14	2.002525e+14	6.772925e+03	3.306446e+03	1.809406e+03	0	5.161431e-04
4.100000e+08	1.773908e+12	0.000000e+00	3.828570e-01	6.159097e+13	4.355464e+14	1.992296e+14	6.752873e+03	3.298947e+03	1.805302e+03	0	5.122091e-04
4.200000e+08	1.734201e+12	0.000000e+00	3.828570e-01	6.038813e+13	4.280086e+14	1.982140e+14	6.733217e+03	3.291679e+03	1.801324e+03	0	5.083584e-04
4.300000e+08	1.695898e+12	0.000000e+00	3.828570e-01	5.922744e+13	4.207786e+14	1.972057e+14	6.713942e+03	3.284629e+03	1.797467e+03	0	5.045879e-04
4.400000e+08	1.658930e+12	0.000000e+00	3.828570e-01	5.810677e+13	4.138378e+14	1.962046e+14	6.695035e+03	3.277789e+03	1.793724e+03	0	5.008944e-04
4.500000e+08	1.623229e+12	0.000000e+00	3.828570e-01	5.702414e+13	4.071689e+14	1.952108e+14	6.676483e+03	3.271147e+03	1.790089e+03	0	4.972752e-04
4.600000e+08	1.588735e+12	0.000000e+00	3.828570e-01	5.597771e+13	4.007559e+14	1.942241e+14	6.658276e+03	3.264695e+03	1.786558e+03	0	4.937275e-04
4.700000e+08	1.555388e+12	0.000000e+00	3.828570e-01	5.496574e+13	3.945842e+14	1.932445e+14	6.640400e+03	3.258424e+03	1.783126e+03	0	4.902487e-04
4.800000e+08	1.523135e+12	0.000000e+00	3.828570e-01	5.398659e+13	3.886399e+14	1.922719e+14	6.622845e+03	3.252325e+03	1.779789e+03	0	4.868364e-04
4.900000e+08	1.491924e+12	0.000000e+00	3.828570e-01	5.303875e+13	3.829106e+14	1.913062e+14	6.605602e+03	3.246392e+03	1.776542e+03	0	4.834881e-04
5.000000e+08	1.461708e+12	0.000000e+00	3.828570e-01	5.212077e+13	3.773845e+14	1.903475e+14	6.588659e+03	3.240615e+03	1.773381e+03	0	4.802017e-04
5.100000e+08	1.432440e+12	0.000000e+00	3.828570e-01	5.123130e+13	3.720505e+14	1.893956e+14	6.572008e+03	3.234990e+03	1.770302e+03	0	4.769751e-04
5.200000e+08	1.404079e+12	0.000000e+00	3.828570e-01	5.036907e+13	3.668986e+14	1.884505e+14	6.555639e+03	3.229509e+03	1.767303e+03	0	4.738062e-04
5.300000e+08	1.376585e+12	0.000000e+00	3.828570e-01	4.953288e+13	3.619193e+14	1.875122e+14	6.539544e+03	3.224167e+03	1.764380e+03	0	4.706932e-04
5.400000e+08	1.349919e+12	0.000000e+00	3.828570e-01	4.872160e+13	3.571037e+14	1.865805e+14	6.523716e+03	3.218957e+03	1.761528e+03	0	4.676341e-04
5.500000e+08	1.324047e+12	0.000000e+00	3.828570e-01	4.793416e+13	3.524437e+14	1.856554e+14	6.508144e+03	3.213874e+03	1.758747e+03	0	4.646272e-04
5.600000e+08	1.298934e+12	0.000000e+00	3.828570e-01	4.716956e+13	3.479314e+14	1.847370e+14	6.492824e+03	3.208913e+03	1.756032e+03	0	4.616709e-04
5.700000e+08	1.274548e+12	0.000000e+00	3.828570e-01	4.642684e+13	3.435596e+14	1.838250e+14	6.477746e+03	3.204070e+03	1.753382e+03	0	4.587636e-04
5.800000e+08	1.250860e+12	0.000000e+00	3.828570e-01	4.570511e+13	3.393217e+14	1.829196e+14	6.462904e+03	3.199338e+03	1.750793e+03	0	4.559037e-04
5.900000e+08	1.227840e+12	0.000000e+00	3.828570e-01	4.500350e+13	3.352112e+14	1.820205e+14	6.448292e+03	3.194715e+03	1.748263e+03	0	4.530897e-04
6.000000e+08	1.205463e+12	0.000000e+00	3.828570e-01	4.432121e+13	3.312222e+14	1.811278e+14	6.433903e+03	3.190196e+03	1.745790e+03	0	4.503203e-04
6.100000e+08	1.183702e+12	0.000000e+00	3.828570e-01	4.365747e+13	3.273491e+14	1.802414e+14	6.419731e+03	3.185777e+03	1.743371e+03	0	4.475941e-04
6.200000e+08	1.162533e+12	0.000000e+00	3.828570e-01	4.301157e+13	3.235866e+14	1.793613e+14	6.405770e+03	3.181455e+03	1.741006e+03	0	4.449099e-04
6.300000e+08	1.141934e+12	0.000000e+00	3.828570e-01	4.238280e+13	3.199298e+14	1.784874e+14	6.392015e+03	3.177225e+03	1.738691e+03	0	4.422663e-04
6.400000e+08	1.121881e+12	0.000000e+00	3.828570e-01	4.177051e+13	3.163741e+14	1.776197e+14	6.378460e+03	3.173084e+03	1.736425e+03	0	4.396622e-04
6.500000e+08	1.102355e+12	0.000000e+00	3.828570e-01	4.117408e+13	3.129150e+14	1.767581e+14	6.365099e+03	3.169029e+03	1.734206e+03	0	4.370966e-04
6.600000e+08	1.083336e+12	0.000000e+00	3.828570e-01	4.059292e+13	3.095484e+14	1.759025e+14	6.351929e+03	3.165058e+03	1.732033e+03	0	4.345682e-04
6.700000e+08	1.064805e+12	0.000000e+00	3.828570e-01	4.002647e+13	3.062703e+14	1.750530e+14	6.338944e+03	3.161166e+03	1.729903e+03	0	4.320760e-04
6.800000e+08	1.046743e+12	0.000000e+00	3.828570e-01	3.947418e+13	3.030772e+14	1.742094e+14	6.326138e+03	3.157352e+03	1.727816e+03	0	4.296191e-04
6.900000e+08	1.029135e+12	0.000000e+00	3.828570e-01	3.893555e+13	2.999654e+14	1.733717e+14	6.313509e+03	3.153613e+03	1.725770e+03	0	4.271965e-04
7.000000e+08	1.011963e+12	0.000000e+00	3.828570e-01	3.841009e+13	2.969318e+14	1.725399e+14	6.301051e+03	3.149945e+03	1.723763e+03	0	4.248071e-04
7.100000e+08	9.952128e+11	0.000000e+00	3.828570e-01	3.789734e+13	2.939730e+14	1.717140e+14	6.288761e+03	3.146347e+03	1.721794e+03	0	4.224502e-04
7.200000e+08	9.788689e+11	0.000000e+00	3.828570e-01	3.739684e+13	2.910863e+14	1.708938e+14	6.276634e+03	3.142816e+03	1.719862e+03	0	4.201249e-04
7.300000e+08	9.629173e+11	0.000000e+00	3.828570e-01	3.690819e+13	2.882687e+14	1.700793e+14	6.264666e+03	3.139351e+03	1.717965e+03	0	4.178302e-04
7.400000e+08	9.473447e+11	0.000000e+00	3.828570e-01	3.643097e+13	2.855176e+14	1.692705e+14	6.252854e+03	3.135948e+03	1.716103e+03	0	4.155656e-04
7.500000e+08	9.321381e+11	0.000000e+00	3.828570e-01	3.596481e+13	2.828305e+14	1.684674e+14	6.241194e+03	3.132606e+03	1.714274e+03	0	4.133300e-04
7.600000e+08	9.172852e+11	0.000000e+00	3.828570e-01	3.550932e+13	2.802049e+14	1.676699e+14	6.229683e+03	3.129323e+03	1.712478e+03	0	4.111229e-04
7.700000e+08	9.027743e+11	0.000000e+00	3.828570e-01	3.506415e+13	2.776386e+14	1.668779e+14	6.218317e+03	3.126097e+03	1.710712e+03	0	4.089435e-04
7.800000e+08	8.885940e+11	0.000000e+00	3.828570e-01	3.462898e+13	2.751294e+14	1.660914e+14	6.207093e+03	3.122927e+03	1.708977e+03	0	4.067910e-04
7.900000e+08	8.747338e+11	0.000000e+00	3.828570e-01	3.420347e+13	2.726753e+14	1.653104e+14	6.196007e+03	3.119810e+03	1.707271e+03	0	4.046649e-04
8.000000e+08	8.611831e+11	0.000000e+00	3.828570e-01	3.378732e+13	2.702742e+14	1.645348e+14	6.185057e+03	3.116744e+03	1.705594e+03	0	4.025644e-04
8.100000e+08	8.479321e+11	0.000000e+00	3.828570e-01	3.338022e+13	2.679242e+14	1.637645e+14	6.174240e+03	3.113729e+03	1.703944e+03	0	4.004890e-04
8.200000e+08	8.349714e+11	0.000000e+00	3.828570e-01	3.298190e+13	2.656237e+14	1.629996e+14	6.163552e+03	3.110763e+03	1.702321e+03	0	3.984380e-04
8.300000e+08	8.222919e+11	0.000000e+00	3.828570e-01	3.259208e+13	2.633708e+14	1.622400e+14	6.152992e+03	3.107844e+03	1.700724e+03	0	3.964109e-04
8.400000e+08	8.098847e+11	0.000000e+00	3.828570e-01	3.221050e+13	2.611640e+14	1.614856e+14	6.142556e+03	3.104972e+03	1.699152e+03	0	3.944070e-04
8.500000e+08	7.977417e+11	0.000000e+00	3.828570e-01	3.183690e+13	2.590017e+14	1.607365e+14	6.132241e+03	3.102143e+03	1.697604e+03	0	3.924259e-04
8.600000e+08	7.858546e+11	0.000000e+00	3.828570e-01	3.147105e+13	2.568824e+14	1.599925e+14	6.122046e+03	3.099358e+03	1.696080e+03	0	3.904670e-04
8.700000e+08	7.742159e+11	0.000000e+00	3.828570e-01	3.111272e+13	2.548047e+14	1.592536e+14	6.111967e+03	3.096615e+03	1.694579e+03	0	3.885297e-04
8.800000e+08	7.628181e+11	0.000000e+00	3.828570e-01	3.076167e+13	2.527672e+14	1.585198e+14	6.102003e+03	3.093913e+03	1.693100e+03	0	3.866137e-04
8.900000e+08	7.516540e+11	0.000000e+00	3.828570e-01	3.041770e+13	2.507687e+14	1.577911e+14	6.092150e+03	3.091250e+03	1.691643e+03	0	3.847183e-04
9.000000e+08	7.407168e+11	0.000000e+00	3.828570e-01	3.008060e+13	2.488079e+14	1.570673e+14	6.082408e+03	3.088626e+03	1.690207e+03	0	3.828432e-04
9.100000e+08	7.300000e+11	0.000000e+00	3.828570e-01	2.975018e+13	2.468835e+14	1.563485e+14	6.072773e+03	3.086040e+03	1.688791e+03	0	3.809879e-04
9.200000e+08	7.194972e+11	0.000000e+00	3.828570e-01	2.942623e+13	2.449946e+14	1.556346e+14	6.063243e+03	3.083489e+03	1.687396e+03	0	3.791519e-04
9.300000e+08	7.092022e+11	0.000000e+00	3.828570e-01	2.910858e+13	2.431400e+14	1.549257e+14	6.053817e+03	3.080975e+03	1.686020e+03	0	3.773348e-04
9.400000e+08	6.991092e+11	0.000000e+00	3.828570e-01	2.879705e+13	2.413185e+14	1.542215e+14	6.044492e+03	3.078495e+03	1.684662e+03	0	3.755363e-04
9.500000e+08	6.892125e+11	0.000000e+00	3.828570e-01	2.849148e+13	2.395294e+14	1.535222e+14	6.035267e+03	3.076048e+03	1.683324e+03	0	3.737558e-04
9.600000e+08	6.795067e+11	0.000000e+00	3.828570e-01	2.819169e+13	2.377715e+14	1.528276e+14	6.026139e+03	3.073634e+03	1.682003e+03	0	3.719930e-04
9.700000e+08	6.699866e+11	0.000000e+00	3.828570e-01	2.789752e+13	2.360439e+14	1.521378e+14	6.017106e+03	3.071252e+03	1.680699e+03	0	3.702476e-04
9.800000e+08	6.606470e+11	0.000000e+00	3.828570e-01	2.760883e+13	2.343458e+14	1.514527e+14	6.008168e+03	3.068901e+03	1.679412e+03	0	3.685191e-04
9.900000e+08	6.514830e+11	0.000000e+00	3.828570e-01	2.732547e+13	2.326764e+14	1.507722e+14	5.999322e+03	3.066580e+03	1.678142e+03	0	3.668072e-04
1.000000e+09	6.424899e+11	0.000000e+00	3.828570e-01	2.704730e+13	2.310347e+14	1.500963e+14	5.990566e+03	3.064288e+03	1.676888e+03	0	3.651116e-04
1.010000e+09	6.336633e+11	0.000000e+00	3.828570e-01	2.677417e+13	2.294201e+14	1.494250e+14	5.981899e+03	3.062026e+03	1.675650e+03	0	3.634319e-04
1.020000e+09	6.249986e+11	0.000000e+00	3.828570e-01	2.650596e+13	2.278317e+14	1.487583e+14	5.973320e+03	3.059791e+03	1.674427e+03	0	3.617678e-04
1.030000e+09	6.164917e+11	0.000000e+00	3.828570e-01	2.624254e+13	2.262688e+14	1.480961e+14	5.964826e+03	3.057583e+03	1.673219e+03	0	3.601189e-04
1.040000e+09	6.081384e+11	0.000000e+00	3.828570e-01	2.598379e+13	2.247308e+14	1.474383e+14	5.956416e+03	3.055402e+03	1.672025e+03	0	3.584850e-04
1.050000e+09	5.999348e+11	0.000000e+00	3.828570e-01	2.572957e+13	2.232169e+14	1.467850e+14	5.948089e+03	3.053247e+03	1.670846e+03	0	3.568658e-04
1.060000e+09	5.918770e+11	0.000000e+00	3.828570e-01	2.547979e+13	2.217266e+14	1.461361e+14	5.939843e+03	3.051117e+03	1.669680e+03	0	3.552609e-04
1.070000e+09	5.839614e+11	0.000000e+00	3.828570e-01	2.523433e+13	2.202591e+14	1.454916e+14	5.931676e+03	3.049012e+03	1.668528e+03	0	3.536700e-04
1.080000e+09	5.761844e+11	0.000000e+00	3.828570e-01	2.499308e+13	2.188140e+14	1.448514e+14	5.923589e+03	3.046931e+03	1.667390e+03	0	3.520930e-04
1.090000e+09	5.685425e+11	0.000000e+00	3.828570e-01	2.475594e+13	2.173905e+14	1.442155e+14	5.915578e+03	3.044873e+03	1.666264e+03	0	3.505295e-04
1.100000e+09	5.610323e+11	0.000000e+00	3.828570e-01	2.452280e+13	2.159882e+14	1.435839e+14	5.907643e+03	3.042839e+03	1.665150e+03	0	3.489792e-04
1.110000e+09	5.536506e+11	0.000000e+00	3.828570e-01	2.429357e+13	2.146064e+14	1.429565e+14	5.899782e+03	3.040827e+03	1.664049e+03	0	3.474419e-04
1.120000e+09	5.463944e+11	0.000000e+00	3.828570e-01	2.406815e+13	2.132448e+14	1.423334e+14	5.891995e+03	3.038836e+03	1.662960e+03	0	3.459173e-04
1.130000e+09	5.392605e+11	0.000000e+00	3.828570e-01	2.384645e+13	2.119028e+14	1.417144e+14	5.884280e+03	3.036868e+03	1.661883e+03	0	3.444052e-04
1.140000e+09	5.322460e+11	0.000000e+00	3.828570e-01	2.362839e+13	2.105799e+14	1.410995e+14	5.876635e+03	3.034920e+03	1.660817e+03	0	3.429054e-04
1.150000e+09	5.253480e+11	0.000000e+00	3.828570e-01	2.341387e+13	2.092756e+14	1.404887e+14	5.869060e+03	3.032992e+03	1.659762e+03	0	3.414176e-04
1.160000e+09	5.185638e+11	0.000000e+00	3.828570e-01	2.320281e+13	2.079894e+14	1.398820e+14	5.861554e+03	3.031085e+03	1.658718e+03	0	3.399416e-04
1.170000e+09	5.118908e+11	0.000000e+00	3.828570e-01	2.299514e+13	2.067211e+14	1.392794e+14	5.854115e+03	3.029197e+03	1.657685e+03	0	3.384771e-04
1.180000e+09	5.053263e+11	0.000000e+00	3.828570e-01	2.279078e+13	2.054700e+14	1.386808e+14	5.846743e+03	3.027328e+03	1.656662e+03	0	3.370240e-04
1.190000e+09	4.988678e+11	0.000000e+00	3.828570e-01	2.258964e+13	2.042359e+14	1.380861e+14	5.839436e+03	3.025478e+03	1.655650e+03	0	3.355820e-04
1.200000e+09	4.925129e+11	0.000000e+00	3.828570e-01	2.239165e+13	2.030183e+14	1.374954e+14	5.832193e+03	3.023647e+03	1.654648e+03	0	3.341510e-04
1.210000e+09	4.862591e+11	0.000000e+00	3.828570e-01	2.219675e+13	2.018168e+14	1.369086e+14	5.825014e+03	3.021833e+03	1.653655e+03	0	3.327306e-04
1.220000e+09	4.801043e+11	0.000000e+00	3.828570e-01	2.200487e+13	2.006311e+14	1.363257e+14	5.817897e+03	3.020037e+03	1.652672e+03	0	3.313208e-04
1.230000e+09	4.740462e+11	0.000000e+00	3.828570e-01	2.181593e+13	1.994609e+14	1.357467e+14	5.810841e+03	3.018258e+03	1.651699e+03	0	3.299214e-04
1.240000e+09	4.680826e+11	0.000000e+00	3.828570e-01	2.162987e+13	1.983056e+14	1.351714e+14	5.803845e+03	3.016495e+03	1.650734e+03	0	3.285320e-04
1.250000e+09	4.622114e+11	0.000000e+00	3.828570e-01	2.144663e+13	1.971652e+14	1.346000e+14	5.796909e+03	3.014750e+03	1.649779e+03	0	3.271526e-04
1.260000e+09	4.564306e+11	0.000000e+00	3.828570e-01	2.126615e+13	1.960391e+14	1.340324e+14	5.790032e+03	3.013020e+03	1.648832e+03	0	3.257830e-04
1.270000e+09	4.507382e+11	0.000000e+00	3.828570e-01	2.108836e+13	1.949271e+14	1.334684e+14	5.783212e+03	3.011306e+03	1.647895e+03	0	3.244230e-04
1.280000e+09	4.451322e+11	0.000000e+00	3.828570e-01	2.091321e+13	1.938289e+14	1.329082e+14	5.776449e+03	3.009608e+03	1.646965e+03	0	3.230724e-04
1.290000e+09	4.396109e+11	0.000000e+00	3.828570e-01	2.074064e+13	1.927442e+14	1.323517e+14	5.769743e+03	3.007925e+03	1.646044e+03	0	3.217311e-04
1.300000e+09	4.341724e+11	0.000000e+00	3.828570e-01	2.057060e+13	1.916728e+14	1.317988e+14	5.763091e+03	3.006256e+03	1.645131e+03	0	3.203988e-04
1.310000e+09	4.288149e+11	0.000000e+00	3.828570e-01	2.040304e+13	1.906142e+14	1.312496e+14	5.756494e+03	3.004602e+03	1.644226e+03	0	3.190755e-04
1.320000e+09	4.235367e+11	0.000000e+00	3.828570e-01	2.023789e+13	1.895683e+14	1.307039e+14	5.749950e+03	3.002963e+03	1.643329e+03	0	3.177610e-04
1.330000e+09	4.183361e+11	0.000000e+00	3.828570e-01	2.007512e+13	1.885348e+14	1.301619e+14	5.743459e+03	3.001338e+03	1.642439e+03	0	3.164550e-04
1.340000e+09	4.132116e+11	0.000000e+00	3.828570e-01	1.991467e+13	1.875135e+14	1.296233e+14	5.737020e+03	2.999726e+03	1.641557e+03	0	3.151576e-04
1.350000e+09	4.081615e+11	0.000000e+00	3.828570e-01	1.975649e+13	1.865041e+14	1.290883e+14	5.730633e+03	2.998128e+03	1.640683e+03	0	3.138684e-04
1.360000e+09	4.031843e+11	0.000000e+00	3.828570e-01	1.960054e+13	1.855063e+14	1.285567e+14	5.724296e+03	2.996543e+03	1.639815e+03	0	3.125874e-04
