#t		Qconv[W]	Ri[Rp]		R*[Rp]		Qc[W]		Qm[W]		Qr[W]		Tcmb[K]		Tl[K]		Tup[K]		RiFlag		Bs[T]
0.000000e+00	1.118194e+13	0.000000e+00	3.828570e-01	3.117328e+14	2.754826e+15	2.913246e+14	9.160486e+03	4.585654e+03	2.399583e+03	0	9.377264e-04
1.000000e+07	1.053634e+13	0.000000e+00	3.828570e-01	2.945753e+14	2.494458e+15	2.897105e+14	9.078961e+03	4.510988e+03	2.360511e+03	0	9.193208e-04
2.000000e+07	9.951385e+12	0.000000e+00	3.828570e-01	2.790232e+14	2.276741e+15	2.881084e+14	9.001847e+03	4.444457e+03	2.325697e+03	0	9.019829e-04
3.000000e+07	9.419520e+12	0.000000e+00	3.828570e-01	2.648770e+14	2.092443e+15	2.865183e+14	8.928738e+03	4.384718e+03	2.294437e+03	0	8.856186e-04
4.000000e+07	8.934279e+12	0.000000e+00	3.828570e-01	2.519657e+14	1.934746e+15	2.849400e+14	8.859278e+03	4.330715e+03	2.266178e+03	0	8.701423e-04
5.000000e+07	8.490123e+12	0.000000e+00	3.828570e-01	2.401428e+14	1.798516e+15	2.833736e+14	8.793154e+03	4.281607e+03	2.240481e+03	0	8.554772e-04
6.000000e+07	8.082302e+12	0.000000e+00	3.828570e-01	2.292827e+14	1.679828e+15	2.818188e+14	8.730088e+03	4.236713e+03	2.216989e+03	0	8.415543e-04
7.000000e+07	7.706737e+12	0.000000e+00	3.828570e-01	2.192774e+14	1.575632e+15	2.802756e+14	8.669834e+03	4.195477e+03	2.195411e+03	0	8.283120e-04
8.000000e+07	7.359910e+12	0.000000e+00	3.828570e-01	2.100340e+14	1.483528e+15	2.787439e+14	8.612174e+03	4.157442e+03	2.175508e+03	0	8.156953e-04
9.000000e+07	7.038779e+12	0.000000e+00	3.828570e-01	2.014719e+14	1.401607e+15	2.772235e+14	8.556913e+03	4.122222e+03	2.157078e+03	0	8.036549e-04
1.000000e+08	6.740704e+12	0.000000e+00	3.828570e-01	1.935212e+14	1.328329e+15	2.757145e+14	8.503876e+03	4.089497e+03	2.139954e+03	0	7.921466e-04
1.100000e+08	6.463382e+12	0.000000e+00	3.828570e-01	1.861211e+14	1.262444e+15	2.742166e+14	8.452907e+03	4.058993e+03	2.123992e+03	0	7.811307e-04
1.200000e+08	6.204799e+12	0.000000e+00	3.828570e-01	1.792181e+14	1.202924e+15	2.727298e+14	8.403864e+03	4.030477e+03	2.109069e+03	0	7.705717e-04
1.300000e+08	5.963189e+12	0.000000e+00	3.828570e-01	1.727656e+14	1.148922e+15	2.712541e+14	8.356619e+03	4.003747e+03	2.095082e+03	0	7.604371e-04
1.400000e+08	5.736994e+12	0.000000e+00	3.828570e-01	1.667222e+14	1.099728e+15	2.697893e+14	8.311055e+03	3.978630e+03	2.081939e+03	0	7.506980e-04
1.500000e+08	5.524838e+12	0.000000e+00	3.828570e-01	1.610516e+14	1.054748e+15	2.683353e+14	8.267068e+03	3.954974e+03	2.069560e+03	0	7.413278e-04
1.600000e+08	5.325500e+12	0.000000e+00	3.828570e-01	1.557213e+14	1.013478e+15	2.668920e+14	8.224561e+03	3.932648e+03	2.057877e+03	0	7.323026e-04
1.700000e+08	5.137893e+12	0.000000e+00	3.828570e-01	1.507027e+14	9.754916e+14	2.654594e+14	8.183446e+03	3.911535e+03	2.046829e+03	0	7.236004e-04
1.800000e+08	4.961048e+12	0.000000e+00	3.828570e-01	1.459700e+14	9.404221e+14	2.640374e+14	8.143643e+03	3.891533e+03	2.036363e+03	0	7.152013e-04
1.900000e+08	4.794098e+12	0.000000e+00	3.828570e-01	1.415002e+14	9.079551e+14	2.626258e+14	8.105078e+03	3.872550e+03	2.026429e+03	0	7.070869e-04
2.000000e+08	4.636265e+12	0.000000e+00	3.828570e-01	1.372728e+14	8.778184e+14	2.612246e+14	8.067681e+03	3.854505e+03	2.016987e+03	0	6.992404e-04
2.100000e+08	4.486847e+12	0.000000e+00	3.828570e-01	1.332690e+14	8.497761e+14	2.598337e+14	8.031392e+03	3.837327e+03	2.007998e+03	0	6.916465e-04
2.200000e+08	4.345213e+12	0.000000e+00	3.828570e-01	1.294723e+14	8.236220e+14	2.584531e+14	7.996151e+03	3.820950e+03	1.999428e+03	0	6.842910e-04
2.300000e+08	4.210792e+12	0.000000e+00	3.828570e-01	1.258675e+14	7.991757e+14	2.570825e+14	7.961905e+03	3.805315e+03	1.991247e+03	0	6.771607e-04
2.400000e+08	4.083066e+12	0.000000e+00	3.828570e-01	1.224407e+14	7.762787e+14	2.557221e+14	7.928604e+03	3.790371e+03	1.983427e+03	0	6.702435e-04
2.500000e+08	3.961565e+12	0.000000e+00	3.828570e-01	1.191796e+14	7.547908e+14	2.543715e+14	7.896201e+03	3.776069e+03	1.975943e+03	0	6.635282e-04
2.600000e+08	3.845860e+12	0.000000e+00	3.828570e-01	1.160728e+14	7.345883e+14	2.530309e+14	7.864655e+03	3.762366e+03	1.968772e+03	0	6.570044e-04
2.700000e+08	3.735561e+12	0.000000e+00	3.828570e-01	1.131099e+14	7.155609e+14	2.517001e+14	7.833924e+03	3.749223e+03	1.961895e+03	0	6.506625e-04
2.800000e+08	3.630313e+12	0.000000e+00	3.828570e-01	1.102814e+14	6.976105e+14	2.503790e+14	7.803970e+03	3.736604e+03	1.955291e+03	0	6.444934e-04
2.900000e+08	3.529787e+12	0.000000e+00	3.828570e-01	1.075788e+14	6.806493e+14	2.490675e+14	7.774760e+03	3.724476e+03	1.948945e+03	0	6.384888e-04
3.000000e+08	3.433684e+12	0.000000e+00	3.828570e-01	1.049940e+14	6.645988e+14	2.477656e+14	7.746260e+03	3.712808e+03	1.942840e+03	0	6.326408e-04
3.100000e+08	3.341729e+12	0.000000e+00	3.828570e-01	1.025197e+14	6.493881e+14	2.464731e+14	7.718439e+03	3.701574e+03	1.936961e+03	0	6.269423e-04
3.200000e+08	3.253670e+12	0.000000e+00	3.828570e-01	1.001493e+14	6.349536e+14	2.451901e+14	7.691269e+03	3.690748e+03	1.931296e+03	0	6.213862e-04
3.300000e+08	3.169272e+12	0.000000e+00	3.828570e-01	9.787645e+13	6.212378e+14	2.439164e+14	7.664722e+03	3.680307e+03	1.925832e+03	0	6.159663e-04
3.400000e+08	3.088320e+12	0.000000e+00	3.828570e-01	9.569550e+13	6.081886e+14	2.426520e+14	7.638774e+03	3.670229e+03	1.920559e+03	0	6.106765e-04
3.500000e+08	3.010615e+12	0.000000e+00	3.828570e-01	9.360114e+13	5.957587e+14	2.413967e+14	7.613399e+03	3.660493e+03	1.915464e+03	0	6.055112e-04
3.600000e+08	2.935972e+12	0.000000e+00	3.828570e-01	9.158848e+13	5.839050e+14	2.401505e+14	7.588576e+03	3.651082e+03	1.910539e+03	0	6.004651e-04
3.700000e+08	2.864221e+12	0.000000e+00	3.828570e-01	8.965298e+13	5.725884e+14	2.389134e+14	7.564283e+03	3.641978e+03	1.905775e+03	0	5.955332e-04
3.800000e+08	2.795202e+12	0.000000e+00	3.828570e-01	8.779041e+13	5.617732e+14	2.376852e+14	7.540499e+03	3.633165e+03	1.901164e+03	0	5.907107e-04
3.900000e+08	2.728769e+12	0.000000e+00	3.828570e-01	8.599685e+13	5.514265e+14	2.364659e+14	7.517207e+03	3.624628e+03	1.896697e+03	0	5.859934e-04
4.000000e+08	2.664783e+12	0.000000e+00	3.828570e-01	8.426866e+13	5.415185e+14	2.352554e+14	7.494386e+03	3.616354e+03	1.892367e+03	0	5.813769e-04
4.100000e+08	2.603118e+12	0.000000e+00	3.828570e-01	8.260243e+13	5.320216e+14	2.340536e+14	7.472022e+03	3.608330e+03	1.888168e+03	0	5.768573e-04
4.200000e+08	2.543653e+12	0.000000e+00	3.828570e-01	8.099499e+13	5.229105e+14	2.328605e+14	7.450097e+03	3.600543e+03	1.884093e+03	0	5.724309e-04
4.300000e+08	2.486278e+12	0.000000e+00	3.828570e-01	7.944338e+13	5.141619e+14	2.316759e+14	7.428596e+03	3.592982e+03	1.880137e+03	0	5.680942e-04
4.400000e+08	2.430887e+12	0.000000e+00	3.828570e-01	7.794482e+13	5.057542e+14	2.304999e+14	7.407504e+03	3.585637e+03	1.876293e+03	0	5.638437e-04
4.500000e+08	2.377385e+12	0.000000e+00	3.828570e-01	7.649672e+13	4.976677e+14	2.293324e+14	7.386807e+03	3.578497e+03	1.872557e+03	0	5.596763e-04
4.600000e+08	2.325678e+12	0.000000e+00	3.828570e-01	7.509666e+13	4.898839e+14	2.281732e+14	7.366493e+03	3.571553e+03	1.868924e+03	0	5.555890e-04
4.700000e+08	2.275682e+12	0.000000e+00	3.828570e-01	7.374235e+13	4.823858e+14	2.270224e+14	7.346548e+03	3.564797e+03	1.865388e+03	0	5.515789e-04
4.800000e+08	2.227317e+12	0.000000e+00	3.828570e-01	7.243165e+13	4.751577e+14	2.258797e+14	7.326960e+03	3.558220e+03	1.861947e+03	0	5.476433e-04
4.900000e+08	2.180507e+12	0.000000e+00	3.828570e-01	7.116255e+13	4.681848e+14	2.247453e+14	7.307719e+03	3.551815e+03	1.858595e+03	0	5.437796e-04
5.000000e+08	2.135180e+12	0.000000e+00	3.828570e-01	6.993316e+13	4.614536e+14	2.236190e+14	7.288813e+03	3.545573e+03	1.855329e+03	0	5.399853e-04
5.100000e+08	2.091270e+12	0.000000e+00	3.828570e-01	6.874171e+13	4.549513e+14	2.225007e+14	7.270231e+03	3.539489e+03	1.852145e+03	0	5.362580e-04
5.200000e+08	2.048714e+12	0.000000e+00	3.828570e-01	6.758651e+13	4.486661e+14	2.213904e+14	7.251965e+03	3.533556e+03	1.849040e+03	0	5.325956e-04
5.300000e+08	2.007453e+12	0.000000e+00	3.828570e-01	6.646598e+13	4.425870e+14	2.202881e+14	7.234003e+03	3.527767e+03	1.846011e+03	0	5.289958e-04
5.400000e+08	1.967431e+12	0.000000e+00	3.828570e-01	6.537864e+13	4.367037e+14	2.191935e+14	7.216338e+03	3.522116e+03	1.843054e+03	0	5.254567e-04
5.500000e+08	1.928594e+12	0.000000e+00	3.828570e-01	6.432307e+13	4.310064e+14	2.181068e+14	7.198960e+03	3.516599e+03	1.840167e+03	0	5.219762e-04
5.600000e+08	1.890893e+12	0.000000e+00	3.828570e-01	6.329795e+13	4.254861e+14	2.170278e+14	7.181861e+03	3.511210e+03	1.837347e+03	0	5.185526e-04
5.700000e+08	1.854281e+12	0.000000e+00	3.828570e-01	6.230200e+13	4.201345e+14	2.159565e+14	7.165034e+03	3.505943e+03	1.834591e+03	0	5.151840e-04
5.800000e+08	1.818713e+12	0.000000e+00	3.828570e-01	6.133405e+13	4.149435e+14	2.148927e+14	7.148469e+03	3.500795e+03	1.831897e+03	0	5.118686e-04
5.900000e+08	1.784147e+12	0.000000e+00	3.828570e-01	6.039296e+13	4.099057e+14	2.138365e+14	7.132161e+03	3.495760e+03	1.829263e+03	0	5.086050e-04
6.000000e+08	1.750542e+12	0.000000e+00	3.828570e-01	5.947766e+13	4.050141e+14	2.127878e+14	7.116101e+03	3.490835e+03	1.826686e+03	0	5.053915e-04
6.100000e+08	1.717860e+12	0.000000e+00	3.828570e-01	5.858714e+13	4.002622e+14	2.117465e+14	7.100284e+03	3.486016e+03	1.824164e+03	0	5.022266e-04
6.200000e+08	1.686066e+12	0.000000e+00	3.828570e-01	5.772043e+13	3.956436e+14	2.107125e+14	7.084702e+03	3.481298e+03	1.821695e+03	0	4.991089e-04
6.300000e+08	1.655125e+12	0.000000e+00	3.828570e-01	5.687662e+13	3.911525e+14	2.096859e+14	7.069350e+03	3.476678e+03	1.819277e+03	0	4.960369e-04
6.400000e+08	1.625004e+12	0.000000e+00	3.828570e-01	5.605485e+13	3.867835e+14	2.086665e+14	7.054221e+03	3.472152e+03	1.816909e+03	0	4.930095e-04
6.500000e+08	1.595673e+12	0.000000e+00	3.828570e-01	5.525427e+13	3.825314e+14	2.076542e+14	7.039310e+03	3.467718e+03	1.814589e+03	0	4.900252e-04
6.600000e+08	1.567101e+12	0.000000e+00	3.828570e-01	5.447412e+13	3.783912e+14	2.066491e+14	7.024610e+03	3.463371e+03	1.812314e+03	0	4.870828e-04
6.700000e+08	1.539262e+12	0.000000e+00	3.828570e-01	5.371363e+13	3.743582e+14	2.056511e+14	7.010117e+03	3.459109e+03	1.810084e+03	0	4.841813e-04
6.800000e+08	1.512129e+12	0.000000e+00	3.828570e-01	5.297211e+13	3.704282e+14	2.046600e+14	6.995825e+03	3.454930e+03	1.807897e+03	0	4.813194e-04
6.900000e+08	1.485675e+12	0.000000e+00	3.828570e-01	5.224885e+13	3.665969e+14	2.036760e+14	6.981730e+03	3.450830e+03	1.805751e+03	0	4.784961e-04
7.000000e+08	1.459877e+12	0.000000e+00	3.828570e-01	5.154323e+13	3.628605e+14	2.026988e+14	6.967826e+03	3.446806e+03	1.803646e+03	0	4.757102e-04
7.100000e+08	1.434711e+12	0.000000e+00	3.828570e-01	5.085462e+13	3.592151e+14	2.017284e+14	6.954110e+03	3.442856e+03	1.801579e+03	0	4.729609e-04
7.200000e+08	1.410156e+12	0.000000e+00	3.828570e-01	5.018243e+13	3.556572e+14	2.007649e+14	6.940575e+03	3.438978e+03	1.799550e+03	0	4.702471e-04
7.300000e+08	1.386190e+12	0.000000e+00	3.828570e-01	4.952610e+13	3.521836e+14	1.998081e+14	6.927219e+03	3.435170e+03	1.797557e+03	0	4.675679e-04
7.400000e+08	1.362794e+12	0.000000e+00	3.828570e-01	4.888509e+13	3.487909e+14	1.988579e+14	6.914037e+03	3.431428e+03	1.795599e+03	0	4.649224e-04
7.500000e+08	1.339947e+12	0.000000e+00	3.828570e-01	4.825889e+13	3.454762e+14	1.979144e+14	6.901024e+03	3.427752e+03	1.793675e+03	0	4.623097e-04
7.600000e+08	1.317632e+12	0.000000e+00	3.828570e-01	4.764700e+13	3.422366e+14	1.969775e+14	6.888177e+03	3.424139e+03	1.791785e+03	0	4.597289e-04
7.700000e+08	1.295831e+12	0.000000e+00	3.828570e-01	4.704895e+13	3.390694e+14	1.960470e+14	6.875493e+03	3.420587e+03	1.789926e+03	0	4.571793e-04
7.800000e+08	1.274527e+12	0.000000e+00	3.828570e-01	4.646429e+13	3.359719e+14	1.951231e+14	6.862967e+03	3.417094e+03	1.788098e+03	0	4.546601e-04
7.900000e+08	1.253704e+12	0.000000e+00	3.828570e-01	4.589259e+13	3.329417e+14	1.942055e+14	6.850596e+03	3.413658e+03	1.786300e+03	0	4.521704e-04
8.000000e+08	1.233347e+12	0.000000e+00	3.828570e-01	4.533344e+13	3.299763e+14	1.932944e+14	6.838377e+03	3.410278e+03	1.784532e+03	0	4.497097e-04
8.100000e+08	1.213440e+12	0.000000e+00	3.828570e-01	4.478644e+13	3.270736e+14	1.923895e+14	6.826306e+03	3.406952e+03	1.782791e+03	0	4.472770e-04
8.200000e+08	1.193970e+12	0.000000e+00	3.828570e-01	4.425121e+13	3.242314e+14	1.914909e+14	6.814380e+03	3.403679e+03	1.781078e+03	0	4.448719e-04
8.300000e+08	1.174923e+12	0.000000e+00	3.828570e-01	4.372739e+13	3.214476e+14	1.905985e+14	6.802596e+03	3.400456e+03	1.779392e+03	0	4.424936e-04
8.400000e+08	1.156286e+12	0.000000e+00	3.828570e-01	4.321461e+13	3.187203e+14	1.897123e+14	6.790951e+03	3.397283e+03	1.777732e+03	0	4.401414e-04
8.500000e+08	1.138046e+12	0.000000e+00	3.828570e-01	4.271256e+13	3.160476e+14	1.888322e+14	6.779442e+03	3.394158e+03	1.776096e+03	0	4.378147e-04
8.600000e+08	1.120191e+12	0.000000e+00	3.828570e-01	4.222091e+13	3.134277e+14	1.879581e+14	6.768066e+03	3.391080e+03	1.774486e+03	0	4.355130e-04
8.700000e+08	1.102710e+12	0.000000e+00	3.828570e-01	4.173934e+13	3.108589e+14	1.870901e+14	6.756820e+03	3.388047e+03	1.772898e+03	0	4.332356e-04
8.800000e+08	1.085591e+12	0.000000e+00	3.828570e-01	4.126756e+13	3.083396e+14	1.862280e+14	6.745702e+03	3.385058e+03	1.771334e+03	0	4.309820e-04
8.900000e+08	1.068824e+12	0.000000e+00	3.828570e-01	4.080528e+13	3.058681e+14	1.853719e+14	6.734710e+03	3.382112e+03	1.769793e+03	0	4.287517e-04
9.000000e+08	1.052398e+12	0.000000e+00	3.828570e-01	4.035223e+13	3.034430e+14	1.845217e+14	6.723840e+03	3.379208e+03	1.768273e+03	0	4.265440e-04
9.100000e+08	1.036305e+12	0.000000e+00	3.828570e-01	3.990813e+13	3.010629e+14	1.836772e+14	6.713090e+03	3.376344e+03	1.766775e+03	0	4.243585e-04
9.200000e+08	1.020533e+12	0.000000e+00	3.828570e-01	3.947275e+13	2.987263e+14	1.828386e+14	6.702458e+03	3.373520e+03	1.765297e+03	0	4.221947e-04
9.300000e+08	1.005074e+12	0.000000e+00	3.828570e-01	3.904582e+13	2.964320e+14	1.820057e+14	6.691942e+03	3.370734e+03	1.763839e+03	0	4.200521e-04
9.400000e+08	9.899194e+11	0.000000e+00	3.828570e-01	3.862711e+13	2.941787e+14	1.811784e+14	6.681539e+03	3.367986e+03	1.762401e+03	0	4.179302e-04
9.500000e+08	9.750603e+11	0.000000e+00	3.828570e-01	3.821640e+13	2.919651e+14	1.803569e+14	6.671247e+03	3.365274e+03	1.760982e+03	0	4.158285e-04
9.600000e+08	9.604885e+11	0.000000e+00	3.828570e-01	3.781346e+13	2.897901e+14	1.795409e+14	6.661065e+03	3.362598e+03	1.759582e+03	0	4.137467e-04
9.700000e+08	9.461963e+11	0.000000e+00	3.828570e-01	3.741809e+13	2.876526e+14	1.787305e+14	6.650989e+03	3.359956e+03	1.758199e+03	0	4.116842e-04
9.800000e+08	9.321759e+11	0.000000e+00	3.828570e-01	3.703007e+13	2.855515e+14	1.779256e+14	6.641018e+03	3.357349e+03	1.756835e+03	0	4.096407e-04
9.900000e+08	9.184200e+11	0.000000e+00	3.828570e-01	3.664921e+13	2.834858e+14	1.771262e+14	6.631150e+03	3.354774e+03	1.755487e+03	0	4.076157e-04
1.000000e+09	9.049215e+11	0.000000e+00	3.828570e-01	3.627532e+13	2.814544e+14	1.763322e+14	6.621383e+03	3.352231e+03	1.754157e+03	0	4.056089e-04
1.010000e+09	8.916736e+11	0.000000e+00	3.828570e-01	3.590822e+13	2.794564e+14	1.755436e+14	6.611716e+03	3.349719e+03	1.752842e+03	0	4.036198e-04
1.020000e+09	8.786696e+11	0.000000e+00	3.828570e-01	3.554773e+13	2.774909e+14	1.747603e+14	6.602146e+03	3.347238e+03	1.751544e+03	0	4.016480e-04
1.030000e+09	8.659031e+11	0.000000e+00	3.828570e-01	3.519367e+13	2.755570e+14	1.739823e+14	6.592672e+03	3.344787e+03	1.750261e+03	0	3.996933e-04
1.040000e+09	8.533681e+11	0.000000e+00	3.828570e-01	3.484589e+13	2.736539e+14	1.732096e+14	6.583292e+03	3.342365e+03	1.748994e+03	0	3.977552e-04
1.050000e+09	8.410585e+11	0.000000e+00	3.828570e-01	3.450421e+13	2.717807e+14	1.724421e+14	6.574004e+03	3.339971e+03	1.747741e+03	0	3.958335e-04
1.060000e+09	8.289685e+11	0.000000e+00	3.828570e-01	3.416850e+13	2.699366e+14	1.716798e+14	6.564807e+03	3.337604e+03	1.746503e+03	0	3.939277e-04
1.070000e+09	8.170927e+11	0.000000e+00	3.828570e-01	3.383859e+13	2.681208e+14	1.709226e+14	6.555699e+03	3.335265e+03	1.745279e+03	0	3.920375e-04
1.080000e+09	8.054255e+11	0.000000e+00	3.828570e-01	3.351434e+13	2.663327e+14	1.701705e+14	6.546679e+03	3.332953e+03	1.744069e+03	0	3.901626e-04
1.090000e+09	7.939619e+11	0.000000e+00	3.828570e-01	3.319561e+13	2.645715e+14	1.694235e+14	6.537745e+03	3.330666e+03	1.742872e+03	0	3.883026e-04
1.100000e+09	7.826967e+11	0.000000e+00	3.828570e-01	3.288227e+13	2.628366e+14	1.686815e+14	6.528895e+03	3.328404e+03	1.741689e+03	0	3.864574e-04
1.110000e+09	7.716251e+11	0.000000e+00	3.828570e-01	3.257418e+13	2.611272e+14	1.679444e+14	6.520129e+03	3.326167e+03	1.740518e+03	0	3.846265e-04
1.120000e+09	7.607424e+11	0.000000e+00	3.828570e-01	3.227123e+13	2.594428e+14	1.672123e+14	6.511445e+03	3.323954e+03	1.739360e+03	0	3.828098e-04
1.130000e+09	7.500439e+11	0.000000e+00	3.828570e-01	3.197327e+13	2.577827e+14	1.664851e+14	6.502841e+03	3.321765e+03	1.738214e+03	0	3.810068e-04
1.140000e+09	7.395253e+11	0.000000e+00	3.828570e-01	3.168021e+13	2.561463e+14	1.657628e+14	6.494317e+03	3.319598e+03	1.737081e+03	0	3.792173e-04
1.150000e+09	7.291823e+11	0.000000e+00	3.828570e-01	3.139191e+13	2.545331e+14	1.650453e+14	6.485870e+03	3.317455e+03	1.735959e+03	0	3.774411e-04
1.160000e+09	7.190106e+11	0.000000e+00	3.828570e-01	3.110827e+13	2.529424e+14	1.643325e+14	6.477500e+03	3.315333e+03	1.734849e+03	0	3.756778e-04
1.170000e+09	7.090063e+11	0.000000e+00	3.828570e-01	3.082919e+13	2.513738e+14	1.636245e+14	6.469205e+03	3.313233e+03	1.733750e+03	0	3.739273e-04
1.180000e+09	6.991655e+11	0.000000e+00	3.828570e-01	3.055454e+13	2.498268e+14	1.629213e+14	6.460985e+03	3.311154e+03	1.732662e+03	0	3.721892e-04
1.190000e+09	6.894844e+11	0.000000e+00	3.828570e-01	3.028424e+13	2.483008e+14	1.622227e+14	6.452837e+03	3.309095e+03	1.731585e+03	0	3.704634e-04
1.200000e+09	6.799592e+11	0.000000e+00	3.828570e-01	3.001819e+13	2.467953e+14	1.615287e+14	6.444762e+03	3.307057e+03	1.730518e+03	0	3.687495e-04
1.210000e+09	6.705865e+11	0.000000e+00	3.828570e-01	2.975628e+13	2.453100e+14	1.608393e+14	6.436757e+03	3.305038e+03	1.729462e+03	0	3.670473e-04
1.220000e+09	6.613628e+11	0.000000e+00	3.828570e-01	2.949843e+13	2.438442e+14	1.601545e+14	6.428822e+03	3.303039e+03	1.728416e+03	0	3.653567e-04
1.230000e+09	6.522847e+11	0.000000e+00	3.828570e-01	2.924454e+13	2.423976e+14	1.594743e+14	6.420955e+03	3.301059e+03	1.727380e+03	0	3.636773e-04
1.240000e+09	6.433489e+11	0.000000e+00	3.828570e-01	2.899452e+13	2.409698e+14	1.587985e+14	6.413156e+03	3.299098e+03	1.726353e+03	0	3.620090e-04
1.250000e+09	6.345523e+11	0.000000e+00	3.828570e-01	2.874830e+13	2.395604e+14	1.581272e+14	6.405423e+03	3.297155e+03	1.725336e+03	0	3.603514e-04
1.260000e+09	6.258919e+11	0.000000e+00	3.828570e-01	2.850579e+13	2.381688e+14	1.574603e+14	6.397756e+03	3.295229e+03	1.724329e+03	0	3.587046e-04
1.270000e+09	6.173646e+11	0.000000e+00	3.828570e-01	2.826690e+13	2.367949e+14	1.567979e+14	6.390153e+03	3.293322e+03	1.723331e+03	0	3.570681e-04
1.280000e+09	6.089675e+11	0.000000e+00	3.828570e-01	2.803156e+13	2.354381e+14	1.561397e+14	6.382614e+03	3.291431e+03	1.722341e+03	0	3.554418e-04
1.290000e+09	6.006978e+11	0.000000e+00	3.828570e-01	2.779970e+13	2.340981e+14	1.554859e+14	6.375137e+03	3.289557e+03	1.721361e+03	0	3.538255e-04
1.300000e+09	5.925528e+11	0.000000e+00	3.828570e-01	2.757124e+13	2.327746e+14	1.548364e+14	6.367722e+03	3.287700e+03	1.720389e+03	0	3.522190e-04
1.310000e+09	5.845299e+11	0.000000e+00	3.828570e-01	2.734610e+13	2.314672e+14	1.541912e+14	6.360368e+03	3.285859e+03	1.719425e+03	0	3.506222e-04
1.320000e+09	5.766263e+11	0.000000e+00	3.828570e-01	2.712423e+13	2.301756e+14	1.535501e+14	6.353074e+03	3.284033e+03	1.718470e+03	0	3.490347e-04
1.330000e+09	5.688397e+11	0.000000e+00	3.828570e-01	2.690554e+13	2.288994e+14	1.529133e+14	6.345838e+03	3.282224e+03	1.717523e+03	0	3.474565e-04
1.340000e+09	5.611675e+11	0.000000e+00	3.828570e-01	2.668998e+13	2.276384e+14	1.522806e+14	6.338661e+03	3.280429e+03	1.716584e+03	0	3.458873e-04
1.350000e+09	5.536074e+11	0.000000e+00	3.828570e-01	2.647748e+13	2.263922e+14	1.516521e+14	6.331541e+03	3.278650e+03	1.715653e+03	0	3.443270e-04
1.360000e+09	5.461571e+11	0.000000e+00	3.828570e-01	2.626797e+13	2.251606e+14	1.510276e+14	6.324478e+03	3.276885e+03	1.714730e+03	0	3.427754e-04
