#t		Qconv[W]	Ri[Rp]		R*[Rp]		Qc[W]		Qm[W]		Qr[W]		Tcmb[K]		Tl[K]		Tup[K]		RiFlag		Bs[T]
0.000000e+00	2.863954e+13	0.000000e+00	3.828572e-01	6.153925e+14	3.309490e+15	4.358529e+14	1.199881e+04	5.547366e+03	2.566357e+03	0	1.257607e-03
1.000000e+07	2.712341e+13	0.000000e+00	3.828572e-01	5.851829e+14	3.090984e+15	4.334379e+14	1.189789e+04	5.491237e+03	2.540390e+03	0	1.235012e-03
2.000000e+07	2.573501e+13	0.000000e+00	3.828572e-01	5.575023e+14	2.899024e+15	4.310410e+14	1.180185e+04	5.439623e+03	2.516512e+03	0	1.213569e-03
3.000000e+07	2.445956e+13	0.000000e+00	3.828572e-01	5.320590e+14	2.729215e+15	4.286621e+14	1.171028e+04	5.391953e+03	2.494459e+03	0	1.193180e-03
4.000000e+07	2.328444e+13	0.000000e+00	3.828572e-01	5.086032e+14	2.578059e+15	4.263009e+14	1.162284e+04	5.347752e+03	2.474010e+03	0	1.173757e-03
5.000000e+07	2.219876e+13	0.000000e+00	3.828572e-01	4.869202e+14	2.442740e+15	4.239573e+14	1.153919e+04	5.306622e+03	2.454982e+03	0	1.155223e-03
6.000000e+07	2.119313e+13	0.000000e+00	3.828572e-01	4.668241e+14	2.320970e+15	4.216311e+14	1.145907e+04	5.268224e+03	2.437218e+03	0	1.137508e-03
7.000000e+07	2.025939e+13	0.000000e+00	3.828572e-01	4.481539e+14	2.210874e+15	4.193223e+14	1.138221e+04	5.232270e+03	2.420585e+03	0	1.120551e-03
8.000000e+07	1.939044e+13	0.000000e+00	3.828572e-01	4.307688e+14	2.110897e+15	4.170307e+14	1.130839e+04	5.198514e+03	2.404969e+03	0	1.104296e-03
9.000000e+07	1.858005e+13	0.000000e+00	3.828572e-01	4.145459e+14	2.019744e+15	4.147561e+14	1.123739e+04	5.166740e+03	2.390269e+03	0	1.088693e-03
1.000000e+08	1.782276e+13	0.000000e+00	3.828572e-01	3.993768e+14	1.936329e+15	4.124984e+14	1.116904e+04	5.136764e+03	2.376402e+03	0	1.073696e-03
1.100000e+08	1.711372e+13	0.000000e+00	3.828572e-01	3.851663e+14	1.859732e+15	4.102574e+14	1.110316e+04	5.108424e+03	2.363291e+03	0	1.059265e-03
1.200000e+08	1.644869e+13	0.000000e+00	3.828572e-01	3.718296e+14	1.789169e+15	4.080331e+14	1.103959e+04	5.081575e+03	2.350870e+03	0	1.045362e-03
1.300000e+08	1.582386e+13	0.000000e+00	3.828572e-01	3.592918e+14	1.723973e+15	4.058252e+14	1.097821e+04	5.056093e+03	2.339081e+03	0	1.031954e-03
1.400000e+08	1.523585e+13	0.000000e+00	3.828572e-01	3.474861e+14	1.663567e+15	4.036337e+14	1.091887e+04	5.031867e+03	2.327873e+03	0	1.019010e-03
1.500000e+08	1.468166e+13	0.000000e+00	3.828572e-01	3.363525e+14	1.607453e+15	4.014583e+14	1.086146e+04	5.008796e+03	2.317200e+03	0	1.006502e-03
1.600000e+08	1.415856e+13	0.000000e+00	3.828572e-01	3.258375e+14	1.555200e+15	3.992991e+14	1.080587e+04	4.986792e+03	2.307021e+03	0	9.944035e-04
1.700000e+08	1.366414e+13	0.000000e+00	3.828572e-01	3.158931e+14	1.506428e+15	3.971557e+14	1.075200e+04	4.965777e+03	2.297298e+03	0	9.826911e-04
1.800000e+08	1.319620e+13	0.000000e+00	3.828572e-01	3.064757e+14	1.460809e+15	3.950282e+14	1.069976e+04	4.945678e+03	2.288000e+03	0	9.713429e-04
1.900000e+08	1.275277e+13	0.000000e+00	3.828572e-01	2.975463e+14	1.418050e+15	3.929164e+14	1.064906e+04	4.926431e+03	2.279096e+03	0	9.603388e-04
2.000000e+08	1.233206e+13	0.000000e+00	3.828572e-01	2.890693e+14	1.377896e+15	3.908200e+14	1.059982e+04	4.907978e+03	2.270559e+03	0	9.496600e-04
2.100000e+08	1.193244e+13	0.000000e+00	3.828572e-01	2.810126e+14	1.340119e+15	3.887391e+14	1.055198e+04	4.890265e+03	2.262365e+03	0	9.392893e-04
2.200000e+08	1.155245e+13	0.000000e+00	3.828572e-01	2.733469e+14	1.304517e+15	3.866735e+14	1.050545e+04	4.873246e+03	2.254491e+03	0	9.292108e-04
2.300000e+08	1.119072e+13	0.000000e+00	3.828572e-01	2.660455e+14	1.270909e+15	3.846230e+14	1.046019e+04	4.856876e+03	2.246918e+03	0	9.194095e-04
2.400000e+08	1.084605e+13	0.000000e+00	3.828572e-01	2.590841e+14	1.239134e+15	3.825876e+14	1.041612e+04	4.841115e+03	2.239627e+03	0	9.098717e-04
2.500000e+08	1.051730e+13	0.000000e+00	3.828572e-01	2.524404e+14	1.209048e+15	3.805671e+14	1.037320e+04	4.825926e+03	2.232600e+03	0	9.005843e-04
2.600000e+08	1.020345e+13	0.000000e+00	3.828572e-01	2.460940e+14	1.180521e+15	3.785614e+14	1.033136e+04	4.811276e+03	2.225822e+03	0	8.915356e-04
2.700000e+08	9.903561e+12	0.000000e+00	3.828572e-01	2.400261e+14	1.153435e+15	3.765703e+14	1.029057e+04	4.797133e+03	2.219280e+03	0	8.827141e-04
2.800000e+08	9.616755e+12	0.000000e+00	3.828572e-01	2.342197e+14	1.127685e+15	3.745938e+14	1.025078e+04	4.783470e+03	2.212958e+03	0	8.741094e-04
2.900000e+08	9.342239e+12	0.000000e+00	3.828572e-01	2.286586e+14	1.103174e+15	3.726317e+14	1.021195e+04	4.770258e+03	2.206846e+03	0	8.657116e-04
3.000000e+08	9.079276e+12	0.000000e+00	3.828572e-01	2.233285e+14	1.079816e+15	3.706839e+14	1.017402e+04	4.757475e+03	2.200932e+03	0	8.575116e-04
3.100000e+08	8.827186e+12	0.000000e+00	3.828572e-01	2.182156e+14	1.057531e+15	3.687502e+14	1.013698e+04	4.745097e+03	2.195206e+03	0	8.495006e-04
3.200000e+08	8.585340e+12	0.000000e+00	3.828572e-01	2.133076e+14	1.036247e+15	3.668307e+14	1.010078e+04	4.733103e+03	2.189658e+03	0	8.416705e-04
3.300000e+08	8.353155e+12	0.000000e+00	3.828572e-01	2.085929e+14	1.015897e+15	3.649251e+14	1.006538e+04	4.721474e+03	2.184278e+03	0	8.340136e-04
3.400000e+08	8.130092e+12	0.000000e+00	3.828572e-01	2.040606e+14	9.964225e+14	3.630334e+14	1.003076e+04	4.710192e+03	2.179058e+03	0	8.265226e-04
3.500000e+08	7.915649e+12	0.000000e+00	3.828572e-01	1.997009e+14	9.777667e+14	3.611554e+14	9.996891e+03	4.699239e+03	2.173991e+03	0	8.191909e-04
3.600000e+08	7.709359e+12	0.000000e+00	3.828572e-01	1.955044e+14	9.598790e+14	3.592909e+14	9.963738e+03	4.688601e+03	2.169070e+03	0	8.120118e-04
3.700000e+08	7.510789e+12	0.000000e+00	3.828572e-01	1.914625e+14	9.427126e+14	3.574400e+14	9.931277e+03	4.678261e+03	2.164286e+03	0	8.049794e-04
3.800000e+08	7.319533e+12	0.000000e+00	3.828572e-01	1.875671e+14	9.262245e+14	3.556025e+14	9.899482e+03	4.668206e+03	2.159634e+03	0	7.980879e-04
3.900000e+08	7.135215e+12	0.000000e+00	3.828572e-01	1.838108e+14	9.103748e+14	3.537783e+14	9.868330e+03	4.658423e+03	2.155109e+03	0	7.913318e-04
4.000000e+08	6.957481e+12	0.000000e+00	3.828572e-01	1.801865e+14	8.951267e+14	3.519673e+14	9.837798e+03	4.648900e+03	2.150703e+03	0	7.847059e-04
4.100000e+08	6.786003e+12	0.000000e+00	3.828572e-01	1.766876e+14	8.804462e+14	3.501693e+14	9.807864e+03	4.639626e+03	2.146413e+03	0	7.782055e-04
4.200000e+08	6.620471e+12	0.000000e+00	3.828572e-01	1.733080e+14	8.663016e+14	3.483842e+14	9.778507e+03	4.630589e+03	2.142232e+03	0	7.718257e-04
4.300000e+08	6.460597e+12	0.000000e+00	3.828572e-01	1.700420e+14	8.526638e+14	3.466121e+14	9.749708e+03	4.621780e+03	2.138157e+03	0	7.655622e-04
4.400000e+08	6.306109e+12	0.000000e+00	3.828572e-01	1.668840e+14	8.395055e+14	3.448526e+14	9.721449e+03	4.613189e+03	2.134182e+03	0	7.594108e-04
4.500000e+08	6.156753e+12	0.000000e+00	3.828572e-01	1.638292e+14	8.268013e+14	3.431058e+14	9.693711e+03	4.604806e+03	2.130304e+03	0	7.533674e-04
4.600000e+08	6.012290e+12	0.000000e+00	3.828572e-01	1.608726e+14	8.145277e+14	3.413716e+14	9.666477e+03	4.596624e+03	2.126519e+03	0	7.474283e-04
4.700000e+08	5.872495e+12	0.000000e+00	3.828572e-01	1.580098e+14	8.026627e+14	3.396498e+14	9.639732e+03	4.588634e+03	2.122822e+03	0	7.415899e-04
4.800000e+08	5.737157e+12	0.000000e+00	3.828572e-01	1.552366e+14	7.911857e+14	3.379403e+14	9.613461e+03	4.580829e+03	2.119212e+03	0	7.358487e-04
4.900000e+08	5.606076e+12	0.000000e+00	3.828572e-01	1.525490e+14	7.800775e+14	3.362431e+14	9.587647e+03	4.573201e+03	2.115683e+03	0	7.302013e-04
5.000000e+08	5.479065e+12	0.000000e+00	3.828572e-01	1.499433e+14	7.693201e+14	3.345580e+14	9.562278e+03	4.565744e+03	2.112233e+03	0	7.246446e-04
5.100000e+08	5.355945e+12	0.000000e+00	3.828572e-01	1.474159e+14	7.588968e+14	3.328849e+14	9.537340e+03	4.558452e+03	2.108859e+03	0	7.191756e-04
5.200000e+08	5.236551e+12	0.000000e+00	3.828572e-01	1.449634e+14	7.487917e+14	3.312238e+14	9.512820e+03	4.551317e+03	2.105559e+03	0	7.137915e-04
5.300000e+08	5.120723e+12	0.000000e+00	3.828572e-01	1.425828e+14	7.389900e+14	3.295746e+14	9.488705e+03	4.544334e+03	2.102328e+03	0	7.084894e-04
5.400000e+08	5.008312e+12	0.000000e+00	3.828572e-01	1.402710e+14	7.294779e+14	3.279370e+14	9.464985e+03	4.537499e+03	2.099166e+03	0	7.032667e-04
5.500000e+08	4.899177e+12	0.000000e+00	3.828572e-01	1.380252e+14	7.202422e+14	3.263112e+14	9.441646e+03	4.530804e+03	2.096069e+03	0	6.981209e-04
5.600000e+08	4.793184e+12	0.000000e+00	3.828572e-01	1.358427e+14	7.112705e+14	3.246969e+14	9.418680e+03	4.524246e+03	2.093035e+03	0	6.930496e-04
5.700000e+08	4.690206e+12	0.000000e+00	3.828572e-01	1.337210e+14	7.025515e+14	3.230940e+14	9.396074e+03	4.517820e+03	2.090062e+03	0	6.880504e-04
5.800000e+08	4.590122e+12	0.000000e+00	3.828572e-01	1.316576e+14	6.940740e+14	3.215025e+14	9.373820e+03	4.511520e+03	2.087147e+03	0	6.831210e-04
5.900000e+08	4.492818e+12	0.000000e+00	3.828572e-01	1.296504e+14	6.858278e+14	3.199223e+14	9.351908e+03	4.505343e+03	2.084290e+03	0	6.782595e-04
6.000000e+08	4.398186e+12	0.000000e+00	3.828572e-01	1.276971e+14	6.778031e+14	3.183533e+14	9.330327e+03	4.499285e+03	2.081487e+03	0	6.734636e-04
6.100000e+08	4.306123e+12	0.000000e+00	3.828572e-01	1.257956e+14	6.699908e+14	3.167954e+14	9.309071e+03	4.493341e+03	2.078737e+03	0	6.687314e-04
6.200000e+08	4.216530e+12	0.000000e+00	3.828572e-01	1.239440e+14	6.623822e+14	3.152485e+14	9.288129e+03	4.487508e+03	2.076039e+03	0	6.640610e-04
6.300000e+08	4.129316e+12	0.000000e+00	3.828572e-01	1.221405e+14	6.549689e+14	3.137125e+14	9.267494e+03	4.481782e+03	2.073390e+03	0	6.594506e-04
6.400000e+08	4.044391e+12	0.000000e+00	3.828572e-01	1.203833e+14	6.477433e+14	3.121874e+14	9.247157e+03	4.476160e+03	2.070789e+03	0	6.548984e-04
6.500000e+08	3.961670e+12	0.000000e+00	3.828572e-01	1.186706e+14	6.406979e+14	3.106730e+14	9.227112e+03	4.470639e+03	2.068235e+03	0	6.504027e-04
6.600000e+08	3.881074e+12	0.000000e+00	3.828572e-01	1.170008e+14	6.338258e+14	3.091692e+14	9.207351e+03	4.465214e+03	2.065725e+03	0	6.459619e-04
6.700000e+08	3.802526e+12	0.000000e+00	3.828572e-01	1.153725e+14	6.271202e+14	3.076761e+14	9.187866e+03	4.459884e+03	2.063259e+03	0	6.415743e-04
6.800000e+08	3.725952e+12	0.000000e+00	3.828572e-01	1.137842e+14	6.205749e+14	3.061934e+14	9.168651e+03	4.454645e+03	2.060836e+03	0	6.372385e-04
6.900000e+08	3.651284e+12	0.000000e+00	3.828572e-01	1.122344e+14	6.141838e+14	3.047211e+14	9.149700e+03	4.449495e+03	2.058453e+03	0	6.329530e-04
7.000000e+08	3.578454e+12	0.000000e+00	3.828572e-01	1.107219e+14	6.079413e+14	3.032591e+14	9.131005e+03	4.444431e+03	2.056110e+03	0	6.287163e-04
7.100000e+08	3.507399e+12	0.000000e+00	3.828572e-01	1.092453e+14	6.018420e+14	3.018074e+14	9.112561e+03	4.439450e+03	2.053806e+03	0	6.245272e-04
7.200000e+08	3.438059e+12	0.000000e+00	3.828572e-01	1.078034e+14	5.958806e+14	3.003658e+14	9.094362e+03	4.434549e+03	2.051539e+03	0	6.203841e-04
7.300000e+08	3.370374e+12	0.000000e+00	3.828572e-01	1.063952e+14	5.900524e+14	2.989343e+14	9.076402e+03	4.429728e+03	2.049308e+03	0	6.162860e-04
7.400000e+08	3.304290e+12	0.000000e+00	3.828572e-01	1.050193e+14	5.843524e+14	2.975128e+14	9.058676e+03	4.424982e+03	2.047113e+03	0	6.122315e-04
7.500000e+08	3.239754e+12	0.000000e+00	3.828572e-01	1.036749e+14	5.787765e+14	2.961012e+14	9.041178e+03	4.420311e+03	2.044952e+03	0	6.082194e-04
7.600000e+08	3.176714e+12	0.000000e+00	3.828572e-01	1.023608e+14	5.733201e+14	2.946994e+14	9.023903e+03	4.415711e+03	2.042824e+03	0	6.042486e-04
7.700000e+08	3.115122e+12	0.000000e+00	3.828572e-01	1.010761e+14	5.679794e+14	2.933074e+14	9.006846e+03	4.411181e+03	2.040728e+03	0	6.003179e-04
7.800000e+08	3.054931e+12	0.000000e+00	3.828572e-01	9.981990e+13	5.627503e+14	2.919251e+14	8.990002e+03	4.406720e+03	2.038664e+03	0	5.964262e-04
7.900000e+08	2.996097e+12	0.000000e+00	3.828572e-01	9.859121e+13	5.576292e+14	2.905523e+14	8.973367e+03	4.402324e+03	2.036631e+03	0	5.925725e-04
8.000000e+08	2.938576e+12	0.000000e+00	3.828572e-01	9.738922e+13	5.526126e+14	2.891891e+14	8.956935e+03	4.397993e+03	2.034627e+03	0	5.887558e-04
8.100000e+08	2.882327e+12	0.000000e+00	3.828572e-01	9.621309e+13	5.476971e+14	2.878353e+14	8.940703e+03	4.393724e+03	2.032652e+03	0	5.849750e-04
8.200000e+08	2.827311e+12	0.000000e+00	3.828572e-01	9.506202e+13	5.428793e+14	2.864909e+14	8.924667e+03	4.389517e+03	2.030705e+03	0	5.812293e-04
8.300000e+08	2.773490e+12	0.000000e+00	3.828572e-01	9.393526e+13	5.381563e+14	2.851558e+14	8.908821e+03	4.385368e+03	2.028786e+03	0	5.775175e-04
8.400000e+08	2.720828e+12	0.000000e+00	3.828572e-01	9.283206e+13	5.335249e+14	2.838299e+14	8.893162e+03	4.381278e+03	2.026894e+03	0	5.738389e-04
8.500000e+08	2.669289e+12	0.000000e+00	3.828572e-01	9.175174e+13	5.289825e+14	2.825132e+14	8.877687e+03	4.377243e+03	2.025027e+03	0	5.701925e-04
8.600000e+08	2.618840e+12	0.000000e+00	3.828572e-01	9.069360e+13	5.245262e+14	2.812055e+14	8.862390e+03	4.373264e+03	2.023186e+03	0	5.665774e-04
8.700000e+08	2.569449e+12	0.000000e+00	3.828572e-01	8.965700e+13	5.201534e+14	2.799069e+14	8.847270e+03	4.369337e+03	2.021370e+03	0	5.629929e-04
8.800000e+08	2.521083e+12	0.000000e+00	3.828572e-01	8.864131e+13	5.158616e+14	2.786171e+14	8.832322e+03	4.365463e+03	2.019578e+03	0	5.594380e-04
8.900000e+08	2.473715e+12	0.000000e+00	3.828572e-01	8.764593e+13	5.116485e+14	2.773363e+14	8.817542e+03	4.361640e+03	2.017809e+03	0	5.559121e-04
9.000000e+08	2.427314e+12	0.000000e+00	3.828572e-01	8.667028e+13	5.075116e+14	2.760642e+14	8.802928e+03	4.357866e+03	2.016063e+03	0	5.524143e-04
9.100000e+08	2.381853e+12	0.000000e+00	3.828572e-01	8.571380e+13	5.034488e+14	2.748008e+14	8.788476e+03	4.354141e+03	2.014340e+03	0	5.489438e-04
9.200000e+08	2.337305e+12	0.000000e+00	3.828572e-01	8.477595e+13	4.994579e+14	2.735461e+14	8.774182e+03	4.350462e+03	2.012638e+03	0	5.454999e-04
9.300000e+08	2.293644e+12	0.000000e+00	3.828572e-01	8.385621e+13	4.955368e+14	2.723000e+14	8.760045e+03	4.346830e+03	2.010957e+03	0	5.420820e-04
9.400000e+08	2.250847e+12	0.000000e+00	3.828572e-01	8.295409e+13	4.916837e+14	2.710624e+14	8.746060e+03	4.343242e+03	2.009298e+03	0	5.386891e-04
9.500000e+08	2.208888e+12	0.000000e+00	3.828572e-01	8.206909e+13	4.878966e+14	2.698332e+14	8.732225e+03	4.339698e+03	2.007658e+03	0	5.353208e-04
9.600000e+08	2.167744e+12	0.000000e+00	3.828572e-01	8.120076e+13	4.841736e+14	2.686125e+14	8.718537e+03	4.336197e+03	2.006038e+03	0	5.319763e-04
9.700000e+08	2.127395e+12	0.000000e+00	3.828572e-01	8.034865e+13	4.805130e+14	2.674000e+14	8.704994e+03	4.332738e+03	2.004438e+03	0	5.286549e-04
9.800000e+08	2.087817e+12	0.000000e+00	3.828572e-01	7.951231e+13	4.769131e+14	2.661958e+14	8.691592e+03	4.329320e+03	2.002857e+03	0	5.253560e-04
9.900000e+08	2.048991e+12	0.000000e+00	3.828572e-01	7.869135e+13	4.733724e+14	2.649997e+14	8.678329e+03	4.325941e+03	2.001294e+03	0	5.220790e-04
1.000000e+09	2.010896e+12	0.000000e+00	3.828572e-01	7.788534e+13	4.698891e+14	2.638118e+14	8.665203e+03	4.322602e+03	1.999749e+03	0	5.188232e-04
1.010000e+09	1.973512e+12	0.000000e+00	3.828572e-01	7.709390e+13	4.664618e+14	2.626320e+14	8.652210e+03	4.319300e+03	1.998221e+03	0	5.155881e-04
1.020000e+09	1.936823e+12	0.000000e+00	3.828572e-01	7.631666e+13	4.630890e+14	2.614601e+14	8.639349e+03	4.316036e+03	1.996711e+03	0	5.123730e-04
1.030000e+09	1.900808e+12	0.000000e+00	3.828572e-01	7.555325e+13	4.597694e+14	2.602962e+14	8.626618e+03	4.312808e+03	1.995218e+03	0	5.091773e-04
1.040000e+09	1.865452e+12	0.000000e+00	3.828572e-01	7.480332e+13	4.565015e+14	2.591401e+14	8.614013e+03	4.309616e+03	1.993741e+03	0	5.060005e-04
1.050000e+09	1.830737e+12	0.000000e+00	3.828572e-01	7.406652e+13	4.532841e+14	2.579919e+14	8.601533e+03	4.306459e+03	1.992281e+03	0	5.028420e-04
1.060000e+09	1.796646e+12	0.000000e+00	3.828572e-01	7.334253e+13	4.501158e+14	2.568514e+14	8.589175e+03	4.303336e+03	1.990836e+03	0	4.997012e-04
1.070000e+09	1.763164e+12	0.000000e+00	3.828572e-01	7.263103e+13	4.469955e+14	2.557185e+14	8.576938e+03	4.300246e+03	1.989407e+03	0	4.965777e-04
1.080000e+09	1.730277e+12	0.000000e+00	3.828572e-01	7.193171e+13	4.439219e+14	2.545933e+14	8.564819e+03	4.297189e+03	1.987992e+03	0	4.934708e-04
1.090000e+09	1.697968e+12	0.000000e+00	3.828572e-01	7.124428e+13	4.408940e+14	2.534757e+14	8.552816e+03	4.294164e+03	1.986593e+03	0	4.903800e-04
1.100000e+09	1.666224e+12	0.000000e+00	3.828572e-01	7.056844e+13	4.379105e+14	2.523656e+14	8.540928e+03	4.291171e+03	1.985208e+03	0	4.873049e-04
1.110000e+09	1.635031e+12	0.000000e+00	3.828572e-01	6.990391e+13	4.349706e+14	2.512629e+14	8.529152e+03	4.288208e+03	1.983837e+03	0	4.842448e-04
1.120000e+09	1.604376e+12	0.000000e+00	3.828572e-01	6.925042e+13	4.320730e+14	2.501676e+14	8.517487e+03	4.285275e+03	1.982480e+03	0	4.811993e-04
1.130000e+09	1.574245e+12	0.000000e+00	3.828572e-01	6.860772e+13	4.292169e+14	2.490796e+14	8.505930e+03	4.282371e+03	1.981137e+03	0	4.781679e-04
1.140000e+09	1.544626e+12	0.000000e+00	3.828572e-01	6.797554e+13	4.264012e+14	2.479989e+14	8.494481e+03	4.279496e+03	1.979807e+03	0	4.751500e-04
1.150000e+09	1.515508e+12	0.000000e+00	3.828572e-01	6.735363e+13	4.236250e+14	2.469254e+14	8.483136e+03	4.276650e+03	1.978490e+03	0	4.721453e-04
1.160000e+09	1.486877e+12	0.000000e+00	3.828572e-01	6.674177e+13	4.208874e+14	2.458591e+14	8.471895e+03	4.273831e+03	1.977186e+03	0	4.691531e-04
1.170000e+09	1.458723e+12	0.000000e+00	3.828572e-01	6.613972e+13	4.181876e+14	2.447999e+14	8.460756e+03	4.271039e+03	1.975895e+03	0	4.661730e-04
1.180000e+09	1.431034e+12	0.000000e+00	3.828572e-01	6.554725e+13	4.155246e+14	2.437477e+14	8.449717e+03	4.268274e+03	1.974615e+03	0	4.632046e-04
1.190000e+09	1.403800e+12	0.000000e+00	3.828572e-01	6.496414e+13	4.128977e+14	2.427025e+14	8.438776e+03	4.265535e+03	1.973348e+03	0	4.602474e-04
1.200000e+09	1.377010e+12	0.000000e+00	3.828572e-01	6.439018e+13	4.103061e+14	2.416643e+14	8.427932e+03	4.262822e+03	1.972093e+03	0	4.573008e-04
1.210000e+09	1.350655e+12	0.000000e+00	3.828572e-01	6.382517e+13	4.077489e+14	2.406329e+14	8.417184e+03	4.260134e+03	1.970849e+03	0	4.543645e-04
1.220000e+09	1.324724e+12	0.000000e+00	3.828572e-01	6.326891e+13	4.052254e+14	2.396084e+14	8.406530e+03	4.257470e+03	1.969617e+03	0	4.514379e-04
1.230000e+09	1.299208e+12	0.000000e+00	3.828572e-01	6.272120e+13	4.027350e+14	2.385906e+14	8.395969e+03	4.254831e+03	1.968396e+03	0	4.485206e-04
1.240000e+09	1.274097e+12	0.000000e+00	3.828572e-01	6.218185e+13	4.002768e+14	2.375796e+14	8.385499e+03	4.252215e+03	1.967186e+03	0	4.456122e-04
1.250000e+09	1.249383e+12	0.000000e+00	3.828572e-01	6.165069e+13	3.978503e+14	2.365753e+14	8.375118e+03	4.249622e+03	1.965987e+03	0	4.427121e-04
1.260000e+09	1.225056e+12	0.000000e+00	3.828572e-01	6.112752e+13	3.954547e+14	2.355776e+14	8.364826e+03	4.247053e+03	1.964798e+03	0	4.398199e-04
1.270000e+09	1.201109e+12	0.000000e+00	3.828572e-01	6.061220e+13	3.930894e+14	2.345864e+14	8.354621e+03	4.244506e+03	1.963620e+03	0	4.369352e-04
1.280000e+09	1.177533e+12	0.000000e+00	3.828572e-01	6.010453e+13	3.907538e+14	2.336018e+14	8.344502e+03	4.241981e+03	1.962451e+03	0	4.340575e-04
1.290000e+09	1.154319e+12	0.000000e+00	3.828572e-01	5.960436e+13	3.884472e+14	2.326236e+14	8.334467e+03	4.239477e+03	1.961293e+03	0	4.311863e-04
1.300000e+09	1.131461e+12	0.000000e+00	3.828572e-01	5.911154e+13	3.861691e+14	2.316519e+14	8.324516e+03	4.236995e+03	1.960145e+03	0	4.283211e-04
1.310000e+09	1.108951e+12	0.000000e+00	3.828572e-01	5.862590e+13	3.839189e+14	2.306865e+14	8.314646e+03	4.234533e+03	1.959006e+03	0	4.254616e-04
1.320000e+09	1.086780e+12	0.000000e+00	3.828572e-01	5.814730e+13	3.816961e+14	2.297275e+14	8.304858e+03	4.232093e+03	1.957877e+03	0	4.226072e-04
1.330000e+09	1.064943e+12	0.000000e+00	3.828572e-01	5.767559e+13	3.795000e+14	2.287747e+14	8.295149e+03	4.229672e+03	1.956757e+03	0	4.197574e-04
1.340000e+09	1.043432e+12	0.000000e+00	3.828572e-01	5.721063e+13	3.773302e+14	2.278281e+14	8.285518e+03	4.227271e+03	1.955646e+03	0	4.169119e-04
1.350000e+09	1.022240e+12	0.000000e+00	3.828572e-01	5.675228e+13	3.751862e+14	2.268878e+14	8.275965e+03	4.224889e+03	1.954545e+03	0	4.140701e-04
1.360000e+09	1.001361e+12	0.000000e+00	3.828572e-01	5.630040e+13	3.730674e+14	2.259535e+14	8.266489e+03	4.222527e+03	1.953452e+03	0	4.112316e-04
