#t		Qconv[W]	Ri[Rp]		R*[Rp]		Qc[W]		Qm[W]		Qr[W]		Tcmb[K]		Tl[K]		Tup[K]		RiFlag		Bs[T]
0.000000e+00	2.414905e+13	0.000000e+00	3.714286e-01	5.205283e+14	3.124803e+15	5.517909e+14	1.330994e+04	6.033182e+03	2.701149e+03	0	1.207730e-03
1.000000e+07	2.317095e+13	0.000000e+00	3.714286e-01	5.026335e+14	2.978832e+15	5.487336e+14	1.323869e+04	5.991523e+03	2.682497e+03	0	1.191200e-03
2.000000e+07	2.225330e+13	0.000000e+00	3.714286e-01	4.858309e+14	2.845957e+15	5.456991e+14	1.316987e+04	5.952359e+03	2.664963e+03	0	1.175262e-03
3.000000e+07	2.139083e+13	0.000000e+00	3.714286e-01	4.700262e+14	2.724548e+15	5.426874e+14	1.310332e+04	5.915454e+03	2.648440e+03	0	1.159878e-03
4.000000e+07	2.057887e+13	0.000000e+00	3.714286e-01	4.551351e+14	2.613229e+15	5.396981e+14	1.303892e+04	5.880603e+03	2.632837e+03	0	1.145013e-03
5.000000e+07	1.981326e+13	0.000000e+00	3.714286e-01	4.410828e+14	2.510828e+15	5.367311e+14	1.297654e+04	5.847626e+03	2.618072e+03	0	1.130634e-03
6.000000e+07	1.909028e+13	0.000000e+00	3.714286e-01	4.278021e+14	2.416347e+15	5.337862e+14	1.291606e+04	5.816363e+03	2.604075e+03	0	1.116711e-03
7.000000e+07	1.840657e+13	0.000000e+00	3.714286e-01	4.152328e+14	2.328926e+15	5.308632e+14	1.285739e+04	5.786672e+03	2.590782e+03	0	1.103217e-03
8.000000e+07	1.775913e+13	0.000000e+00	3.714286e-01	4.033207e+14	2.247824e+15	5.279620e+14	1.280043e+04	5.758429e+03	2.578138e+03	0	1.090127e-03
9.000000e+07	1.714524e+13	0.000000e+00	3.714286e-01	3.920169e+14	2.172396e+15	5.250823e+14	1.274508e+04	5.731522e+03	2.566091e+03	0	1.077419e-03
1.000000e+08	1.656246e+13	0.000000e+00	3.714286e-01	3.812772e+14	2.102081e+15	5.222241e+14	1.269128e+04	5.705850e+03	2.554597e+03	0	1.065070e-03
1.100000e+08	1.600856e+13	0.000000e+00	3.714286e-01	3.710615e+14	2.036390e+15	5.193870e+14	1.263893e+04	5.681323e+03	2.543616e+03	0	1.053062e-03
1.200000e+08	1.548152e+13	0.000000e+00	3.714286e-01	3.613334e+14	1.974889e+15	5.165710e+14	1.258798e+04	5.657859e+03	2.533111e+03	0	1.041377e-03
1.300000e+08	1.497950e+13	0.000000e+00	3.714286e-01	3.520597e+14	1.917200e+15	5.137758e+14	1.253835e+04	5.635386e+03	2.523049e+03	0	1.029997e-03
1.400000e+08	1.450083e+13	0.000000e+00	3.714286e-01	3.432102e+14	1.862984e+15	5.110013e+14	1.248999e+04	5.613836e+03	2.513401e+03	0	1.018906e-03
1.500000e+08	1.404398e+13	0.000000e+00	3.714286e-01	3.347571e+14	1.811944e+15	5.082474e+14	1.244283e+04	5.593149e+03	2.504139e+03	0	1.008092e-03
1.600000e+08	1.360753e+13	0.000000e+00	3.714286e-01	3.266752e+14	1.763813e+15	5.055137e+14	1.239682e+04	5.573270e+03	2.495239e+03	0	9.975386e-04
1.700000e+08	1.319021e+13	0.000000e+00	3.714286e-01	3.189413e+14	1.718352e+15	5.028003e+14	1.235192e+04	5.554147e+03	2.486677e+03	0	9.872349e-04
1.800000e+08	1.279083e+13	0.000000e+00	3.714286e-01	3.115338e+14	1.675350e+15	5.001068e+14	1.230807e+04	5.535735e+03	2.478434e+03	0	9.771686e-04
1.900000e+08	1.240830e+13	0.000000e+00	3.714286e-01	3.044332e+14	1.634614e+15	4.974332e+14	1.226523e+04	5.517992e+03	2.470490e+03	0	9.673286e-04
2.000000e+08	1.204162e+13	0.000000e+00	3.714286e-01	2.976212e+14	1.595972e+15	4.947792e+14	1.222336e+04	5.500877e+03	2.462828e+03	0	9.577046e-04
2.100000e+08	1.168986e+13	0.000000e+00	3.714286e-01	2.910812e+14	1.559269e+15	4.921448e+14	1.218242e+04	5.484357e+03	2.455431e+03	0	9.482868e-04
2.200000e+08	1.135216e+13	0.000000e+00	3.714286e-01	2.847976e+14	1.524362e+15	4.895297e+14	1.214237e+04	5.468396e+03	2.448285e+03	0	9.390661e-04
2.300000e+08	1.102774e+13	0.000000e+00	3.714286e-01	2.787561e+14	1.491125e+15	4.869338e+14	1.210319e+04	5.452965e+03	2.441377e+03	0	9.300339e-04
2.400000e+08	1.071585e+13	0.000000e+00	3.714286e-01	2.729432e+14	1.459442e+15	4.843570e+14	1.206483e+04	5.438035e+03	2.434692e+03	0	9.211820e-04
2.500000e+08	1.041581e+13	0.000000e+00	3.714286e-01	2.673467e+14	1.429205e+15	4.817990e+14	1.202726e+04	5.423580e+03	2.428220e+03	0	9.125029e-04
2.600000e+08	1.012698e+13	0.000000e+00	3.714286e-01	2.619551e+14	1.400320e+15	4.792597e+14	1.199046e+04	5.409574e+03	2.421950e+03	0	9.039892e-04
2.700000e+08	9.848777e+12	0.000000e+00	3.714286e-01	2.567575e+14	1.372697e+15	4.767390e+14	1.195439e+04	5.395997e+03	2.415871e+03	0	8.956343e-04
2.800000e+08	9.580645e+12	0.000000e+00	3.714286e-01	2.517441e+14	1.346256e+15	4.742367e+14	1.191904e+04	5.382825e+03	2.409974e+03	0	8.874315e-04
2.900000e+08	9.322070e+12	0.000000e+00	3.714286e-01	2.469054e+14	1.320922e+15	4.717527e+14	1.188437e+04	5.370040e+03	2.404250e+03	0	8.793749e-04
3.000000e+08	9.072571e+12	0.000000e+00	3.714286e-01	2.422328e+14	1.296626e+15	4.692868e+14	1.185037e+04	5.357623e+03	2.398691e+03	0	8.714585e-04
3.100000e+08	8.831697e+12	0.000000e+00	3.714286e-01	2.377181e+14	1.273307e+15	4.668388e+14	1.181700e+04	5.345557e+03	2.393288e+03	0	8.636769e-04
3.200000e+08	8.599029e+12	0.000000e+00	3.714286e-01	2.333536e+14	1.250906e+15	4.644087e+14	1.178425e+04	5.333824e+03	2.388036e+03	0	8.560249e-04
3.300000e+08	8.374172e+12	0.000000e+00	3.714286e-01	2.291323e+14	1.229370e+15	4.619962e+14	1.175210e+04	5.322411e+03	2.382926e+03	0	8.484975e-04
3.400000e+08	8.156755e+12	0.000000e+00	3.714286e-01	2.250473e+14	1.208649e+15	4.596012e+14	1.172053e+04	5.311303e+03	2.377952e+03	0	8.410899e-04
3.500000e+08	7.946431e+12	0.000000e+00	3.714286e-01	2.210923e+14	1.188697e+15	4.572237e+14	1.168952e+04	5.300486e+03	2.373109e+03	0	8.337976e-04
3.600000e+08	7.742874e+12	0.000000e+00	3.714286e-01	2.172616e+14	1.169471e+15	4.548633e+14	1.165905e+04	5.289948e+03	2.368391e+03	0	8.266163e-04
3.700000e+08	7.545776e+12	0.000000e+00	3.714286e-01	2.135493e+14	1.150933e+15	4.525201e+14	1.162910e+04	5.279676e+03	2.363793e+03	0	8.195420e-04
3.800000e+08	7.354848e+12	0.000000e+00	3.714286e-01	2.099504e+14	1.133046e+15	4.501938e+14	1.159967e+04	5.269661e+03	2.359308e+03	0	8.125707e-04
3.900000e+08	7.169817e+12	0.000000e+00	3.714286e-01	2.064597e+14	1.115775e+15	4.478843e+14	1.157072e+04	5.259890e+03	2.354934e+03	0	8.056986e-04
4.000000e+08	6.990427e+12	0.000000e+00	3.714286e-01	2.030728e+14	1.099088e+15	4.455915e+14	1.154226e+04	5.250355e+03	2.350665e+03	0	7.989222e-04
4.100000e+08	6.816435e+12	0.000000e+00	3.714286e-01	1.997850e+14	1.082956e+15	4.433152e+14	1.151426e+04	5.241045e+03	2.346497e+03	0	7.922381e-04
4.200000e+08	6.647612e+12	0.000000e+00	3.714286e-01	1.965924e+14	1.067350e+15	4.410554e+14	1.148671e+04	5.231951e+03	2.342425e+03	0	7.856428e-04
4.300000e+08	6.483741e+12	0.000000e+00	3.714286e-01	1.934909e+14	1.052246e+15	4.388118e+14	1.145960e+04	5.223066e+03	2.338447e+03	0	7.791334e-04
4.400000e+08	6.324617e+12	0.000000e+00	3.714286e-01	1.904768e+14	1.037619e+15	4.365844e+14	1.143291e+04	5.214382e+03	2.334559e+03	0	7.727067e-04
4.500000e+08	6.170046e+12	0.000000e+00	3.714286e-01	1.875465e+14	1.023445e+15	4.343729e+14	1.140664e+04	5.205889e+03	2.330757e+03	0	7.663598e-04
4.600000e+08	6.019845e+12	0.000000e+00	3.714286e-01	1.846967e+14	1.009704e+15	4.321774e+14	1.138077e+04	5.197583e+03	2.327038e+03	0	7.600900e-04
4.700000e+08	5.873839e+12	0.000000e+00	3.714286e-01	1.819243e+14	9.963752e+14	4.299976e+14	1.135529e+04	5.189454e+03	2.323399e+03	0	7.538946e-04
4.800000e+08	5.731863e+12	0.000000e+00	3.714286e-01	1.792263e+14	9.834401e+14	4.278334e+14	1.133019e+04	5.181498e+03	2.319837e+03	0	7.477709e-04
4.900000e+08	5.593761e+12	0.000000e+00	3.714286e-01	1.765996e+14	9.708810e+14	4.256847e+14	1.130546e+04	5.173708e+03	2.316349e+03	0	7.417164e-04
5.000000e+08	5.459382e+12	0.000000e+00	3.714286e-01	1.740418e+14	9.586810e+14	4.235513e+14	1.128110e+04	5.166077e+03	2.312932e+03	0	7.357288e-04
5.100000e+08	5.328587e+12	0.000000e+00	3.714286e-01	1.715501e+14	9.468245e+14	4.214332e+14	1.125708e+04	5.158601e+03	2.309585e+03	0	7.298057e-04
5.200000e+08	5.201239e+12	0.000000e+00	3.714286e-01	1.691220e+14	9.352967e+14	4.193303e+14	1.123341e+04	5.151273e+03	2.306305e+03	0	7.239449e-04
5.300000e+08	5.077212e+12	0.000000e+00	3.714286e-01	1.667554e+14	9.240835e+14	4.172423e+14	1.121007e+04	5.144090e+03	2.303088e+03	0	7.181442e-04
5.400000e+08	4.956382e+12	0.000000e+00	3.714286e-01	1.644479e+14	9.131718e+14	4.151692e+14	1.118705e+04	5.137045e+03	2.299934e+03	0	7.124015e-04
5.500000e+08	4.838634e+12	0.000000e+00	3.714286e-01	1.621974e+14	9.025491e+14	4.131108e+14	1.116435e+04	5.130135e+03	2.296841e+03	0	7.067148e-04
5.600000e+08	4.723857e+12	0.000000e+00	3.714286e-01	1.600019e+14	8.922035e+14	4.110671e+14	1.114196e+04	5.123354e+03	2.293805e+03	0	7.010821e-04
5.700000e+08	4.611946e+12	0.000000e+00	3.714286e-01	1.578595e+14	8.821239e+14	4.090379e+14	1.111988e+04	5.116700e+03	2.290825e+03	0	6.955014e-04
5.800000e+08	4.502799e+12	0.000000e+00	3.714286e-01	1.557682e+14	8.722997e+14	4.070231e+14	1.109808e+04	5.110166e+03	2.287900e+03	0	6.899709e-04
5.900000e+08	4.396321e+12	0.000000e+00	3.714286e-01	1.537265e+14	8.627208e+14	4.050226e+14	1.107658e+04	5.103751e+03	2.285028e+03	0	6.844889e-04
6.000000e+08	4.292419e+12	0.000000e+00	3.714286e-01	1.517325e+14	8.533778e+14	4.030362e+14	1.105535e+04	5.097449e+03	2.282207e+03	0	6.790535e-04
6.100000e+08	4.191006e+12	0.000000e+00	3.714286e-01	1.497846e+14	8.442616e+14	4.010639e+14	1.103440e+04	5.091258e+03	2.279435e+03	0	6.736630e-04
6.200000e+08	4.091998e+12	0.000000e+00	3.714286e-01	1.478814e+14	8.353636e+14	3.991055e+14	1.101372e+04	5.085174e+03	2.276711e+03	0	6.683158e-04
6.300000e+08	3.995315e+12	0.000000e+00	3.714286e-01	1.460214e+14	8.266756e+14	3.971609e+14	1.099330e+04	5.079193e+03	2.274033e+03	0	6.630103e-04
6.400000e+08	3.900879e+12	0.000000e+00	3.714286e-01	1.442031e+14	8.181900e+14	3.952301e+14	1.097313e+04	5.073313e+03	2.271401e+03	0	6.577448e-04
6.500000e+08	3.808617e+12	0.000000e+00	3.714286e-01	1.424252e+14	8.098993e+14	3.933129e+14	1.095321e+04	5.067531e+03	2.268812e+03	0	6.525178e-04
6.600000e+08	3.718460e+12	0.000000e+00	3.714286e-01	1.406864e+14	8.017966e+14	3.914091e+14	1.093354e+04	5.061843e+03	2.266265e+03	0	6.473279e-04
6.700000e+08	3.630338e+12	0.000000e+00	3.714286e-01	1.389855e+14	7.938751e+14	3.895187e+14	1.091411e+04	5.056247e+03	2.263760e+03	0	6.421734e-04
6.800000e+08	3.544189e+12	0.000000e+00	3.714286e-01	1.373213e+14	7.861284e+14	3.876416e+14	1.089491e+04	5.050741e+03	2.261295e+03	0	6.370530e-04
6.900000e+08	3.459948e+12	0.000000e+00	3.714286e-01	1.356926e+14	7.785506e+14	3.857777e+14	1.087594e+04	5.045321e+03	2.258868e+03	0	6.319652e-04
7.000000e+08	3.377558e+12	0.000000e+00	3.714286e-01	1.340984e+14	7.711357e+14	3.839269e+14	1.085720e+04	5.039985e+03	2.256479e+03	0	6.269086e-04
7.100000e+08	3.296961e+12	0.000000e+00	3.714286e-01	1.325376e+14	7.638783e+14	3.820890e+14	1.083867e+04	5.034731e+03	2.254127e+03	0	6.218818e-04
7.200000e+08	3.218102e+12	0.000000e+00	3.714286e-01	1.310092e+14	7.567730e+14	3.802639e+14	1.082036e+04	5.029557e+03	2.251810e+03	0	6.168836e-04
7.300000e+08	3.140928e+12	0.000000e+00	3.714286e-01	1.295123e+14	7.498149e+14	3.784516e+14	1.080226e+04	5.024460e+03	2.249528e+03	0	6.119124e-04
7.400000e+08	3.065389e+12	0.000000e+00	3.714286e-01	1.280458e+14	7.429990e+14	3.766520e+14	1.078437e+04	5.019438e+03	2.247280e+03	0	6.069671e-04
7.500000e+08	2.991436e+12	0.000000e+00	3.714286e-01	1.266089e+14	7.363209e+14	3.748649e+14	1.076668e+04	5.014490e+03	2.245065e+03	0	6.020462e-04
7.600000e+08	2.919022e+12	0.000000e+00	3.714286e-01	1.252008e+14	7.297760e+14	3.730903e+14	1.074918e+04	5.009613e+03	2.242881e+03	0	5.971486e-04
7.700000e+08	2.848103e+12	0.000000e+00	3.714286e-01	1.238206e+14	7.233601e+14	3.713280e+14	1.073188e+04	5.004805e+03	2.240728e+03	0	5.922729e-04
7.800000e+08	2.778635e+12	0.000000e+00	3.714286e-01	1.224675e+14	7.170692e+14	3.695779e+14	1.071477e+04	5.000065e+03	2.238606e+03	0	5.874178e-04
7.900000e+08	2.710576e+12	0.000000e+00	3.714286e-01	1.211408e+14	7.108993e+14	3.678400e+14	1.069784e+04	4.995390e+03	2.236513e+03	0	5.825821e-04
8.000000e+08	2.643886e+12	0.000000e+00	3.714286e-01	1.198397e+14	7.048469e+14	3.661142e+14	1.068110e+04	4.990780e+03	2.234449e+03	0	5.777645e-04
8.100000e+08	2.578527e+12	0.000000e+00	3.714286e-01	1.185635e+14	6.989083e+14	3.644003e+14	1.066454e+04	4.986232e+03	2.232413e+03	0	5.729638e-04
8.200000e+08	2.514461e+12	0.000000e+00	3.714286e-01	1.173115e+14	6.930800e+14	3.626983e+14	1.064815e+04	4.981745e+03	2.230404e+03	0	5.681786e-04
8.300000e+08	2.451652e+12	0.000000e+00	3.714286e-01	1.160831e+14	6.873589e+14	3.610080e+14	1.063194e+04	4.977317e+03	2.228422e+03	0	5.634079e-04
8.400000e+08	2.390067e+12	0.000000e+00	3.714286e-01	1.148776e+14	6.817416e+14	3.593294e+14	1.061589e+04	4.972947e+03	2.226465e+03	0	5.586502e-04
8.500000e+08	2.329670e+12	0.000000e+00	3.714286e-01	1.136943e+14	6.762253e+14	3.576625e+14	1.060001e+04	4.968634e+03	2.224534e+03	0	5.539043e-04
8.600000e+08	2.270431e+12	0.000000e+00	3.714286e-01	1.125328e+14	6.708070e+14	3.560069e+14	1.058430e+04	4.964375e+03	2.222628e+03	0	5.491690e-04
8.700000e+08	2.212318e+12	0.000000e+00	3.714286e-01	1.113925e+14	6.654839e+14	3.543628e+14	1.056874e+04	4.960171e+03	2.220745e+03	0	5.444430e-04
8.800000e+08	2.155301e+12	0.000000e+00	3.714286e-01	1.102727e+14	6.602533e+14	3.527300e+14	1.055334e+04	4.956019e+03	2.218886e+03	0	5.397250e-04
8.900000e+08	2.099350e+12	0.000000e+00	3.714286e-01	1.091729e+14	6.551127e+14	3.511085e+14	1.053810e+04	4.951918e+03	2.217050e+03	0	5.350137e-04
9.000000e+08	2.044440e+12	0.000000e+00	3.714286e-01	1.080927e+14	6.500594e+14	3.494980e+14	1.052300e+04	4.947867e+03	2.215236e+03	0	5.303078e-04
9.100000e+08	1.990541e+12	0.000000e+00	3.714286e-01	1.070315e+14	6.450912e+14	3.478986e+14	1.050806e+04	4.943865e+03	2.213445e+03	0	5.256060e-04
9.200000e+08	1.937628e+12	0.000000e+00	3.714286e-01	1.059889e+14	6.402058e+14	3.463101e+14	1.049326e+04	4.939910e+03	2.211674e+03	0	5.209068e-04
9.300000e+08	1.885676e+12	0.000000e+00	3.714286e-01	1.049643e+14	6.354008e+14	3.447325e+14	1.047860e+04	4.936002e+03	2.209924e+03	0	5.162091e-04
9.400000e+08	1.834660e+12	0.000000e+00	3.714286e-01	1.039574e+14	6.306741e+14	3.431657e+14	1.046409e+04	4.932140e+03	2.208195e+03	0	5.115112e-04
9.500000e+08	1.784557e+12	0.000000e+00	3.714286e-01	1.029676e+14	6.260238e+14	3.416096e+14	1.044972e+04	4.928322e+03	2.206486e+03	0	5.068118e-04
9.600000e+08	1.735344e+12	0.000000e+00	3.714286e-01	1.019946e+14	6.214477e+14	3.400641e+14	1.043548e+04	4.924548e+03	2.204796e+03	0	5.021095e-04
9.700000e+08	1.686998e+12	0.000000e+00	3.714286e-01	1.010380e+14	6.169440e+14	3.385291e+14	1.042137e+04	4.920816e+03	2.203125e+03	0	4.974027e-04
9.800000e+08	1.639499e+12	0.000000e+00	3.714286e-01	1.000974e+14	6.125109e+14	3.370046e+14	1.040740e+04	4.917126e+03	2.201473e+03	0	4.926899e-04
9.900000e+08	1.592825e+12	0.000000e+00	3.714286e-01	9.917228e+13	6.081464e+14	3.354904e+14	1.039356e+04	4.913476e+03	2.199839e+03	0	4.879695e-04
1.000000e+09	1.546957e+12	0.000000e+00	3.714286e-01	9.826241e+13	6.038490e+14	3.339865e+14	1.037984e+04	4.909867e+03	2.198223e+03	0	4.832398e-04
1.010000e+09	1.501875e+12	0.000000e+00	3.714286e-01	9.736739e+13	5.996169e+14	3.324928e+14	1.036625e+04	4.906296e+03	2.196625e+03	0	4.784992e-04
1.020000e+09	1.457561e+12	0.000000e+00	3.714286e-01	9.648686e+13	5.954485e+14	3.310092e+14	1.035279e+04	4.902764e+03	2.195043e+03	0	4.737459e-04
1.030000e+09	1.413995e+12	0.000000e+00	3.714286e-01	9.562049e+13	5.913422e+14	3.295357e+14	1.033944e+04	4.899268e+03	2.193478e+03	0	4.689781e-04
1.040000e+09	1.371161e+12	0.000000e+00	3.714286e-01	9.476795e+13	5.872966e+14	3.280721e+14	1.032622e+04	4.895810e+03	2.191930e+03	0	4.641939e-04
1.050000e+09	1.329041e+12	0.000000e+00	3.714286e-01	9.392893e+13	5.833102e+14	3.266184e+14	1.031311e+04	4.892387e+03	2.190397e+03	0	4.593912e-04
1.060000e+09	1.287618e+12	0.000000e+00	3.714286e-01	9.310312e+13	5.793816e+14	3.251745e+14	1.030012e+04	4.888999e+03	2.188880e+03	0	4.545681e-04
1.070000e+09	1.246877e+12	0.000000e+00	3.714286e-01	9.229020e+13	5.755093e+14	3.237404e+14	1.028724e+04	4.885645e+03	2.187379e+03	0	4.497224e-04
1.080000e+09	1.206802e+12	0.000000e+00	3.714286e-01	9.148991e+13	5.716922e+14	3.223159e+14	1.027447e+04	4.882326e+03	2.185893e+03	0	4.448518e-04
1.090000e+09	1.167378e+12	0.000000e+00	3.714286e-01	9.070195e+13	5.679289e+14	3.209009e+14	1.026182e+04	4.879039e+03	2.184421e+03	0	4.399538e-04
1.100000e+09	1.128589e+12	0.000000e+00	3.714286e-01	8.992604e+13	5.642182e+14	3.194955e+14	1.024927e+04	4.875784e+03	2.182964e+03	0	4.350260e-04
1.110000e+09	1.090422e+12	0.000000e+00	3.714286e-01	8.916193e+13	5.605589e+14	3.180995e+14	1.023683e+04	4.872561e+03	2.181521e+03	0	4.300657e-04
1.120000e+09	1.052863e+12	0.000000e+00	3.714286e-01	8.840936e+13	5.569499e+14	3.167128e+14	1.022449e+04	4.869369e+03	2.180092e+03	0	4.250701e-04
1.130000e+09	1.015898e+12	0.000000e+00	3.714286e-01	8.766807e+13	5.533899e+14	3.153354e+14	1.021226e+04	4.866208e+03	2.178676e+03	0	4.200362e-04
1.140000e+09	9.795146e+11	0.000000e+00	3.714286e-01	8.693782e+13	5.498779e+14	3.139673e+14	1.020013e+04	4.863076e+03	2.177274e+03	0	4.149606e-04
1.150000e+09	9.436992e+11	0.000000e+00	3.714286e-01	8.621838e+13	5.464129e+14	3.126082e+14	1.018810e+04	4.859974e+03	2.175885e+03	0	4.098401e-04
1.160000e+09	9.084400e+11	0.000000e+00	3.714286e-01	8.550951e+13	5.429939e+14	3.112583e+14	1.017618e+04	4.856900e+03	2.174509e+03	0	4.046709e-04
1.170000e+09	8.737248e+11	0.000000e+00	3.714286e-01	8.481099e+13	5.396198e+14	3.099173e+14	1.016435e+04	4.853855e+03	2.173146e+03	0	3.994491e-04
1.180000e+09	8.395419e+11	0.000000e+00	3.714286e-01	8.412260e+13	5.362896e+14	3.085852e+14	1.015261e+04	4.850837e+03	2.171794e+03	0	3.941704e-04
1.190000e+09	8.058800e+11	0.000000e+00	3.714286e-01	8.344413e+13	5.330025e+14	3.072620e+14	1.014097e+04	4.847846e+03	2.170455e+03	0	3.888303e-04
1.200000e+09	7.727282e+11	0.000000e+00	3.714286e-01	8.277538e+13	5.297576e+14	3.059476e+14	1.012942e+04	4.844882e+03	2.169128e+03	0	3.834236e-04
1.210000e+09	7.400755e+11	0.000000e+00	3.714286e-01	8.211614e+13	5.265539e+14	3.046419e+14	1.011797e+04	4.841944e+03	2.167813e+03	0	3.779450e-04
1.220000e+09	7.079116e+11	0.000000e+00	3.714286e-01	8.146622e+13	5.233906e+14	3.033449e+14	1.010661e+04	4.839032e+03	2.166509e+03	0	3.723885e-04
1.230000e+09	6.762263e+11	0.000000e+00	3.714286e-01	8.082543e+13	5.202669e+14	3.020564e+14	1.009534e+04	4.836145e+03	2.165217e+03	0	3.667476e-04
1.240000e+09	6.450097e+11	0.000000e+00	3.714286e-01	8.019359e+13	5.171820e+14	3.007764e+14	1.008415e+04	4.833282e+03	2.163935e+03	0	3.610151e-04
1.250000e+09	6.142521e+11	0.000000e+00	3.714286e-01	7.957051e+13	5.141350e+14	2.995049e+14	1.007305e+04	4.830444e+03	2.162664e+03	0	3.551830e-04
1.260000e+09	5.839443e+11	0.000000e+00	3.714286e-01	7.895602e+13	5.111253e+14	2.982418e+14	1.006204e+04	4.827630e+03	2.161405e+03	0	3.492425e-04
1.270000e+09	5.540771e+11	0.000000e+00	3.714286e-01	7.834995e+13	5.081520e+14	2.969870e+14	1.005112e+04	4.824840e+03	2.160155e+03	0	3.431837e-04
1.280000e+09	5.246415e+11	0.000000e+00	3.714286e-01	7.775214e+13	5.052145e+14	2.957405e+14	1.004027e+04	4.822072e+03	2.158916e+03	0	3.369955e-04
1.290000e+09	4.956289e+11	0.000000e+00	3.714286e-01	7.716241e+13	5.023121e+14	2.945021e+14	1.002951e+04	4.819327e+03	2.157687e+03	0	3.306654e-04
1.300000e+09	4.670310e+11	0.000000e+00	3.714286e-01	7.658062e+13	4.994440e+14	2.932719e+14	1.001883e+04	4.816604e+03	2.156468e+03	0	3.241792e-04
1.310000e+09	4.388394e+11	0.000000e+00	3.714286e-01	7.600662e+13	4.966096e+14	2.920497e+14	1.000823e+04	4.813904e+03	2.155259e+03	0	3.175205e-04
1.320000e+09	4.110462e+11	0.000000e+00	3.714286e-01	7.544024e+13	4.938083e+14	2.908356e+14	9.997714e+03	4.811224e+03	2.154059e+03	0	3.106706e-04
1.330000e+09	3.836436e+11	0.000000e+00	3.714286e-01	7.488134e+13	4.910395e+14	2.896294e+14	9.987273e+03	4.808566e+03	2.152869e+03	0	3.036076e-04
1.340000e+09	3.566239e+11	0.000000e+00	3.714286e-01	7.432979e+13	4.883025e+14	2.884310e+14	9.976909e+03	4.805929e+03	2.151689e+03	0	2.963058e-04
1.350000e+09	3.299798e+11	0.000000e+00	3.714286e-01	7.378545e+13	4.855967e+14	2.872405e+14	9.966621e+03	4.803312e+03	2.150517e+03	0	2.887348e-04
1.360000e+09	3.037040e+11	0.000000e+00	3.714286e-01	7.324817e+13	4.829216e+14	2.860578e+14	9.956408e+03	4.800715e+03	2.149354e+03	0	2.808580e-04
