#t		Qconv[W]	Ri[Rp]		R*[Rp]		Qc[W]		Qm[W]		Qr[W]		Tcmb[K]		Tl[K]		Tup[K]		RiFlag		Bs[T]
0.000000e+00	3.254467e+13	0.000000e+00	3.714287e-01	6.570051e+14	3.197131e+15	6.259196e+14	1.458873e+04	6.442456e+03	2.758393e+03	0	1.326257e-03
1.000000e+07	3.125765e+13	0.000000e+00	3.714287e-01	6.354642e+14	3.072708e+15	6.224515e+14	1.451119e+04	6.407465e+03	2.743411e+03	0	1.308538e-03
2.000000e+07	3.004546e+13	0.000000e+00	3.714287e-01	6.151582e+14	2.957826e+15	6.190094e+14	1.443617e+04	6.374265e+03	2.729196e+03	0	1.291399e-03
3.000000e+07	2.890204e+13	0.000000e+00	3.714287e-01	5.959874e+14	2.851455e+15	6.155930e+14	1.436352e+04	6.342707e+03	2.715684e+03	0	1.274805e-03
4.000000e+07	2.782193e+13	0.000000e+00	3.714287e-01	5.778622e+14	2.752704e+15	6.122021e+14	1.429311e+04	6.312661e+03	2.702820e+03	0	1.258722e-03
5.000000e+07	2.680023e+13	0.000000e+00	3.714287e-01	5.607022e+14	2.660801e+15	6.088365e+14	1.422483e+04	6.284011e+03	2.690553e+03	0	1.243122e-03
6.000000e+07	2.583254e+13	0.000000e+00	3.714287e-01	5.444350e+14	2.575073e+15	6.054960e+14	1.415855e+04	6.256652e+03	2.678839e+03	0	1.227976e-03
7.000000e+07	2.491485e+13	0.000000e+00	3.714287e-01	5.289949e+14	2.494930e+15	6.021804e+14	1.409418e+04	6.230490e+03	2.667638e+03	0	1.213259e-03
8.000000e+07	2.404355e+13	0.000000e+00	3.714287e-01	5.143225e+14	2.419853e+15	5.988894e+14	1.403162e+04	6.205441e+03	2.656913e+03	0	1.198948e-03
9.000000e+07	2.321537e+13	0.000000e+00	3.714287e-01	5.003639e+14	2.349386e+15	5.956229e+14	1.397078e+04	6.181427e+03	2.646631e+03	0	1.185021e-03
1.000000e+08	2.242733e+13	0.000000e+00	3.714287e-01	4.870701e+14	2.283124e+15	5.923806e+14	1.391157e+04	6.158380e+03	2.636763e+03	0	1.171458e-03
1.100000e+08	2.167669e+13	0.000000e+00	3.714287e-01	4.743962e+14	2.220706e+15	5.891625e+14	1.385393e+04	6.136236e+03	2.627282e+03	0	1.158240e-03
1.200000e+08	2.096098e+13	0.000000e+00	3.714287e-01	4.623014e+14	2.161813e+15	5.859681e+14	1.379777e+04	6.114939e+03	2.618164e+03	0	1.145350e-03
1.300000e+08	2.027792e+13	0.000000e+00	3.714287e-01	4.507483e+14	2.106158e+15	5.827974e+14	1.374303e+04	6.094434e+03	2.609384e+03	0	1.132771e-03
1.400000e+08	1.962543e+13	0.000000e+00	3.714287e-01	4.397025e+14	2.053485e+15	5.796502e+14	1.368965e+04	6.074675e+03	2.600924e+03	0	1.120488e-03
1.500000e+08	1.900160e+13	0.000000e+00	3.714287e-01	4.291324e+14	2.003561e+15	5.765263e+14	1.363757e+04	6.055616e+03	2.592764e+03	0	1.108488e-03
1.600000e+08	1.840465e+13	0.000000e+00	3.714287e-01	4.190092e+14	1.956181e+15	5.734254e+14	1.358673e+04	6.037219e+03	2.584887e+03	0	1.096756e-03
1.700000e+08	1.783298e+13	0.000000e+00	3.714287e-01	4.093059e+14	1.911155e+15	5.703474e+14	1.353708e+04	6.019444e+03	2.577277e+03	0	1.085281e-03
1.800000e+08	1.728509e+13	0.000000e+00	3.714287e-01	3.999979e+14	1.868313e+15	5.672921e+14	1.348857e+04	6.002257e+03	2.569918e+03	0	1.074051e-03
1.900000e+08	1.675958e+13	0.000000e+00	3.714287e-01	3.910625e+14	1.827502e+15	5.642593e+14	1.344116e+04	5.985627e+03	2.562798e+03	0	1.063054e-03
2.000000e+08	1.625519e+13	0.000000e+00	3.714287e-01	3.824783e+14	1.788581e+15	5.612488e+14	1.339480e+04	5.969524e+03	2.555903e+03	0	1.052281e-03
2.100000e+08	1.577072e+13	0.000000e+00	3.714287e-01	3.742260e+14	1.751422e+15	5.582605e+14	1.334944e+04	5.953921e+03	2.549222e+03	0	1.041721e-03
2.200000e+08	1.530507e+13	0.000000e+00	3.714287e-01	3.662872e+14	1.715908e+15	5.552941e+14	1.330506e+04	5.938791e+03	2.542745e+03	0	1.031366e-03
2.300000e+08	1.485721e+13	0.000000e+00	3.714287e-01	3.586451e+14	1.681932e+15	5.523494e+14	1.326162e+04	5.924112e+03	2.536459e+03	0	1.021206e-03
2.400000e+08	1.442621e+13	0.000000e+00	3.714287e-01	3.512839e+14	1.649397e+15	5.494264e+14	1.321907e+04	5.909861e+03	2.530358e+03	0	1.011234e-03
2.500000e+08	1.401116e+13	0.000000e+00	3.714287e-01	3.441890e+14	1.618212e+15	5.465248e+14	1.317740e+04	5.896017e+03	2.524430e+03	0	1.001442e-03
2.600000e+08	1.361125e+13	0.000000e+00	3.714287e-01	3.373467e+14	1.588296e+15	5.436444e+14	1.313655e+04	5.882561e+03	2.518669e+03	0	9.918215e-04
2.700000e+08	1.322569e+13	0.000000e+00	3.714287e-01	3.307442e+14	1.559571e+15	5.407850e+14	1.309652e+04	5.869476e+03	2.513066e+03	0	9.823668e-04
2.800000e+08	1.285377e+13	0.000000e+00	3.714287e-01	3.243696e+14	1.531967e+15	5.379466e+14	1.305726e+04	5.856743e+03	2.507615e+03	0	9.730708e-04
2.900000e+08	1.249482e+13	0.000000e+00	3.714287e-01	3.182117e+14	1.505420e+15	5.351288e+14	1.301876e+04	5.844348e+03	2.502308e+03	0	9.639272e-04
3.000000e+08	1.214820e+13	0.000000e+00	3.714287e-01	3.122600e+14	1.479870e+15	5.323316e+14	1.298098e+04	5.832275e+03	2.497139e+03	0	9.549299e-04
3.100000e+08	1.181331e+13	0.000000e+00	3.714287e-01	3.065048e+14	1.455260e+15	5.295548e+14	1.294391e+04	5.820510e+03	2.492102e+03	0	9.460733e-04
3.200000e+08	1.148961e+13	0.000000e+00	3.714287e-01	3.009367e+14	1.431540e+15	5.267982e+14	1.290751e+04	5.809041e+03	2.487191e+03	0	9.373518e-04
3.300000e+08	1.117656e+13	0.000000e+00	3.714287e-01	2.955472e+14	1.408661e+15	5.240616e+14	1.287177e+04	5.797854e+03	2.482401e+03	0	9.287603e-04
3.400000e+08	1.087369e+13	0.000000e+00	3.714287e-01	2.903280e+14	1.386578e+15	5.213449e+14	1.283667e+04	5.786939e+03	2.477728e+03	0	9.202938e-04
3.500000e+08	1.058052e+13	0.000000e+00	3.714287e-01	2.852716e+14	1.365251e+15	5.186479e+14	1.280218e+04	5.776283e+03	2.473165e+03	0	9.119475e-04
3.600000e+08	1.029662e+13	0.000000e+00	3.714287e-01	2.803707e+14	1.344640e+15	5.159705e+14	1.276829e+04	5.765877e+03	2.468710e+03	0	9.037169e-04
3.700000e+08	1.002158e+13	0.000000e+00	3.714287e-01	2.756185e+14	1.324709e+15	5.133125e+14	1.273498e+04	5.755710e+03	2.464357e+03	0	8.955976e-04
3.800000e+08	9.755010e+12	0.000000e+00	3.714287e-01	2.710086e+14	1.305425e+15	5.106737e+14	1.270223e+04	5.745773e+03	2.460102e+03	0	8.875854e-04
3.900000e+08	9.496552e+12	0.000000e+00	3.714287e-01	2.665348e+14	1.286755e+15	5.080539e+14	1.267003e+04	5.736058e+03	2.455943e+03	0	8.796763e-04
4.000000e+08	9.245857e+12	0.000000e+00	3.714287e-01	2.621916e+14	1.268671e+15	5.054531e+14	1.263835e+04	5.726556e+03	2.451874e+03	0	8.718664e-04
4.100000e+08	9.002599e+12	0.000000e+00	3.714287e-01	2.579734e+14	1.251144e+15	5.028710e+14	1.260719e+04	5.717259e+03	2.447894e+03	0	8.641521e-04
4.200000e+08	8.766470e+12	0.000000e+00	3.714287e-01	2.538751e+14	1.234148e+15	5.003076e+14	1.257652e+04	5.708160e+03	2.443998e+03	0	8.565298e-04
4.300000e+08	8.537177e+12	0.000000e+00	3.714287e-01	2.498919e+14	1.217660e+15	4.977626e+14	1.254634e+04	5.699251e+03	2.440183e+03	0	8.489960e-04
4.400000e+08	8.314443e+12	0.000000e+00	3.714287e-01	2.460191e+14	1.201655e+15	4.952359e+14	1.251664e+04	5.690525e+03	2.436447e+03	0	8.415475e-04
4.500000e+08	8.098006e+12	0.000000e+00	3.714287e-01	2.422525e+14	1.186113e+15	4.927274e+14	1.248739e+04	5.681976e+03	2.432787e+03	0	8.341809e-04
4.600000e+08	7.887618e+12	0.000000e+00	3.714287e-01	2.385878e+14	1.171013e+15	4.902369e+14	1.245858e+04	5.673598e+03	2.429200e+03	0	8.268934e-04
4.700000e+08	7.683041e+12	0.000000e+00	3.714287e-01	2.350211e+14	1.156336e+15	4.877642e+14	1.243021e+04	5.665385e+03	2.425683e+03	0	8.196818e-04
4.800000e+08	7.484051e+12	0.000000e+00	3.714287e-01	2.315486e+14	1.142063e+15	4.853093e+14	1.240226e+04	5.657331e+03	2.422235e+03	0	8.125432e-04
4.900000e+08	7.290435e+12	0.000000e+00	3.714287e-01	2.281669e+14	1.128178e+15	4.828720e+14	1.237472e+04	5.649431e+03	2.418852e+03	0	8.054750e-04
5.000000e+08	7.101991e+12	0.000000e+00	3.714287e-01	2.248726e+14	1.114664e+15	4.804520e+14	1.234759e+04	5.641679e+03	2.415533e+03	0	7.984743e-04
5.100000e+08	6.918524e+12	0.000000e+00	3.714287e-01	2.216623e+14	1.101507e+15	4.780494e+14	1.232084e+04	5.634072e+03	2.412276e+03	0	7.915385e-04
5.200000e+08	6.739852e+12	0.000000e+00	3.714287e-01	2.185331e+14	1.088691e+15	4.756639e+14	1.229447e+04	5.626603e+03	2.409079e+03	0	7.846651e-04
5.300000e+08	6.565799e+12	0.000000e+00	3.714287e-01	2.154820e+14	1.076204e+15	4.732954e+14	1.226847e+04	5.619270e+03	2.405939e+03	0	7.778516e-04
5.400000e+08	6.396198e+12	0.000000e+00	3.714287e-01	2.125063e+14	1.064031e+15	4.709438e+14	1.224284e+04	5.612066e+03	2.402854e+03	0	7.710955e-04
5.500000e+08	6.230890e+12	0.000000e+00	3.714287e-01	2.096033e+14	1.052161e+15	4.686089e+14	1.221755e+04	5.604990e+03	2.399824e+03	0	7.643946e-04
5.600000e+08	6.069724e+12	0.000000e+00	3.714287e-01	2.067704e+14	1.040583e+15	4.662906e+14	1.219261e+04	5.598035e+03	2.396847e+03	0	7.577464e-04
5.700000e+08	5.912554e+12	0.000000e+00	3.714287e-01	2.040052e+14	1.029284e+15	4.639888e+14	1.216801e+04	5.591199e+03	2.393920e+03	0	7.511487e-04
5.800000e+08	5.759242e+12	0.000000e+00	3.714287e-01	2.013055e+14	1.018256e+15	4.617033e+14	1.214373e+04	5.584479e+03	2.391043e+03	0	7.445994e-04
5.900000e+08	5.609656e+12	0.000000e+00	3.714287e-01	1.986690e+14	1.007486e+15	4.594340e+14	1.211977e+04	5.577870e+03	2.388213e+03	0	7.380962e-04
6.000000e+08	5.463670e+12	0.000000e+00	3.714287e-01	1.960935e+14	9.969674e+14	4.571808e+14	1.209613e+04	5.571369e+03	2.385429e+03	0	7.316371e-04
6.100000e+08	5.321161e+12	0.000000e+00	3.714287e-01	1.935772e+14	9.866893e+14	4.549435e+14	1.207279e+04	5.564973e+03	2.382691e+03	0	7.252199e-04
6.200000e+08	5.182016e+12	0.000000e+00	3.714287e-01	1.911179e+14	9.766437e+14	4.527221e+14	1.204975e+04	5.558680e+03	2.379997e+03	0	7.188426e-04
6.300000e+08	5.046122e+12	0.000000e+00	3.714287e-01	1.887140e+14	9.668223e+14	4.505163e+14	1.202700e+04	5.552485e+03	2.377344e+03	0	7.125032e-04
6.400000e+08	4.913374e+12	0.000000e+00	3.714287e-01	1.863635e+14	9.572174e+14	4.483260e+14	1.200453e+04	5.546387e+03	2.374733e+03	0	7.061997e-04
6.500000e+08	4.783671e+12	0.000000e+00	3.714287e-01	1.840649e+14	9.478213e+14	4.461512e+14	1.198235e+04	5.540383e+03	2.372163e+03	0	6.999301e-04
6.600000e+08	4.656915e+12	0.000000e+00	3.714287e-01	1.818164e+14	9.386271e+14	4.439917e+14	1.196043e+04	5.534470e+03	2.369631e+03	0	6.936925e-04
6.700000e+08	4.533012e+12	0.000000e+00	3.714287e-01	1.796165e+14	9.296279e+14	4.418474e+14	1.193879e+04	5.528645e+03	2.367137e+03	0	6.874849e-04
6.800000e+08	4.411873e+12	0.000000e+00	3.714287e-01	1.774637e+14	9.208172e+14	4.397182e+14	1.191740e+04	5.522906e+03	2.364680e+03	0	6.813055e-04
6.900000e+08	4.293412e+12	0.000000e+00	3.714287e-01	1.753565e+14	9.121888e+14	4.376038e+14	1.189627e+04	5.517251e+03	2.362258e+03	0	6.751523e-04
7.000000e+08	4.177546e+12	0.000000e+00	3.714287e-01	1.732937e+14	9.037368e+14	4.355043e+14	1.187539e+04	5.511678e+03	2.359872e+03	0	6.690234e-04
7.100000e+08	4.064196e+12	0.000000e+00	3.714287e-01	1.712738e+14	8.954555e+14	4.334195e+14	1.185475e+04	5.506183e+03	2.357520e+03	0	6.629169e-04
7.200000e+08	3.953287e+12	0.000000e+00	3.714287e-01	1.692955e+14	8.873394e+14	4.313493e+14	1.183435e+04	5.500767e+03	2.355201e+03	0	6.568310e-04
7.300000e+08	3.844744e+12	0.000000e+00	3.714287e-01	1.673577e+14	8.793834e+14	4.292936e+14	1.181419e+04	5.495425e+03	2.352914e+03	0	6.507638e-04
7.400000e+08	3.738497e+12	0.000000e+00	3.714287e-01	1.654591e+14	8.715824e+14	4.272521e+14	1.179426e+04	5.490157e+03	2.350658e+03	0	6.447132e-04
7.500000e+08	3.634479e+12	0.000000e+00	3.714287e-01	1.635986e+14	8.639317e+14	4.252250e+14	1.177455e+04	5.484960e+03	2.348433e+03	0	6.386775e-04
7.600000e+08	3.532625e+12	0.000000e+00	3.714287e-01	1.617751e+14	8.564267e+14	4.232119e+14	1.175507e+04	5.479833e+03	2.346238e+03	0	6.326547e-04
7.700000e+08	3.432872e+12	0.000000e+00	3.714287e-01	1.599876e+14	8.490630e+14	4.212129e+14	1.173580e+04	5.474774e+03	2.344072e+03	0	6.266429e-04
7.800000e+08	3.335159e+12	0.000000e+00	3.714287e-01	1.582351e+14	8.418363e+14	4.192277e+14	1.171674e+04	5.469781e+03	2.341934e+03	0	6.206400e-04
7.900000e+08	3.239429e+12	0.000000e+00	3.714287e-01	1.565165e+14	8.347427e+14	4.172563e+14	1.169789e+04	5.464853e+03	2.339824e+03	0	6.146441e-04
8.000000e+08	3.145625e+12	0.000000e+00	3.714287e-01	1.548310e+14	8.277782e+14	4.152987e+14	1.167924e+04	5.459988e+03	2.337741e+03	0	6.086532e-04
8.100000e+08	3.053694e+12	0.000000e+00	3.714287e-01	1.531775e+14	8.209390e+14	4.133545e+14	1.166080e+04	5.455184e+03	2.335684e+03	0	6.026651e-04
8.200000e+08	2.963584e+12	0.000000e+00	3.714287e-01	1.515553e+14	8.142217e+14	4.114238e+14	1.164255e+04	5.450440e+03	2.333653e+03	0	5.966779e-04
8.300000e+08	2.875243e+12	0.000000e+00	3.714287e-01	1.499635e+14	8.076227e+14	4.095065e+14	1.162449e+04	5.445755e+03	2.331647e+03	0	5.906893e-04
8.400000e+08	2.788625e+12	0.000000e+00	3.714287e-01	1.484013e+14	8.011387e+14	4.076024e+14	1.160662e+04	5.441128e+03	2.329666e+03	0	5.846971e-04
8.500000e+08	2.703682e+12	0.000000e+00	3.714287e-01	1.468679e+14	7.947665e+14	4.057115e+14	1.158894e+04	5.436556e+03	2.327708e+03	0	5.786990e-04
8.600000e+08	2.620369e+12	0.000000e+00	3.714287e-01	1.453625e+14	7.885031e+14	4.038336e+14	1.157144e+04	5.432039e+03	2.325774e+03	0	5.726928e-04
8.700000e+08	2.538643e+12	0.000000e+00	3.714287e-01	1.438844e+14	7.823454e+14	4.019686e+14	1.155412e+04	5.427575e+03	2.323863e+03	0	5.666760e-04
8.800000e+08	2.458462e+12	0.000000e+00	3.714287e-01	1.424328e+14	7.762907e+14	4.001165e+14	1.153697e+04	5.423163e+03	2.321974e+03	0	5.606460e-04
8.900000e+08	2.379786e+12	0.000000e+00	3.714287e-01	1.410072e+14	7.703361e+14	3.982770e+14	1.152000e+04	5.418803e+03	2.320107e+03	0	5.546004e-04
9.000000e+08	2.302574e+12	0.000000e+00	3.714287e-01	1.396069e+14	7.644790e+14	3.964502e+14	1.150319e+04	5.414492e+03	2.318261e+03	0	5.485363e-04
9.100000e+08	2.226789e+12	0.000000e+00	3.714287e-01	1.382311e+14	7.587169e+14	3.946359e+14	1.148655e+04	5.410230e+03	2.316437e+03	0	5.424511e-04
9.200000e+08	2.152395e+12	0.000000e+00	3.714287e-01	1.368793e+14	7.530472e+14	3.928341e+14	1.147008e+04	5.406016e+03	2.314632e+03	0	5.363417e-04
9.300000e+08	2.079356e+12	0.000000e+00	3.714287e-01	1.355509e+14	7.474677e+14	3.910445e+14	1.145377e+04	5.401848e+03	2.312848e+03	0	5.302050e-04
9.400000e+08	2.007638e+12	0.000000e+00	3.714287e-01	1.342453e+14	7.419760e+14	3.892672e+14	1.143761e+04	5.397726e+03	2.311083e+03	0	5.240379e-04
9.500000e+08	1.937207e+12	0.000000e+00	3.714287e-01	1.329619e+14	7.365698e+14	3.875021e+14	1.142161e+04	5.393649e+03	2.309337e+03	0	5.178368e-04
9.600000e+08	1.868032e+12	0.000000e+00	3.714287e-01	1.317003e+14	7.312471e+14	3.857489e+14	1.140576e+04	5.389616e+03	2.307610e+03	0	5.115982e-04
9.700000e+08	1.800082e+12	0.000000e+00	3.714287e-01	1.304598e+14	7.260058e+14	3.840078e+14	1.139006e+04	5.385625e+03	2.305902e+03	0	5.053182e-04
9.800000e+08	1.733326e+12	0.000000e+00	3.714287e-01	1.292399e+14	7.208439e+14	3.822784e+14	1.137451e+04	5.381676e+03	2.304211e+03	0	4.989929e-04
9.900000e+08	1.667736e+12	0.000000e+00	3.714287e-01	1.280403e+14	7.157594e+14	3.805608e+14	1.135910e+04	5.377768e+03	2.302538e+03	0	4.926177e-04
1.000000e+09	1.603283e+12	0.000000e+00	3.714287e-01	1.268603e+14	7.107505e+14	3.788549e+14	1.134384e+04	5.373901e+03	2.300882e+03	0	4.861880e-04
1.010000e+09	1.539939e+12	0.000000e+00	3.714287e-01	1.256996e+14	7.058153e+14	3.771605e+14	1.132871e+04	5.370073e+03	2.299243e+03	0	4.796990e-04
1.020000e+09	1.477680e+12	0.000000e+00	3.714287e-01	1.245576e+14	7.009522e+14	3.754776e+14	1.131373e+04	5.366283e+03	2.297620e+03	0	4.731451e-04
1.030000e+09	1.416478e+12	0.000000e+00	3.714287e-01	1.234340e+14	6.961594e+14	3.738061e+14	1.129888e+04	5.362532e+03	2.296014e+03	0	4.665206e-04
1.040000e+09	1.356308e+12	0.000000e+00	3.714287e-01	1.223283e+14	6.914354e+14	3.721459e+14	1.128416e+04	5.358817e+03	2.294424e+03	0	4.598191e-04
1.050000e+09	1.297148e+12	0.000000e+00	3.714287e-01	1.212401e+14	6.867784e+14	3.704970e+14	1.126958e+04	5.355139e+03	2.292849e+03	0	4.530339e-04
1.060000e+09	1.238973e+12	0.000000e+00	3.714287e-01	1.201691e+14	6.821870e+14	3.688591e+14	1.125512e+04	5.351497e+03	2.291289e+03	0	4.461575e-04
1.070000e+09	1.181761e+12	0.000000e+00	3.714287e-01	1.191147e+14	6.776597e+14	3.672323e+14	1.124079e+04	5.347889e+03	2.289745e+03	0	4.391815e-04
1.080000e+09	1.125489e+12	0.000000e+00	3.714287e-01	1.180767e+14	6.731950e+14	3.656164e+14	1.122659e+04	5.344316e+03	2.288215e+03	0	4.320970e-04
1.090000e+09	1.070136e+12	0.000000e+00	3.714287e-01	1.170548e+14	6.687916e+14	3.640113e+14	1.121251e+04	5.340776e+03	2.286699e+03	0	4.248940e-04
1.100000e+09	1.015682e+12	0.000000e+00	3.714287e-01	1.160484e+14	6.644480e+14	3.624171e+14	1.119855e+04	5.337270e+03	2.285198e+03	0	4.175612e-04
1.110000e+09	9.621062e+11	0.000000e+00	3.714287e-01	1.150573e+14	6.601631e+14	3.608336e+14	1.118471e+04	5.333795e+03	2.283710e+03	0	4.100863e-04
1.120000e+09	9.093892e+11	0.000000e+00	3.714287e-01	1.140812e+14	6.559354e+14	3.592606e+14	1.117099e+04	5.330353e+03	2.282236e+03	0	4.024551e-04
1.130000e+09	8.575118e+11	0.000000e+00	3.714287e-01	1.131198e+14	6.517639e+14	3.576982e+14	1.115739e+04	5.326941e+03	2.280776e+03	0	3.946520e-04
1.140000e+09	8.064557e+11	0.000000e+00	3.714287e-01	1.121726e+14	6.476472e+14	3.561462e+14	1.114390e+04	5.323561e+03	2.279328e+03	0	3.866587e-04
1.150000e+09	7.562029e+11	0.000000e+00	3.714287e-01	1.112395e+14	6.435842e+14	3.546046e+14	1.113052e+04	5.320210e+03	2.277894e+03	0	3.784545e-04
1.160000e+09	7.067360e+11	0.000000e+00	3.714287e-01	1.103201e+14	6.395738e+14	3.530733e+14	1.111725e+04	5.316889e+03	2.276472e+03	0	3.700155e-04
1.170000e+09	6.580380e+11	0.000000e+00	3.714287e-01	1.094141e+14	6.356149e+14	3.515521e+14	1.110409e+04	5.313597e+03	2.275062e+03	0	3.613138e-04
1.180000e+09	6.100923e+11	0.000000e+00	3.714287e-01	1.085213e+14	6.317064e+14	3.500411e+14	1.109104e+04	5.310333e+03	2.273665e+03	0	3.523163e-04
1.190000e+09	5.628831e+11	0.000000e+00	3.714287e-01	1.076413e+14	6.278473e+14	3.485402e+14	1.107810e+04	5.307097e+03	2.272279e+03	0	3.429838e-04
1.200000e+09	5.163946e+11	0.000000e+00	3.714287e-01	1.067740e+14	6.240365e+14	3.470492e+14	1.106526e+04	5.303889e+03	2.270906e+03	0	3.332689e-04
1.210000e+09	4.706118e+11	0.000000e+00	3.714287e-01	1.059190e+14	6.202732e+14	3.455681e+14	1.105253e+04	5.300708e+03	2.269544e+03	0	3.231135e-04
1.220000e+09	4.255198e+11	0.000000e+00	3.714287e-01	1.050761e+14	6.165563e+14	3.440968e+14	1.103989e+04	5.297553e+03	2.268193e+03	0	3.124454e-04
1.230000e+09	3.811043e+11	0.000000e+00	3.714287e-01	1.042450e+14	6.128850e+14	3.426352e+14	1.102736e+04	5.294425e+03	2.266853e+03	0	3.011726e-04
1.240000e+09	3.373513e+11	0.000000e+00	3.714287e-01	1.034256e+14	6.092583e+14	3.411833e+14	1.101492e+04	5.291322e+03	2.265525e+03	0	2.891756e-04
1.250000e+09	2.942473e+11	0.000000e+00	3.714287e-01	1.026175e+14	6.056754e+14	3.397410e+14	1.100258e+04	5.288244e+03	2.264207e+03	0	2.762942e-04
1.260000e+09	2.517789e+11	0.000000e+00	3.714287e-01	1.018206e+14	6.021353e+14	3.383082e+14	1.099034e+04	5.285191e+03	2.262900e+03	0	2.623055e-04
1.270000e+09	2.099333e+11	0.000000e+00	3.714287e-01	1.010346e+14	5.986374e+14	3.368848e+14	1.097820e+04	5.282162e+03	2.261603e+03	0	2.468850e-04
1.280000e+09	1.686979e+11	0.000000e+00	3.714287e-01	1.002594e+14	5.951807e+14	3.354708e+14	1.096614e+04	5.279158e+03	2.260317e+03	0	2.295289e-04
1.290000e+09	1.280604e+11	0.000000e+00	3.714287e-01	9.949464e+13	5.917645e+14	3.340661e+14	1.095418e+04	5.276177e+03	2.259040e+03	0	2.093819e-04
1.300000e+09	8.800901e+10	0.000000e+00	3.714287e-01	9.874020e+13	5.883881e+14	3.326706e+14	1.094231e+04	5.273219e+03	2.257774e+03	0	1.847750e-04
1.310000e+09	4.853204e+10	0.000000e+00	3.714287e-01	9.799586e+13	5.850507e+14	3.312843e+14	1.093053e+04	5.270284e+03	2.256517e+03	0	1.515225e-04
1.320000e+09	9.618175e+09	0.000000e+00	3.714287e-01	9.726143e+13	5.817515e+14	3.299070e+14	1.091884e+04	5.267371e+03	2.255270e+03	0	8.834157e-05
1.330000e+09	-2.874361e+10	0.000000e+00	3.714287e-01	9.653673e+13	5.784899e+14	3.285387e+14	1.090724e+04	5.264480e+03	2.254033e+03	0	nan
