#t		Qconv[W]	Ri[Rp]		R*[Rp]		Qc[W]		Qm[W]		Qr[W]		Tcmb[K]		Tl[K]		Tup[K]		RiFlag		Bs[T]
0.000000e+00	3.558056e+13	0.000000e+00	3.714286e-01	7.058423e+14	3.186847e+15	6.548215e+14	1.509224e+04	6.603564e+03	2.781998e+03	0	1.364236e-03
1.000000e+07	3.419505e+13	0.000000e+00	3.714286e-01	6.833475e+14	3.072769e+15	6.511933e+14	1.501333e+04	6.571390e+03	2.768443e+03	0	1.346293e-03
2.000000e+07	3.288756e+13	0.000000e+00	3.714286e-01	6.621001e+14	2.966819e+15	6.475922e+14	1.493690e+04	6.540743e+03	2.755532e+03	0	1.328911e-03
3.000000e+07	3.165196e+13	0.000000e+00	3.714286e-01	6.420028e+14	2.868176e+15	6.440181e+14	1.486282e+04	6.511506e+03	2.743215e+03	0	1.312055e-03
4.000000e+07	3.048274e+13	0.000000e+00	3.714286e-01	6.229681e+14	2.776125e+15	6.404706e+14	1.479097e+04	6.483574e+03	2.731448e+03	0	1.295696e-03
5.000000e+07	2.937494e+13	0.000000e+00	3.714286e-01	6.049170e+14	2.690039e+15	6.369496e+14	1.472124e+04	6.456852e+03	2.720190e+03	0	1.279806e-03
6.000000e+07	2.832406e+13	0.000000e+00	3.714286e-01	5.877778e+14	2.609366e+15	6.334548e+14	1.465350e+04	6.431255e+03	2.709407e+03	0	1.264359e-03
7.000000e+07	2.732602e+13	0.000000e+00	3.714286e-01	5.714857e+14	2.533620e+15	6.299861e+14	1.458767e+04	6.406706e+03	2.699064e+03	0	1.249331e-03
8.000000e+07	2.637713e+13	0.000000e+00	3.714286e-01	5.559817e+14	2.462369e+15	6.265432e+14	1.452364e+04	6.383134e+03	2.689134e+03	0	1.234699e-03
9.000000e+07	2.547400e+13	0.000000e+00	3.714286e-01	5.412121e+14	2.395230e+15	6.231258e+14	1.446134e+04	6.360477e+03	2.679589e+03	0	1.220443e-03
1.000000e+08	2.461355e+13	0.000000e+00	3.714286e-01	5.271278e+14	2.331863e+15	6.197339e+14	1.440068e+04	6.338676e+03	2.670404e+03	0	1.206544e-03
1.100000e+08	2.379298e+13	0.000000e+00	3.714286e-01	5.136840e+14	2.271962e+15	6.163671e+14	1.434158e+04	6.317679e+03	2.661558e+03	0	1.192985e-03
1.200000e+08	2.300971e+13	0.000000e+00	3.714286e-01	5.008395e+14	2.215253e+15	6.130252e+14	1.428398e+04	6.297436e+03	2.653030e+03	0	1.179747e-03
1.300000e+08	2.226137e+13	0.000000e+00	3.714286e-01	4.885567e+14	2.161490e+15	6.097082e+14	1.422781e+04	6.277903e+03	2.644801e+03	0	1.166816e-03
1.400000e+08	2.154579e+13	0.000000e+00	3.714286e-01	4.768008e+14	2.110451e+15	6.064156e+14	1.417300e+04	6.259040e+03	2.636855e+03	0	1.154178e-03
1.500000e+08	2.086096e+13	0.000000e+00	3.714286e-01	4.655400e+14	2.061936e+15	6.031474e+14	1.411950e+04	6.240809e+03	2.629174e+03	0	1.141818e-03
1.600000e+08	2.020506e+13	0.000000e+00	3.714286e-01	4.547448e+14	2.015763e+15	5.999034e+14	1.406726e+04	6.223174e+03	2.621745e+03	0	1.129723e-03
1.700000e+08	1.957636e+13	0.000000e+00	3.714286e-01	4.443880e+14	1.971768e+15	5.966832e+14	1.401621e+04	6.206104e+03	2.614553e+03	0	1.117882e-03
1.800000e+08	1.897329e+13	0.000000e+00	3.714286e-01	4.344443e+14	1.929800e+15	5.934869e+14	1.396633e+04	6.189568e+03	2.607587e+03	0	1.106283e-03
1.900000e+08	1.839441e+13	0.000000e+00	3.714286e-01	4.248906e+14	1.889722e+15	5.903140e+14	1.391755e+04	6.173540e+03	2.600834e+03	0	1.094915e-03
2.000000e+08	1.783835e+13	0.000000e+00	3.714286e-01	4.157052e+14	1.851411e+15	5.871645e+14	1.386983e+04	6.157993e+03	2.594285e+03	0	1.083769e-03
2.100000e+08	1.730386e+13	0.000000e+00	3.714286e-01	4.068679e+14	1.814752e+15	5.840382e+14	1.382314e+04	6.142903e+03	2.587927e+03	0	1.072835e-03
2.200000e+08	1.678977e+13	0.000000e+00	3.714286e-01	3.983601e+14	1.779639e+15	5.809348e+14	1.377744e+04	6.128248e+03	2.581753e+03	0	1.062103e-03
2.300000e+08	1.629499e+13	0.000000e+00	3.714286e-01	3.901645e+14	1.745978e+15	5.778542e+14	1.373268e+04	6.114007e+03	2.575754e+03	0	1.051566e-03
2.400000e+08	1.581852e+13	0.000000e+00	3.714286e-01	3.822647e+14	1.713678e+15	5.747962e+14	1.368884e+04	6.100160e+03	2.569920e+03	0	1.041215e-03
2.500000e+08	1.535941e+13	0.000000e+00	3.714286e-01	3.746457e+14	1.682660e+15	5.717606e+14	1.364588e+04	6.086690e+03	2.564246e+03	0	1.031043e-03
2.600000e+08	1.491676e+13	0.000000e+00	3.714286e-01	3.672934e+14	1.652847e+15	5.687472e+14	1.360377e+04	6.073579e+03	2.558722e+03	0	1.021042e-03
2.700000e+08	1.448977e+13	0.000000e+00	3.714286e-01	3.601944e+14	1.624171e+15	5.657558e+14	1.356249e+04	6.060811e+03	2.553343e+03	0	1.011205e-03
2.800000e+08	1.407766e+13	0.000000e+00	3.714286e-01	3.533365e+14	1.596566e+15	5.627863e+14	1.352199e+04	6.048371e+03	2.548102e+03	0	1.001526e-03
2.900000e+08	1.367970e+13	0.000000e+00	3.714286e-01	3.467079e+14	1.569974e+15	5.598385e+14	1.348226e+04	6.036245e+03	2.542994e+03	0	9.919980e-04
3.000000e+08	1.329522e+13	0.000000e+00	3.714286e-01	3.402979e+14	1.544338e+15	5.569121e+14	1.344327e+04	6.024420e+03	2.538012e+03	0	9.826159e-04
3.100000e+08	1.292358e+13	0.000000e+00	3.714286e-01	3.340963e+14	1.519608e+15	5.540071e+14	1.340500e+04	6.012883e+03	2.533152e+03	0	9.733735e-04
3.200000e+08	1.256418e+13	0.000000e+00	3.714286e-01	3.280933e+14	1.495736e+15	5.511232e+14	1.336743e+04	6.001622e+03	2.528407e+03	0	9.642655e-04
3.300000e+08	1.221646e+13	0.000000e+00	3.714286e-01	3.222800e+14	1.472677e+15	5.482602e+14	1.333052e+04	5.990625e+03	2.523775e+03	0	9.552865e-04
3.400000e+08	1.187988e+13	0.000000e+00	3.714286e-01	3.166478e+14	1.450389e+15	5.454181e+14	1.329426e+04	5.979883e+03	2.519249e+03	0	9.464317e-04
3.500000e+08	1.155396e+13	0.000000e+00	3.714286e-01	3.111888e+14	1.428834e+15	5.425966e+14	1.325863e+04	5.969386e+03	2.514827e+03	0	9.376963e-04
3.600000e+08	1.123822e+13	0.000000e+00	3.714286e-01	3.058954e+14	1.407976e+15	5.397955e+14	1.322362e+04	5.959123e+03	2.510503e+03	0	9.290756e-04
3.700000e+08	1.093221e+13	0.000000e+00	3.714286e-01	3.007605e+14	1.387780e+15	5.370147e+14	1.318919e+04	5.949087e+03	2.506275e+03	0	9.205652e-04
3.800000e+08	1.063552e+13	0.000000e+00	3.714286e-01	2.957772e+14	1.368215e+15	5.342541e+14	1.315535e+04	5.939267e+03	2.502138e+03	0	9.121610e-04
3.900000e+08	1.034776e+13	0.000000e+00	3.714286e-01	2.909393e+14	1.349251e+15	5.315134e+14	1.312205e+04	5.929657e+03	2.498090e+03	0	9.038589e-04
4.000000e+08	1.006854e+13	0.000000e+00	3.714286e-01	2.862407e+14	1.330860e+15	5.287924e+14	1.308930e+04	5.920249e+03	2.494126e+03	0	8.956549e-04
4.100000e+08	9.797511e+12	0.000000e+00	3.714286e-01	2.816757e+14	1.313016e+15	5.260912e+14	1.305708e+04	5.911035e+03	2.490244e+03	0	8.875452e-04
4.200000e+08	9.534344e+12	0.000000e+00	3.714286e-01	2.772390e+14	1.295694e+15	5.234093e+14	1.302537e+04	5.902009e+03	2.486442e+03	0	8.795263e-04
4.300000e+08	9.278718e+12	0.000000e+00	3.714286e-01	2.729253e+14	1.278871e+15	5.207468e+14	1.299415e+04	5.893163e+03	2.482715e+03	0	8.715947e-04
4.400000e+08	9.030330e+12	0.000000e+00	3.714286e-01	2.687298e+14	1.262524e+15	5.181035e+14	1.296342e+04	5.884492e+03	2.479062e+03	0	8.637468e-04
4.500000e+08	8.788897e+12	0.000000e+00	3.714286e-01	2.646480e+14	1.246634e+15	5.154791e+14	1.293316e+04	5.875990e+03	2.475480e+03	0	8.559795e-04
4.600000e+08	8.554145e+12	0.000000e+00	3.714286e-01	2.606754e+14	1.231181e+15	5.128736e+14	1.290335e+04	5.867650e+03	2.471967e+03	0	8.482895e-04
4.700000e+08	8.325817e+12	0.000000e+00	3.714286e-01	2.568079e+14	1.216147e+15	5.102868e+14	1.287399e+04	5.859468e+03	2.468520e+03	0	8.406738e-04
4.800000e+08	8.103669e+12	0.000000e+00	3.714286e-01	2.530415e+14	1.201513e+15	5.077185e+14	1.284506e+04	5.851438e+03	2.465137e+03	0	8.331294e-04
4.900000e+08	7.887466e+12	0.000000e+00	3.714286e-01	2.493725e+14	1.187265e+15	5.051686e+14	1.281656e+04	5.843556e+03	2.461816e+03	0	8.256533e-04
5.000000e+08	7.676988e+12	0.000000e+00	3.714286e-01	2.457972e+14	1.173385e+15	5.026369e+14	1.278847e+04	5.835816e+03	2.458556e+03	0	8.182428e-04
5.100000e+08	7.472023e+12	0.000000e+00	3.714286e-01	2.423123e+14	1.159860e+15	5.001234e+14	1.276077e+04	5.828214e+03	2.455353e+03	0	8.108950e-04
5.200000e+08	7.272370e+12	0.000000e+00	3.714286e-01	2.389145e+14	1.146675e+15	4.976277e+14	1.273347e+04	5.820746e+03	2.452207e+03	0	8.036073e-04
5.300000e+08	7.077837e+12	0.000000e+00	3.714286e-01	2.356007e+14	1.133818e+15	4.951499e+14	1.270655e+04	5.813407e+03	2.449115e+03	0	7.963771e-04
5.400000e+08	6.888241e+12	0.000000e+00	3.714286e-01	2.323680e+14	1.121275e+15	4.926897e+14	1.268000e+04	5.806193e+03	2.446076e+03	0	7.892017e-04
5.500000e+08	6.703407e+12	0.000000e+00	3.714286e-01	2.292135e+14	1.109035e+15	4.902470e+14	1.265382e+04	5.799102e+03	2.443088e+03	0	7.820787e-04
5.600000e+08	6.523170e+12	0.000000e+00	3.714286e-01	2.261345e+14	1.097087e+15	4.878217e+14	1.262798e+04	5.792128e+03	2.440150e+03	0	7.750055e-04
5.700000e+08	6.347369e+12	0.000000e+00	3.714286e-01	2.231284e+14	1.085419e+15	4.854135e+14	1.260250e+04	5.785269e+03	2.437261e+03	0	7.679799e-04
5.800000e+08	6.175853e+12	0.000000e+00	3.714286e-01	2.201929e+14	1.074022e+15	4.830225e+14	1.257735e+04	5.778521e+03	2.434418e+03	0	7.609993e-04
5.900000e+08	6.008477e+12	0.000000e+00	3.714286e-01	2.173254e+14	1.062885e+15	4.806485e+14	1.255253e+04	5.771881e+03	2.431621e+03	0	7.540614e-04
6.000000e+08	5.845101e+12	0.000000e+00	3.714286e-01	2.145238e+14	1.052000e+15	4.782912e+14	1.252803e+04	5.765346e+03	2.428868e+03	0	7.471639e-04
6.100000e+08	5.685592e+12	0.000000e+00	3.714286e-01	2.117860e+14	1.041357e+15	4.759506e+14	1.250384e+04	5.758913e+03	2.426157e+03	0	7.403046e-04
6.200000e+08	5.529822e+12	0.000000e+00	3.714286e-01	2.091097e+14	1.030949e+15	4.736266e+14	1.247997e+04	5.752579e+03	2.423489e+03	0	7.334812e-04
6.300000e+08	5.377671e+12	0.000000e+00	3.714286e-01	2.064932e+14	1.020767e+15	4.713189e+14	1.245639e+04	5.746341e+03	2.420861e+03	0	7.266913e-04
6.400000e+08	5.229021e+12	0.000000e+00	3.714286e-01	2.039344e+14	1.010803e+15	4.690275e+14	1.243311e+04	5.740196e+03	2.418272e+03	0	7.199329e-04
6.500000e+08	5.083759e+12	0.000000e+00	3.714286e-01	2.014316e+14	1.001050e+15	4.667523e+14	1.241011e+04	5.734142e+03	2.415722e+03	0	7.132037e-04
6.600000e+08	4.941779e+12	0.000000e+00	3.714286e-01	1.989829e+14	9.915014e+14	4.644931e+14	1.238740e+04	5.728177e+03	2.413209e+03	0	7.065014e-04
6.700000e+08	4.802977e+12	0.000000e+00	3.714286e-01	1.965868e+14	9.821501e+14	4.622498e+14	1.236496e+04	5.722298e+03	2.410732e+03	0	6.998239e-04
6.800000e+08	4.667255e+12	0.000000e+00	3.714286e-01	1.942416e+14	9.729897e+14	4.600222e+14	1.234279e+04	5.716504e+03	2.408291e+03	0	6.931689e-04
6.900000e+08	4.534517e+12	0.000000e+00	3.714286e-01	1.919457e+14	9.640142e+14	4.578102e+14	1.232088e+04	5.710790e+03	2.405884e+03	0	6.865343e-04
7.000000e+08	4.404672e+12	0.000000e+00	3.714286e-01	1.896978e+14	9.552177e+14	4.556138e+14	1.229923e+04	5.705156e+03	2.403510e+03	0	6.799178e-04
7.100000e+08	4.277633e+12	0.000000e+00	3.714286e-01	1.874963e+14	9.465945e+14	4.534327e+14	1.227784e+04	5.699600e+03	2.401170e+03	0	6.733172e-04
7.200000e+08	4.153315e+12	0.000000e+00	3.714286e-01	1.853399e+14	9.381393e+14	4.512669e+14	1.225669e+04	5.694119e+03	2.398861e+03	0	6.667303e-04
7.300000e+08	4.031637e+12	0.000000e+00	3.714286e-01	1.832273e+14	9.298469e+14	4.491162e+14	1.223578e+04	5.688712e+03	2.396583e+03	0	6.601547e-04
7.400000e+08	3.912522e+12	0.000000e+00	3.714286e-01	1.811572e+14	9.217124e+14	4.469806e+14	1.221511e+04	5.683377e+03	2.394335e+03	0	6.535882e-04
7.500000e+08	3.795894e+12	0.000000e+00	3.714286e-01	1.791283e+14	9.137309e+14	4.448598e+14	1.219467e+04	5.678112e+03	2.392117e+03	0	6.470283e-04
7.600000e+08	3.681682e+12	0.000000e+00	3.714286e-01	1.771396e+14	9.058980e+14	4.427538e+14	1.217447e+04	5.672915e+03	2.389927e+03	0	6.404728e-04
7.700000e+08	3.569816e+12	0.000000e+00	3.714286e-01	1.751898e+14	8.982092e+14	4.406624e+14	1.215448e+04	5.667784e+03	2.387766e+03	0	6.339191e-04
7.800000e+08	3.460229e+12	0.000000e+00	3.714286e-01	1.732779e+14	8.906604e+14	4.385856e+14	1.213471e+04	5.662719e+03	2.385632e+03	0	6.273648e-04
7.900000e+08	3.352856e+12	0.000000e+00	3.714286e-01	1.714028e+14	8.832475e+14	4.365232e+14	1.211516e+04	5.657717e+03	2.383525e+03	0	6.208074e-04
8.000000e+08	3.247636e+12	0.000000e+00	3.714286e-01	1.695636e+14	8.759667e+14	4.344751e+14	1.209582e+04	5.652777e+03	2.381444e+03	0	6.142442e-04
8.100000e+08	3.144509e+12	0.000000e+00	3.714286e-01	1.677591e+14	8.688141e+14	4.324412e+14	1.207669e+04	5.647897e+03	2.379388e+03	0	6.076724e-04
8.200000e+08	3.043417e+12	0.000000e+00	3.714286e-01	1.659886e+14	8.617862e+14	4.304214e+14	1.205776e+04	5.643077e+03	2.377357e+03	0	6.010894e-04
8.300000e+08	2.944303e+12	0.000000e+00	3.714286e-01	1.642511e+14	8.548796e+14	4.284155e+14	1.203903e+04	5.638314e+03	2.375351e+03	0	5.944921e-04
8.400000e+08	2.847116e+12	0.000000e+00	3.714286e-01	1.625456e+14	8.480909e+14	4.264235e+14	1.202049e+04	5.633608e+03	2.373368e+03	0	5.878777e-04
8.500000e+08	2.751802e+12	0.000000e+00	3.714286e-01	1.608714e+14	8.414170e+14	4.244453e+14	1.200215e+04	5.628957e+03	2.371409e+03	0	5.812429e-04
8.600000e+08	2.658312e+12	0.000000e+00	3.714286e-01	1.592277e+14	8.348546e+14	4.224806e+14	1.198399e+04	5.624360e+03	2.369472e+03	0	5.745845e-04
8.700000e+08	2.566597e+12	0.000000e+00	3.714286e-01	1.576136e+14	8.284009e+14	4.205295e+14	1.196602e+04	5.619815e+03	2.367557e+03	0	5.678990e-04
8.800000e+08	2.476610e+12	0.000000e+00	3.714286e-01	1.560283e+14	8.220529e+14	4.185919e+14	1.194823e+04	5.615322e+03	2.365664e+03	0	5.611830e-04
8.900000e+08	2.388308e+12	0.000000e+00	3.714286e-01	1.544712e+14	8.158080e+14	4.166675e+14	1.193062e+04	5.610880e+03	2.363793e+03	0	5.544325e-04
9.000000e+08	2.301645e+12	0.000000e+00	3.714286e-01	1.529416e+14	8.096634e+14	4.147563e+14	1.191318e+04	5.606487e+03	2.361942e+03	0	5.476436e-04
9.100000e+08	2.216579e+12	0.000000e+00	3.714286e-01	1.514387e+14	8.036166e+14	4.128583e+14	1.189592e+04	5.602142e+03	2.360112e+03	0	5.408120e-04
9.200000e+08	2.133071e+12	0.000000e+00	3.714286e-01	1.499618e+14	7.976650e+14	4.109732e+14	1.187882e+04	5.597844e+03	2.358301e+03	0	5.339333e-04
9.300000e+08	2.051080e+12	0.000000e+00	3.714286e-01	1.485104e+14	7.918064e+14	4.091011e+14	1.186189e+04	5.593592e+03	2.356510e+03	0	5.270026e-04
9.400000e+08	1.970569e+12	0.000000e+00	3.714286e-01	1.470837e+14	7.860383e+14	4.072417e+14	1.184513e+04	5.589386e+03	2.354738e+03	0	5.200149e-04
9.500000e+08	1.891500e+12	0.000000e+00	3.714286e-01	1.456813e+14	7.803585e+14	4.053950e+14	1.182852e+04	5.585224e+03	2.352984e+03	0	5.129645e-04
9.600000e+08	1.813837e+12	0.000000e+00	3.714286e-01	1.443024e+14	7.747648e+14	4.035609e+14	1.181207e+04	5.581106e+03	2.351249e+03	0	5.058457e-04
9.700000e+08	1.737547e+12	0.000000e+00	3.714286e-01	1.429466e+14	7.692552e+14	4.017393e+14	1.179578e+04	5.577029e+03	2.349532e+03	0	4.986519e-04
9.800000e+08	1.662596e+12	0.000000e+00	3.714286e-01	1.416132e+14	7.638277e+14	3.999301e+14	1.177964e+04	5.572995e+03	2.347832e+03	0	4.913762e-04
9.900000e+08	1.588950e+12	0.000000e+00	3.714286e-01	1.403019e+14	7.584802e+14	3.981332e+14	1.176365e+04	5.569002e+03	2.346150e+03	0	4.840111e-04
1.000000e+09	1.516580e+12	0.000000e+00	3.714286e-01	1.390119e+14	7.532109e+14	3.963485e+14	1.174781e+04	5.565048e+03	2.344484e+03	0	4.765484e-04
1.010000e+09	1.445453e+12	0.000000e+00	3.714286e-01	1.377429e+14	7.480180e+14	3.945759e+14	1.173211e+04	5.561134e+03	2.342835e+03	0	4.689789e-04
1.020000e+09	1.375542e+12	0.000000e+00	3.714286e-01	1.364943e+14	7.428996e+14	3.928154e+14	1.171656e+04	5.557258e+03	2.341202e+03	0	4.612926e-04
1.030000e+09	1.306816e+12	0.000000e+00	3.714286e-01	1.352657e+14	7.378541e+14	3.910667e+14	1.170115e+04	5.553419e+03	2.339585e+03	0	4.534786e-04
1.040000e+09	1.239249e+12	0.000000e+00	3.714286e-01	1.340566e+14	7.328799e+14	3.893298e+14	1.168587e+04	5.549618e+03	2.337984e+03	0	4.455243e-04
1.050000e+09	1.172813e+12	0.000000e+00	3.714286e-01	1.328666e+14	7.279751e+14	3.876047e+14	1.167073e+04	5.545853e+03	2.336398e+03	0	4.374162e-04
1.060000e+09	1.107483e+12	0.000000e+00	3.714286e-01	1.316952e+14	7.231385e+14	3.858912e+14	1.165573e+04	5.542123e+03	2.334827e+03	0	4.291386e-04
1.070000e+09	1.043232e+12	0.000000e+00	3.714286e-01	1.305420e+14	7.183683e+14	3.841892e+14	1.164085e+04	5.538429e+03	2.333270e+03	0	4.206739e-04
1.080000e+09	9.800366e+11	0.000000e+00	3.714286e-01	1.294067e+14	7.136632e+14	3.824987e+14	1.162611e+04	5.534768e+03	2.331728e+03	0	4.120020e-04
1.090000e+09	9.178726e+11	0.000000e+00	3.714286e-01	1.282888e+14	7.090216e+14	3.808196e+14	1.161149e+04	5.531142e+03	2.330200e+03	0	4.030999e-04
1.100000e+09	8.567169e+11	0.000000e+00	3.714286e-01	1.271879e+14	7.044424e+14	3.791517e+14	1.159700e+04	5.527548e+03	2.328686e+03	0	3.939408e-04
1.110000e+09	7.965468e+11	0.000000e+00	3.714286e-01	1.261037e+14	6.999240e+14	3.774951e+14	1.158264e+04	5.523986e+03	2.327186e+03	0	3.844935e-04
1.120000e+09	7.373405e+11	0.000000e+00	3.714286e-01	1.250358e+14	6.954652e+14	3.758495e+14	1.156840e+04	5.520457e+03	2.325699e+03	0	3.747209e-04
1.130000e+09	6.790768e+11	0.000000e+00	3.714286e-01	1.239838e+14	6.910648e+14	3.742149e+14	1.155427e+04	5.516958e+03	2.324225e+03	0	3.645789e-04
1.140000e+09	6.217349e+11	0.000000e+00	3.714286e-01	1.229475e+14	6.867215e+14	3.725913e+14	1.154027e+04	5.513490e+03	2.322764e+03	0	3.540139e-04
1.150000e+09	5.652949e+11	0.000000e+00	3.714286e-01	1.219265e+14	6.824341e+14	3.709785e+14	1.152638e+04	5.510053e+03	2.321316e+03	0	3.429601e-04
1.160000e+09	5.097372e+11	0.000000e+00	3.714286e-01	1.209204e+14	6.782014e+14	3.693765e+14	1.151261e+04	5.506645e+03	2.319880e+03	0	3.313350e-04
1.170000e+09	4.550429e+11	0.000000e+00	3.714286e-01	1.199289e+14	6.740225e+14	3.677851e+14	1.149895e+04	5.503265e+03	2.318456e+03	0	3.190333e-04
1.180000e+09	4.011935e+11	0.000000e+00	3.714286e-01	1.189518e+14	6.698960e+14	3.662043e+14	1.148540e+04	5.499915e+03	2.317045e+03	0	3.059167e-04
1.190000e+09	3.481710e+11	0.000000e+00	3.714286e-01	1.179888e+14	6.658211e+14	3.646341e+14	1.147196e+04	5.496592e+03	2.315645e+03	0	2.917983e-04
1.200000e+09	2.959581e+11	0.000000e+00	3.714286e-01	1.170395e+14	6.617966e+14	3.630742e+14	1.145863e+04	5.493297e+03	2.314257e+03	0	2.764152e-04
1.210000e+09	2.445377e+11	0.000000e+00	3.714286e-01	1.161037e+14	6.578216e+14	3.615247e+14	1.144541e+04	5.490030e+03	2.312880e+03	0	2.593784e-04
1.220000e+09	1.938933e+11	0.000000e+00	3.714286e-01	1.151810e+14	6.538951e+14	3.599855e+14	1.143229e+04	5.486789e+03	2.311515e+03	0	2.400709e-04
1.230000e+09	1.440089e+11	0.000000e+00	3.714286e-01	1.142714e+14	6.500161e+14	3.584564e+14	1.141928e+04	5.483574e+03	2.310160e+03	0	2.174111e-04
1.240000e+09	9.486873e+10	0.000000e+00	3.714286e-01	1.133743e+14	6.461838e+14	3.569375e+14	1.140637e+04	5.480384e+03	2.308817e+03	0	1.891732e-04
1.250000e+09	4.645763e+10	0.000000e+00	3.714286e-01	1.124897e+14	6.423971e+14	3.554286e+14	1.139356e+04	5.477221e+03	2.307484e+03	0	1.491091e-04
1.260000e+09	-1.239246e+09	0.000000e+00	3.714286e-01	1.116173e+14	6.386554e+14	3.539296e+14	1.138085e+04	5.474082e+03	2.306162e+03	0	nan
