#t		Qconv[W]	Ri[Rp]		R*[Rp]		Qc[W]		Qm[W]		Qr[W]		Tcmb[K]		Tl[K]		Tup[K]		RiFlag		Bs[T]
0.000000e+00	6.847382e+13	0.000000e+00	3.678162e-01	1.270566e+15	2.789445e+15	9.429930e+14	2.030386e+04	8.116063e+03	2.987444e+03	0	1.691503e-03
1.000000e+07	6.602035e+13	0.000000e+00	3.678162e-01	1.238432e+15	2.756398e+15	9.377681e+14	2.020970e+04	8.108518e+03	2.984667e+03	0	1.671054e-03
2.000000e+07	6.367240e+13	0.000000e+00	3.678162e-01	1.207643e+15	2.723903e+15	9.325823e+14	2.011790e+04	8.100916e+03	2.981869e+03	0	1.651005e-03
3.000000e+07	6.142387e+13	0.000000e+00	3.678162e-01	1.178125e+15	2.691961e+15	9.274353e+14	2.002837e+04	8.093268e+03	2.979054e+03	0	1.631337e-03
4.000000e+07	5.926908e+13	0.000000e+00	3.678162e-01	1.149803e+15	2.660572e+15	9.223267e+14	1.994101e+04	8.085583e+03	2.976225e+03	0	1.612033e-03
5.000000e+07	5.720277e+13	0.000000e+00	3.678162e-01	1.122613e+15	2.629732e+15	9.172562e+14	1.985573e+04	8.077870e+03	2.973386e+03	0	1.593077e-03
6.000000e+07	5.522004e+13	0.000000e+00	3.678162e-01	1.096492e+15	2.599438e+15	9.122234e+14	1.977245e+04	8.070138e+03	2.970540e+03	0	1.574454e-03
7.000000e+07	5.331634e+13	0.000000e+00	3.678162e-01	1.071383e+15	2.569686e+15	9.072282e+14	1.969109e+04	8.062394e+03	2.967689e+03	0	1.556149e-03
8.000000e+07	5.148742e+13	0.000000e+00	3.678162e-01	1.047231e+15	2.540468e+15	9.022701e+14	1.961158e+04	8.054644e+03	2.964837e+03	0	1.538148e-03
9.000000e+07	4.972931e+13	0.000000e+00	3.678162e-01	1.023987e+15	2.511780e+15	8.973489e+14	1.953385e+04	8.046895e+03	2.961984e+03	0	1.520438e-03
1.000000e+08	4.803833e+13	0.000000e+00	3.678162e-01	1.001604e+15	2.483613e+15	8.924642e+14	1.945783e+04	8.039152e+03	2.959134e+03	0	1.503005e-03
1.100000e+08	4.641101e+13	0.000000e+00	3.678162e-01	9.800382e+14	2.455960e+15	8.876158e+14	1.938346e+04	8.031420e+03	2.956288e+03	0	1.485838e-03
1.200000e+08	4.484412e+13	0.000000e+00	3.678162e-01	9.592483e+14	2.428813e+15	8.828033e+14	1.931068e+04	8.023703e+03	2.953447e+03	0	1.468925e-03
1.300000e+08	4.333463e+13	0.000000e+00	3.678162e-01	9.391960e+14	2.402163e+15	8.780264e+14	1.923943e+04	8.016005e+03	2.950614e+03	0	1.452255e-03
1.400000e+08	4.187971e+13	0.000000e+00	3.678162e-01	9.198454e+14	2.376001e+15	8.732849e+14	1.916966e+04	8.008331e+03	2.947789e+03	0	1.435817e-03
1.500000e+08	4.047669e+13	0.000000e+00	3.678162e-01	9.011626e+14	2.350319e+15	8.685784e+14	1.910131e+04	8.000683e+03	2.944974e+03	0	1.419601e-03
1.600000e+08	3.912306e+13	0.000000e+00	3.678162e-01	8.831159e+14	2.325108e+15	8.639067e+14	1.903435e+04	7.993064e+03	2.942170e+03	0	1.403596e-03
1.700000e+08	3.781649e+13	0.000000e+00	3.678162e-01	8.656754e+14	2.300358e+15	8.592695e+14	1.896872e+04	7.985477e+03	2.939377e+03	0	1.387794e-03
1.800000e+08	3.655477e+13	0.000000e+00	3.678162e-01	8.488132e+14	2.276060e+15	8.546665e+14	1.890437e+04	7.977924e+03	2.936597e+03	0	1.372185e-03
1.900000e+08	3.533581e+13	0.000000e+00	3.678162e-01	8.325027e+14	2.252206e+15	8.500973e+14	1.884127e+04	7.970408e+03	2.933830e+03	0	1.356760e-03
2.000000e+08	3.415766e+13	0.000000e+00	3.678162e-01	8.167190e+14	2.228785e+15	8.455618e+14	1.877938e+04	7.962930e+03	2.931078e+03	0	1.341510e-03
2.100000e+08	3.301847e+13	0.000000e+00	3.678162e-01	8.014386e+14	2.205788e+15	8.410597e+14	1.871865e+04	7.955492e+03	2.928340e+03	0	1.326427e-03
2.200000e+08	3.191650e+13	0.000000e+00	3.678162e-01	7.866395e+14	2.183208e+15	8.365906e+14	1.865904e+04	7.948096e+03	2.925617e+03	0	1.311504e-03
2.300000e+08	3.085011e+13	0.000000e+00	3.678162e-01	7.723005e+14	2.161033e+15	8.321543e+14	1.860054e+04	7.940742e+03	2.922910e+03	0	1.296732e-03
2.400000e+08	2.981774e+13	0.000000e+00	3.678162e-01	7.584021e+14	2.139257e+15	8.277505e+14	1.854309e+04	7.933432e+03	2.920220e+03	0	1.282103e-03
2.500000e+08	2.881794e+13	0.000000e+00	3.678162e-01	7.449254e+14	2.117869e+15	8.233790e+14	1.848667e+04	7.926167e+03	2.917545e+03	0	1.267610e-03
2.600000e+08	2.784930e+13	0.000000e+00	3.678162e-01	7.318527e+14	2.096861e+15	8.190395e+14	1.843124e+04	7.918948e+03	2.914888e+03	0	1.253245e-03
2.700000e+08	2.691053e+13	0.000000e+00	3.678162e-01	7.191673e+14	2.076226e+15	8.147317e+14	1.837678e+04	7.911775e+03	2.912248e+03	0	1.239002e-03
2.800000e+08	2.600036e+13	0.000000e+00	3.678162e-01	7.068533e+14	2.055953e+15	8.104553e+14	1.832326e+04	7.904650e+03	2.909625e+03	0	1.224873e-03
2.900000e+08	2.511764e+13	0.000000e+00	3.678162e-01	6.948957e+14	2.036036e+15	8.062102e+14	1.827066e+04	7.897572e+03	2.907020e+03	0	1.210851e-03
3.000000e+08	2.426123e+13	0.000000e+00	3.678162e-01	6.832801e+14	2.016466e+15	8.019960e+14	1.821893e+04	7.890543e+03	2.904432e+03	0	1.196930e-03
3.100000e+08	2.343008e+13	0.000000e+00	3.678162e-01	6.719930e+14	1.997235e+15	7.978126e+14	1.816807e+04	7.883562e+03	2.901863e+03	0	1.183103e-03
3.200000e+08	2.262318e+13	0.000000e+00	3.678162e-01	6.610215e+14	1.978336e+15	7.936595e+14	1.811804e+04	7.876629e+03	2.899311e+03	0	1.169362e-03
3.300000e+08	2.183958e+13	0.000000e+00	3.678162e-01	6.503534e+14	1.959760e+15	7.895367e+14	1.806882e+04	7.869746e+03	2.896777e+03	0	1.155702e-03
3.400000e+08	2.107836e+13	0.000000e+00	3.678162e-01	6.399771e+14	1.941502e+15	7.854438e+14	1.802040e+04	7.862912e+03	2.894262e+03	0	1.142116e-03
3.500000e+08	2.033866e+13	0.000000e+00	3.678162e-01	6.298814e+14	1.923552e+15	7.813806e+14	1.797274e+04	7.856127e+03	2.891764e+03	0	1.128596e-03
3.600000e+08	1.961967e+13	0.000000e+00	3.678162e-01	6.200558e+14	1.905905e+15	7.773468e+14	1.792583e+04	7.849392e+03	2.889285e+03	0	1.115137e-03
3.700000e+08	1.892058e+13	0.000000e+00	3.678162e-01	6.104903e+14	1.888554e+15	7.733423e+14	1.787964e+04	7.842705e+03	2.886824e+03	0	1.101732e-03
3.800000e+08	1.824067e+13	0.000000e+00	3.678162e-01	6.011753e+14	1.871491e+15	7.693667e+14	1.783417e+04	7.836068e+03	2.884381e+03	0	1.088374e-03
3.900000e+08	1.757922e+13	0.000000e+00	3.678162e-01	5.921017e+14	1.854711e+15	7.654199e+14	1.778939e+04	7.829480e+03	2.881956e+03	0	1.075056e-03
4.000000e+08	1.693556e+13	0.000000e+00	3.678162e-01	5.832609e+14	1.838206e+15	7.615016e+14	1.774527e+04	7.822941e+03	2.879549e+03	0	1.061771e-03
4.100000e+08	1.630903e+13	0.000000e+00	3.678162e-01	5.746444e+14	1.821971e+15	7.576115e+14	1.770182e+04	7.816450e+03	2.877160e+03	0	1.048513e-03
4.200000e+08	1.569902e+13	0.000000e+00	3.678162e-01	5.662444e+14	1.805999e+15	7.537495e+14	1.765900e+04	7.810009e+03	2.874789e+03	0	1.035274e-03
4.300000e+08	1.510494e+13	0.000000e+00	3.678162e-01	5.580533e+14	1.790285e+15	7.499153e+14	1.761680e+04	7.803615e+03	2.872435e+03	0	1.022047e-03
4.400000e+08	1.452624e+13	0.000000e+00	3.678162e-01	5.500639e+14	1.774822e+15	7.461087e+14	1.757522e+04	7.797270e+03	2.870099e+03	0	1.008824e-03
4.500000e+08	1.396236e+13	0.000000e+00	3.678162e-01	5.422693e+14	1.759606e+15	7.423294e+14	1.753422e+04	7.790972e+03	2.867781e+03	0	9.955984e-04
4.600000e+08	1.341281e+13	0.000000e+00	3.678162e-01	5.346629e+14	1.744630e+15	7.385773e+14	1.749380e+04	7.784721e+03	2.865481e+03	0	9.823610e-04
4.700000e+08	1.287708e+13	0.000000e+00	3.678162e-01	5.272382e+14	1.729890e+15	7.348520e+14	1.745395e+04	7.778518e+03	2.863197e+03	0	9.691040e-04
4.800000e+08	1.235472e+13	0.000000e+00	3.678162e-01	5.199893e+14	1.715380e+15	7.311535e+14	1.741465e+04	7.772362e+03	2.860931e+03	0	9.558186e-04
4.900000e+08	1.184526e+13	0.000000e+00	3.678162e-01	5.129104e+14	1.701095e+15	7.274814e+14	1.737588e+04	7.766252e+03	2.858682e+03	0	9.424957e-04
5.000000e+08	1.134828e+13	0.000000e+00	3.678162e-01	5.059959e+14	1.687030e+15	7.238356e+14	1.733764e+04	7.760188e+03	2.856450e+03	0	9.291258e-04
5.100000e+08	1.086336e+13	0.000000e+00	3.678162e-01	4.992405e+14	1.673180e+15	7.202159e+14	1.729992e+04	7.754170e+03	2.854235e+03	0	9.156988e-04
5.200000e+08	1.039012e+13	0.000000e+00	3.678162e-01	4.926391e+14	1.659541e+15	7.166220e+14	1.726269e+04	7.748197e+03	2.852036e+03	0	9.022039e-04
5.300000e+08	9.928166e+12	0.000000e+00	3.678162e-01	4.861868e+14	1.646108e+15	7.130537e+14	1.722596e+04	7.742270e+03	2.849855e+03	0	8.886298e-04
5.400000e+08	9.477140e+12	0.000000e+00	3.678162e-01	4.798788e+14	1.632877e+15	7.095108e+14	1.718970e+04	7.736386e+03	2.847689e+03	0	8.749642e-04
5.500000e+08	9.036693e+12	0.000000e+00	3.678162e-01	4.737107e+14	1.619842e+15	7.059932e+14	1.715391e+04	7.730547e+03	2.845540e+03	0	8.611941e-04
5.600000e+08	8.606490e+12	0.000000e+00	3.678162e-01	4.676782e+14	1.607001e+15	7.025005e+14	1.711858e+04	7.724752e+03	2.843406e+03	0	8.473052e-04
5.700000e+08	8.186209e+12	0.000000e+00	3.678162e-01	4.617770e+14	1.594349e+15	6.990326e+14	1.708370e+04	7.719000e+03	2.841289e+03	0	8.332823e-04
5.800000e+08	7.775542e+12	0.000000e+00	3.678162e-01	4.560033e+14	1.581882e+15	6.955894e+14	1.704926e+04	7.713290e+03	2.839188e+03	0	8.191085e-04
5.900000e+08	7.374193e+12	0.000000e+00	3.678162e-01	4.503530e+14	1.569595e+15	6.921706e+14	1.701524e+04	7.707623e+03	2.837102e+03	0	8.047655e-04
6.000000e+08	6.981876e+12	0.000000e+00	3.678162e-01	4.448226e+14	1.557486e+15	6.887759e+14	1.698165e+04	7.701999e+03	2.835031e+03	0	7.902332e-04
6.100000e+08	6.598317e+12	0.000000e+00	3.678162e-01	4.394085e+14	1.545551e+15	6.854053e+14	1.694846e+04	7.696415e+03	2.832976e+03	0	7.754889e-04
6.200000e+08	6.223254e+12	0.000000e+00	3.678162e-01	4.341073e+14	1.533785e+15	6.820585e+14	1.691568e+04	7.690873e+03	2.830936e+03	0	7.605078e-04
6.300000e+08	5.856431e+12	0.000000e+00	3.678162e-01	4.289157e+14	1.522186e+15	6.787353e+14	1.688329e+04	7.685372e+03	2.828911e+03	0	7.452618e-04
6.400000e+08	5.497606e+12	0.000000e+00	3.678162e-01	4.238304e+14	1.510750e+15	6.754355e+14	1.685129e+04	7.679911e+03	2.826901e+03	0	7.297191e-04
6.500000e+08	5.146543e+12	0.000000e+00	3.678162e-01	4.188486e+14	1.499474e+15	6.721590e+14	1.681966e+04	7.674490e+03	2.824906e+03	0	7.138436e-04
6.600000e+08	4.803016e+12	0.000000e+00	3.678162e-01	4.139671e+14	1.488354e+15	6.689056e+14	1.678841e+04	7.669108e+03	2.822925e+03	0	6.975937e-04
6.700000e+08	4.466808e+12	0.000000e+00	3.678162e-01	4.091832e+14	1.477387e+15	6.656750e+14	1.675752e+04	7.663766e+03	2.820958e+03	0	6.809213e-04
6.800000e+08	4.137708e+12	0.000000e+00	3.678162e-01	4.044942e+14	1.466571e+15	6.624671e+14	1.672698e+04	7.658462e+03	2.819006e+03	0	6.637703e-04
6.900000e+08	3.815514e+12	0.000000e+00	3.678162e-01	3.998974e+14	1.455901e+15	6.592818e+14	1.669679e+04	7.653196e+03	2.817067e+03	0	6.460739e-04
7.000000e+08	3.500031e+12	0.000000e+00	3.678162e-01	3.953903e+14	1.445376e+15	6.561187e+14	1.666695e+04	7.647968e+03	2.815143e+03	0	6.277526e-04
7.100000e+08	3.191071e+12	0.000000e+00	3.678162e-01	3.909704e+14	1.434993e+15	6.529778e+14	1.663744e+04	7.642777e+03	2.813232e+03	0	6.087094e-04
7.200000e+08	2.888453e+12	0.000000e+00	3.678162e-01	3.866354e+14	1.424748e+15	6.498589e+14	1.660825e+04	7.637623e+03	2.811335e+03	0	5.888251e-04
7.300000e+08	2.592001e+12	0.000000e+00	3.678162e-01	3.823829e+14	1.414639e+15	6.467617e+14	1.657939e+04	7.632506e+03	2.809452e+03	0	5.679494e-04
7.400000e+08	2.301547e+12	0.000000e+00	3.678162e-01	3.782109e+14	1.404663e+15	6.436862e+14	1.655085e+04	7.627425e+03	2.807581e+03	0	5.458892e-04
7.500000e+08	2.016927e+12	0.000000e+00	3.678162e-01	3.741170e+14	1.394818e+15	6.406321e+14	1.652262e+04	7.622380e+03	2.805724e+03	0	5.223897e-04
7.600000e+08	1.737984e+12	0.000000e+00	3.678162e-01	3.700994e+14	1.385101e+15	6.375993e+14	1.649469e+04	7.617369e+03	2.803880e+03	0	4.971031e-04
7.700000e+08	1.464566e+12	0.000000e+00	3.678162e-01	3.661559e+14	1.375510e+15	6.345876e+14	1.646706e+04	7.612394e+03	2.802049e+03	0	4.695345e-04
7.800000e+08	1.196526e+12	0.000000e+00	3.678162e-01	3.622847e+14	1.366042e+15	6.315968e+14	1.643972e+04	7.607453e+03	2.800230e+03	0	4.389401e-04
7.900000e+08	9.337208e+11	0.000000e+00	3.678162e-01	3.584839e+14	1.356695e+15	6.286268e+14	1.641267e+04	7.602547e+03	2.798424e+03	0	4.041137e-04
8.000000e+08	6.760143e+11	0.000000e+00	3.678162e-01	3.547518e+14	1.347467e+15	6.256774e+14	1.638590e+04	7.597674e+03	2.796630e+03	0	3.628690e-04
8.100000e+08	4.232732e+11	0.000000e+00	3.678162e-01	3.510865e+14	1.338355e+15	6.227484e+14	1.635941e+04	7.592834e+03	2.794849e+03	0	3.104356e-04
8.200000e+08	1.753693e+11	0.000000e+00	3.678162e-01	3.474864e+14	1.329357e+15	6.198397e+14	1.633320e+04	7.588028e+03	2.793080e+03	0	2.314279e-04
8.300000e+08	-6.782175e+10	0.000000e+00	3.678162e-01	3.439499e+14	1.320472e+15	6.169511e+14	1.630725e+04	7.583254e+03	2.791322e+03	0	nan
