#t		Qconv[W]	Ri[Rp]		R*[Rp]		Qc[W]		Qm[W]		Qr[W]		Tcmb[K]		Tl[K]		Tup[K]		RiFlag		Bs[T]
0.000000e+00	8.182605e+13	0.000000e+00	3.678161e-01	1.462968e+15	2.821908e+15	9.919054e+14	2.117922e+04	8.360949e+03	3.005318e+03	0	1.789542e-03
1.000000e+07	7.884476e+13	0.000000e+00	3.678161e-01	1.425360e+15	2.794815e+15	9.864095e+14	2.107712e+04	8.356327e+03	3.003656e+03	0	1.767539e-03
2.000000e+07	7.599293e+13	0.000000e+00	3.678161e-01	1.389341e+15	2.767861e+15	9.809547e+14	2.097763e+04	8.351505e+03	3.001923e+03	0	1.745966e-03
3.000000e+07	7.326302e+13	0.000000e+00	3.678161e-01	1.354822e+15	2.741073e+15	9.755407e+14	2.088063e+04	8.346501e+03	3.000124e+03	0	1.724803e-03
4.000000e+07	7.064804e+13	0.000000e+00	3.678161e-01	1.321715e+15	2.714476e+15	9.701671e+14	2.078602e+04	8.341331e+03	2.998266e+03	0	1.704033e-03
5.000000e+07	6.814150e+13	0.000000e+00	3.678161e-01	1.289944e+15	2.688091e+15	9.648336e+14	2.069370e+04	8.336012e+03	2.996354e+03	0	1.683637e-03
6.000000e+07	6.573735e+13	0.000000e+00	3.678161e-01	1.259433e+15	2.661936e+15	9.595399e+14	2.060358e+04	8.330558e+03	2.994394e+03	0	1.663599e-03
7.000000e+07	6.342999e+13	0.000000e+00	3.678161e-01	1.230115e+15	2.636026e+15	9.542855e+14	2.051558e+04	8.324983e+03	2.992390e+03	0	1.643903e-03
8.000000e+07	6.121417e+13	0.000000e+00	3.678161e-01	1.201927e+15	2.610376e+15	9.490703e+14	2.042960e+04	8.319299e+03	2.990347e+03	0	1.624533e-03
9.000000e+07	5.908503e+13	0.000000e+00	3.678161e-01	1.174808e+15	2.584997e+15	9.438938e+14	2.034558e+04	8.313517e+03	2.988268e+03	0	1.605476e-03
1.000000e+08	5.703800e+13	0.000000e+00	3.678161e-01	1.148702e+15	2.559898e+15	9.387557e+14	2.026345e+04	8.307647e+03	2.986159e+03	0	1.586717e-03
1.100000e+08	5.506883e+13	0.000000e+00	3.678161e-01	1.123559e+15	2.535086e+15	9.336558e+14	2.018312e+04	8.301700e+03	2.984021e+03	0	1.568243e-03
1.200000e+08	5.317354e+13	0.000000e+00	3.678161e-01	1.099330e+15	2.510569e+15	9.285937e+14	2.010454e+04	8.295685e+03	2.981859e+03	0	1.550041e-03
1.300000e+08	5.134840e+13	0.000000e+00	3.678161e-01	1.075969e+15	2.486351e+15	9.235690e+14	2.002763e+04	8.289609e+03	2.979675e+03	0	1.532099e-03
1.400000e+08	4.958993e+13	0.000000e+00	3.678161e-01	1.053433e+15	2.462436e+15	9.185816e+14	1.995236e+04	8.283481e+03	2.977472e+03	0	1.514406e-03
1.500000e+08	4.789484e+13	0.000000e+00	3.678161e-01	1.031682e+15	2.438828e+15	9.136310e+14	1.987864e+04	8.277306e+03	2.975253e+03	0	1.496951e-03
1.600000e+08	4.626007e+13	0.000000e+00	3.678161e-01	1.010680e+15	2.415528e+15	9.087170e+14	1.980644e+04	8.271093e+03	2.973019e+03	0	1.479722e-03
1.700000e+08	4.468273e+13	0.000000e+00	3.678161e-01	9.903900e+14	2.392536e+15	9.038392e+14	1.973570e+04	8.264846e+03	2.970774e+03	0	1.462709e-03
1.800000e+08	4.316011e+13	0.000000e+00	3.678161e-01	9.707794e+14	2.369855e+15	8.989975e+14	1.966636e+04	8.258571e+03	2.968518e+03	0	1.445902e-03
1.900000e+08	4.168965e+13	0.000000e+00	3.678161e-01	9.518169e+14	2.347483e+15	8.941913e+14	1.959839e+04	8.252274e+03	2.966255e+03	0	1.429291e-03
2.000000e+08	4.026894e+13	0.000000e+00	3.678161e-01	9.334730e+14	2.325419e+15	8.894206e+14	1.953174e+04	8.245958e+03	2.963985e+03	0	1.412867e-03
2.100000e+08	3.889573e+13	0.000000e+00	3.678161e-01	9.157201e+14	2.303663e+15	8.846849e+14	1.946637e+04	8.239629e+03	2.961710e+03	0	1.396621e-03
2.200000e+08	3.756788e+13	0.000000e+00	3.678161e-01	8.985319e+14	2.282212e+15	8.799840e+14	1.940223e+04	8.233290e+03	2.959431e+03	0	1.380544e-03
2.300000e+08	3.628337e+13	0.000000e+00	3.678161e-01	8.818837e+14	2.261065e+15	8.753176e+14	1.933928e+04	8.226946e+03	2.957151e+03	0	1.364627e-03
2.400000e+08	3.504029e+13	0.000000e+00	3.678161e-01	8.657520e+14	2.240219e+15	8.706854e+14	1.927750e+04	8.220598e+03	2.954869e+03	0	1.348861e-03
2.500000e+08	3.383686e+13	0.000000e+00	3.678161e-01	8.501150e+14	2.219671e+15	8.660871e+14	1.921684e+04	8.214252e+03	2.952588e+03	0	1.333239e-03
2.600000e+08	3.267135e+13	0.000000e+00	3.678161e-01	8.349515e+14	2.199418e+15	8.615225e+14	1.915726e+04	8.207909e+03	2.950308e+03	0	1.317752e-03
2.700000e+08	3.154218e+13	0.000000e+00	3.678161e-01	8.202419e+14	2.179458e+15	8.569913e+14	1.909875e+04	8.201572e+03	2.948030e+03	0	1.302392e-03
2.800000e+08	3.044781e+13	0.000000e+00	3.678161e-01	8.059674e+14	2.159786e+15	8.524931e+14	1.904125e+04	8.195243e+03	2.945755e+03	0	1.287152e-03
2.900000e+08	2.938680e+13	0.000000e+00	3.678161e-01	7.921103e+14	2.140398e+15	8.480278e+14	1.898475e+04	8.188926e+03	2.943485e+03	0	1.272024e-03
3.000000e+08	2.835777e+13	0.000000e+00	3.678161e-01	7.786536e+14	2.121293e+15	8.435950e+14	1.892922e+04	8.182622e+03	2.941218e+03	0	1.257000e-03
3.100000e+08	2.735944e+13	0.000000e+00	3.678161e-01	7.655815e+14	2.102465e+15	8.391946e+14	1.887463e+04	8.176332e+03	2.938958e+03	0	1.242073e-03
3.200000e+08	2.639057e+13	0.000000e+00	3.678161e-01	7.528787e+14	2.083910e+15	8.348261e+14	1.882094e+04	8.170059e+03	2.936703e+03	0	1.227235e-03
3.300000e+08	2.544999e+13	0.000000e+00	3.678161e-01	7.405309e+14	2.065625e+15	8.304894e+14	1.876814e+04	8.163804e+03	2.934455e+03	0	1.212478e-03
3.400000e+08	2.453659e+13	0.000000e+00	3.678161e-01	7.285242e+14	2.047606e+15	8.261842e+14	1.871620e+04	8.157570e+03	2.932214e+03	0	1.197796e-03
3.500000e+08	2.364931e+13	0.000000e+00	3.678161e-01	7.168457e+14	2.029849e+15	8.219103e+14	1.866510e+04	8.151356e+03	2.929980e+03	0	1.183180e-03
3.600000e+08	2.278714e+13	0.000000e+00	3.678161e-01	7.054830e+14	2.012349e+15	8.176673e+14	1.861482e+04	8.145164e+03	2.927755e+03	0	1.168623e-03
3.700000e+08	2.194913e+13	0.000000e+00	3.678161e-01	6.944242e+14	1.995102e+15	8.134550e+14	1.856533e+04	8.138996e+03	2.925538e+03	0	1.154118e-03
3.800000e+08	2.113437e+13	0.000000e+00	3.678161e-01	6.836581e+14	1.978105e+15	8.092733e+14	1.851660e+04	8.132853e+03	2.923329e+03	0	1.139658e-03
3.900000e+08	2.034198e+13	0.000000e+00	3.678161e-01	6.731740e+14	1.961354e+15	8.051217e+14	1.846863e+04	8.126735e+03	2.921130e+03	0	1.125233e-03
4.000000e+08	1.957115e+13	0.000000e+00	3.678161e-01	6.629615e+14	1.944843e+15	8.010002e+14	1.842140e+04	8.120643e+03	2.918940e+03	0	1.110836e-03
4.100000e+08	1.882108e+13	0.000000e+00	3.678161e-01	6.530110e+14	1.928570e+15	7.969083e+14	1.837487e+04	8.114578e+03	2.916761e+03	0	1.096460e-03
4.200000e+08	1.809102e+13	0.000000e+00	3.678161e-01	6.433132e+14	1.912529e+15	7.928460e+14	1.832904e+04	8.108541e+03	2.914591e+03	0	1.082096e-03
4.300000e+08	1.738025e+13	0.000000e+00	3.678161e-01	6.338591e+14	1.896718e+15	7.888129e+14	1.828389e+04	8.102533e+03	2.912431e+03	0	1.067735e-03
4.400000e+08	1.668809e+13	0.000000e+00	3.678161e-01	6.246403e+14	1.881132e+15	7.848088e+14	1.823939e+04	8.096553e+03	2.910281e+03	0	1.053368e-03
4.500000e+08	1.601388e+13	0.000000e+00	3.678161e-01	6.156486e+14	1.865767e+15	7.808335e+14	1.819554e+04	8.090603e+03	2.908143e+03	0	1.038987e-03
4.600000e+08	1.535699e+13	0.000000e+00	3.678161e-01	6.068763e+14	1.850620e+15	7.768868e+14	1.815232e+04	8.084683e+03	2.906015e+03	0	1.024582e-03
4.700000e+08	1.471683e+13	0.000000e+00	3.678161e-01	5.983159e+14	1.835686e+15	7.729683e+14	1.810971e+04	8.078792e+03	2.903897e+03	0	1.010143e-03
4.800000e+08	1.409283e+13	0.000000e+00	3.678161e-01	5.899603e+14	1.820961e+15	7.690780e+14	1.806770e+04	8.072933e+03	2.901791e+03	0	9.956591e-04
4.900000e+08	1.348442e+13	0.000000e+00	3.678161e-01	5.818027e+14	1.806443e+15	7.652154e+14	1.802627e+04	8.067104e+03	2.899696e+03	0	9.811199e-04
5.000000e+08	1.289110e+13	0.000000e+00	3.678161e-01	5.738366e+14	1.792127e+15	7.613805e+14	1.798542e+04	8.061307e+03	2.897612e+03	0	9.665135e-04
5.100000e+08	1.231235e+13	0.000000e+00	3.678161e-01	5.660557e+14	1.778010e+15	7.575730e+14	1.794512e+04	8.055541e+03	2.895540e+03	0	9.518276e-04
5.200000e+08	1.174770e+13	0.000000e+00	3.678161e-01	5.584541e+14	1.764088e+15	7.537927e+14	1.790536e+04	8.049807e+03	2.893479e+03	0	9.370489e-04
5.300000e+08	1.119668e+13	0.000000e+00	3.678161e-01	5.510260e+14	1.750357e+15	7.500393e+14	1.786613e+04	8.044104e+03	2.891429e+03	0	9.221631e-04
5.400000e+08	1.065886e+13	0.000000e+00	3.678161e-01	5.437659e+14	1.736815e+15	7.463127e+14	1.782743e+04	8.038433e+03	2.889390e+03	0	9.071551e-04
5.500000e+08	1.013380e+13	0.000000e+00	3.678161e-01	5.366685e+14	1.723457e+15	7.426126e+14	1.778923e+04	8.032794e+03	2.887363e+03	0	8.920080e-04
5.600000e+08	9.621102e+12	0.000000e+00	3.678161e-01	5.297287e+14	1.710281e+15	7.389387e+14	1.775153e+04	8.027187e+03	2.885348e+03	0	8.767038e-04
5.700000e+08	9.120373e+12	0.000000e+00	3.678161e-01	5.229417e+14	1.697283e+15	7.352910e+14	1.771431e+04	8.021613e+03	2.883344e+03	0	8.612228e-04
5.800000e+08	8.631238e+12	0.000000e+00	3.678161e-01	5.163027e+14	1.684460e+15	7.316692e+14	1.767757e+04	8.016070e+03	2.881352e+03	0	8.455429e-04
5.900000e+08	8.153336e+12	0.000000e+00	3.678161e-01	5.098073e+14	1.671809e+15	7.280730e+14	1.764129e+04	8.010559e+03	2.879371e+03	0	8.296401e-04
6.000000e+08	7.686320e+12	0.000000e+00	3.678161e-01	5.034512e+14	1.659326e+15	7.245023e+14	1.760547e+04	8.005080e+03	2.877402e+03	0	8.134873e-04
6.100000e+08	7.229858e+12	0.000000e+00	3.678161e-01	4.972302e+14	1.647009e+15	7.209568e+14	1.757009e+04	7.999633e+03	2.875444e+03	0	7.970542e-04
6.200000e+08	6.783629e+12	0.000000e+00	3.678161e-01	4.911402e+14	1.634855e+15	7.174364e+14	1.753515e+04	7.994219e+03	2.873498e+03	0	7.803067e-04
6.300000e+08	6.347326e+12	0.000000e+00	3.678161e-01	4.851775e+14	1.622861e+15	7.139408e+14	1.750063e+04	7.988836e+03	2.871563e+03	0	7.632056e-04
6.400000e+08	5.920651e+12	0.000000e+00	3.678161e-01	4.793382e+14	1.611023e+15	7.104699e+14	1.746653e+04	7.983484e+03	2.869639e+03	0	7.457063e-04
6.500000e+08	5.503321e+12	0.000000e+00	3.678161e-01	4.736190e+14	1.599340e+15	7.070235e+14	1.743284e+04	7.978165e+03	2.867727e+03	0	7.277568e-04
6.600000e+08	5.095061e+12	0.000000e+00	3.678161e-01	4.680162e+14	1.587807e+15	7.036013e+14	1.739955e+04	7.972877e+03	2.865826e+03	0	7.092964e-04
6.700000e+08	4.695605e+12	0.000000e+00	3.678161e-01	4.625267e+14	1.576424e+15	7.002031e+14	1.736665e+04	7.967620e+03	2.863937e+03	0	6.902533e-04
6.800000e+08	4.304700e+12	0.000000e+00	3.678161e-01	4.571471e+14	1.565186e+15	6.968289e+14	1.733414e+04	7.962394e+03	2.862058e+03	0	6.705414e-04
6.900000e+08	3.922100e+12	0.000000e+00	3.678161e-01	4.518745e+14	1.554092e+15	6.934783e+14	1.730200e+04	7.957200e+03	2.860191e+03	0	6.500561e-04
7.000000e+08	3.547568e+12	0.000000e+00	3.678161e-01	4.467058e+14	1.543139e+15	6.901512e+14	1.727023e+04	7.952037e+03	2.858335e+03	0	6.286683e-04
7.100000e+08	3.180877e+12	0.000000e+00	3.678161e-01	4.416383e+14	1.532324e+15	6.868473e+14	1.723882e+04	7.946904e+03	2.856491e+03	0	6.062153e-04
7.200000e+08	2.821806e+12	0.000000e+00	3.678161e-01	4.366690e+14	1.521645e+15	6.835666e+14	1.720777e+04	7.941802e+03	2.854657e+03	0	5.824880e-04
7.300000e+08	2.470143e+12	0.000000e+00	3.678161e-01	4.317955e+14	1.511100e+15	6.803088e+14	1.717707e+04	7.936731e+03	2.852834e+03	0	5.572097e-04
7.400000e+08	2.125684e+12	0.000000e+00	3.678161e-01	4.270150e+14	1.500685e+15	6.770738e+14	1.714671e+04	7.931690e+03	2.851022e+03	0	5.300021e-04
7.500000e+08	1.788232e+12	0.000000e+00	3.678161e-01	4.223251e+14	1.490400e+15	6.738613e+14	1.711668e+04	7.926679e+03	2.849220e+03	0	5.003254e-04
7.600000e+08	1.457594e+12	0.000000e+00	3.678161e-01	4.177235e+14	1.480241e+15	6.706711e+14	1.708698e+04	7.921697e+03	2.847430e+03	0	4.673657e-04
7.700000e+08	1.133587e+12	0.000000e+00	3.678161e-01	4.132077e+14	1.470207e+15	6.675032e+14	1.705760e+04	7.916746e+03	2.845650e+03	0	4.297966e-04
7.800000e+08	8.160336e+11	0.000000e+00	3.678161e-01	4.087755e+14	1.460296e+15	6.643573e+14	1.702854e+04	7.911824e+03	2.843881e+03	0	3.851950e-04
7.900000e+08	5.047611e+11	0.000000e+00	3.678161e-01	4.044249e+14	1.450504e+15	6.612333e+14	1.699979e+04	7.906931e+03	2.842122e+03	0	3.282010e-04
8.000000e+08	1.996035e+11	0.000000e+00	3.678161e-01	4.001536e+14	1.440831e+15	6.581309e+14	1.697135e+04	7.902067e+03	2.840374e+03	0	2.408984e-04
8.100000e+08	-9.959982e+10	0.000000e+00	3.678161e-01	3.959596e+14	1.431273e+15	6.550500e+14	1.694320e+04	7.897232e+03	2.838636e+03	0	nan
