#t		Qconv[W]	Ri[Rp]		R*[Rp]		Qc[W]		Qm[W]		Qr[W]		Tcmb[K]		Tl[K]		Tup[K]		RiFlag		Bs[T]
0.000000e+00	3.781346e+12	5.080927e-01	8.511905e-01	9.668768e+12	5.722942e+14	5.305965e+13	3.667836e+03	2.609893e+03	2.118238e+03	0	3.342575e-04
1.000000e+08	3.861802e+12	5.091032e-01	8.511905e-01	9.774978e+12	4.836760e+14	5.021653e+13	3.667681e+03	2.534555e+03	2.057092e+03	1	3.364620e-04
2.000000e+08	3.496828e+12	5.100478e-01	8.511905e-01	9.155892e+12	1.868198e+14	4.757746e+13	3.666127e+03	2.152582e+03	1.747075e+03	1	3.253747e-04
3.000000e+08	3.113086e+12	5.109243e-01	8.511905e-01	8.510153e+12	1.171520e+14	4.512613e+13	3.664678e+03	2.006054e+03	1.628151e+03	1	3.128878e-04
4.000000e+08	2.869285e+12	5.117566e-01	8.511905e-01	8.095375e+12	8.817641e+13	4.284762e+13	3.663336e+03	1.927675e+03	1.564537e+03	1	3.043855e-04
5.000000e+08	2.668457e+12	5.125350e-01	8.511905e-01	7.816869e+12	7.278316e+13	4.072826e+13	3.662066e+03	1.879294e+03	1.525270e+03	1	2.970099e-04
6.000000e+08	2.556601e+12	5.133087e-01	8.511905e-01	7.618023e+12	6.333837e+13	3.875555e+13	3.660810e+03	1.846665e+03	1.498788e+03	1	2.927010e-04
7.000000e+08	2.474381e+12	5.140662e-01	8.511905e-01	7.468554e+12	5.694790e+13	3.691801e+13	3.659591e+03	1.823193e+03	1.479738e+03	1	2.894327e-04
8.000000e+08	2.411202e+12	5.148106e-01	8.511905e-01	7.350872e+12	5.230023e+13	3.520516e+13	3.658400e+03	1.805415e+03	1.465309e+03	1	2.868543e-04
9.000000e+08	2.360711e+12	5.155443e-01	8.511905e-01	7.254438e+12	4.872618e+13	3.360737e+13	3.657232e+03	1.791354e+03	1.453896e+03	1	2.847461e-04
1.000000e+09	2.318948e+12	5.162688e-01	8.511905e-01	7.172678e+12	4.585423e+13	3.211580e+13	3.656084e+03	1.779814e+03	1.444530e+03	1	2.829670e-04
1.100000e+09	2.283359e+12	5.169851e-01	8.511905e-01	7.101358e+12	4.346468e+13	3.072236e+13	3.654953e+03	1.770042e+03	1.436599e+03	1	2.814235e-04
1.200000e+09	2.252256e+12	5.176940e-01	8.511905e-01	7.037674e+12	4.142099e+13	2.941961e+13	3.653838e+03	1.761545e+03	1.429703e+03	1	2.800527e-04
1.300000e+09	2.190123e+12	5.183755e-01	8.511905e-01	6.979728e+12	3.963481e+13	2.820073e+13	3.652736e+03	1.753994e+03	1.423574e+03	1	2.773704e-04
1.400000e+09	2.164994e+12	5.190652e-01	8.511905e-01	6.925852e+12	3.804681e+13	2.705944e+13	3.651617e+03	1.747163e+03	1.418030e+03	1	2.762219e-04
1.500000e+09	2.141852e+12	5.197490e-01	8.511905e-01	6.875487e+12	3.661617e+13	2.598999e+13	3.650511e+03	1.740895e+03	1.412943e+03	1	2.751516e-04
1.600000e+09	2.120303e+12	5.204272e-01	8.511905e-01	6.827972e+12	3.531380e+13	2.498709e+13	3.649416e+03	1.735077e+03	1.408221e+03	1	2.741443e-04
1.700000e+09	2.100064e+12	5.211001e-01	8.511905e-01	6.782828e+12	3.411846e+13	2.404585e+13	3.648333e+03	1.729627e+03	1.403798e+03	1	2.731886e-04
1.800000e+09	2.080925e+12	5.217679e-01	8.511905e-01	6.739699e+12	3.301423e+13	2.316180e+13	3.647260e+03	1.724487e+03	1.399626e+03	1	2.722764e-04
1.900000e+09	2.062728e+12	5.224307e-01	8.511905e-01	6.698317e+12	3.198888e+13	2.233081e+13	3.646198e+03	1.719611e+03	1.395669e+03	1	2.714016e-04
2.000000e+09	2.045355e+12	5.230888e-01	8.511905e-01	6.658477e+12	3.103282e+13	2.154908e+13	3.645146e+03	1.714966e+03	1.391899e+03	1	2.705595e-04
2.100000e+09	2.028714e+12	5.237423e-01	8.511905e-01	6.620020e+12	3.013832e+13	2.081310e+13	3.644103e+03	1.710525e+03	1.388294e+03	1	2.697464e-04
2.200000e+09	1.969903e+12	5.243661e-01	8.511905e-01	6.582820e+12	2.929907e+13	2.011966e+13	3.643070e+03	1.706268e+03	1.384839e+03	1	2.670413e-04
2.300000e+09	1.954536e+12	5.250032e-01	8.511905e-01	6.546342e+12	2.850964e+13	1.946578e+13	3.642009e+03	1.702177e+03	1.381519e+03	1	2.662707e-04
2.400000e+09	1.939716e+12	5.256361e-01	8.511905e-01	6.510939e+12	2.776567e+13	1.884870e+13	3.640956e+03	1.698240e+03	1.378323e+03	1	2.655225e-04
2.500000e+09	1.925407e+12	5.262650e-01	8.511905e-01	6.476541e+12	2.706332e+13	1.826590e+13	3.639913e+03	1.694444e+03	1.375243e+03	1	2.647950e-04
2.600000e+09	1.911575e+12	5.268899e-01	8.511905e-01	6.443087e+12	2.639925e+13	1.771502e+13	3.638878e+03	1.690781e+03	1.372270e+03	1	2.640872e-04
2.700000e+09	1.898192e+12	5.275109e-01	8.511905e-01	6.410527e+12	2.577052e+13	1.719391e+13	3.637851e+03	1.687242e+03	1.369397e+03	1	2.633978e-04
2.800000e+09	1.885236e+12	5.281281e-01	8.511905e-01	6.378813e+12	2.517451e+13	1.670057e+13	3.636833e+03	1.683821e+03	1.366621e+03	1	2.627262e-04
2.900000e+09	1.872682e+12	5.287416e-01	8.511905e-01	6.347906e+12	2.460888e+13	1.623313e+13	3.635823e+03	1.680511e+03	1.363934e+03	1	2.620714e-04
3.000000e+09	1.860512e+12	5.293515e-01	8.511905e-01	6.317769e+12	2.407151e+13	1.578990e+13	3.634821e+03	1.677306e+03	1.361333e+03	1	2.614327e-04
3.100000e+09	1.819750e+12	5.299544e-01	8.511905e-01	6.288368e+12	2.356050e+13	1.536929e+13	3.633827e+03	1.674201e+03	1.358813e+03	1	2.594409e-04
3.200000e+09	1.808287e+12	5.305523e-01	8.511905e-01	6.259386e+12	2.307398e+13	1.496981e+13	3.632814e+03	1.671193e+03	1.356371e+03	1	2.588273e-04
3.300000e+09	1.797156e+12	5.311468e-01	8.511905e-01	6.231082e+12	2.261045e+13	1.459012e+13	3.631809e+03	1.668275e+03	1.354003e+03	1	2.582280e-04
3.400000e+09	1.786345e+12	5.317380e-01	8.511905e-01	6.203431e+12	2.216844e+13	1.422895e+13	3.630811e+03	1.665445e+03	1.351706e+03	1	2.576425e-04
3.500000e+09	1.775841e+12	5.323260e-01	8.511905e-01	6.176406e+12	2.174661e+13	1.388513e+13	3.629821e+03	1.662699e+03	1.349478e+03	1	2.570705e-04
3.600000e+09	1.765632e+12	5.329108e-01	8.511905e-01	6.149985e+12	2.134371e+13	1.355757e+13	3.628837e+03	1.660033e+03	1.347314e+03	1	2.565113e-04
3.700000e+09	1.755706e+12	5.334925e-01	8.511905e-01	6.124144e+12	2.095861e+13	1.324525e+13	3.627861e+03	1.657444e+03	1.345213e+03	1	2.559646e-04
3.800000e+09	1.746053e+12	5.340712e-01	8.511905e-01	6.098862e+12	2.059024e+13	1.294724e+13	3.626892e+03	1.654929e+03	1.343171e+03	1	2.554301e-04
3.900000e+09	1.736661e+12	5.346469e-01	8.511905e-01	6.074120e+12	2.023762e+13	1.266267e+13	3.625929e+03	1.652485e+03	1.341188e+03	1	2.549072e-04
4.000000e+09	1.727521e+12	5.352196e-01	8.511905e-01	6.049896e+12	1.989982e+13	1.239072e+13	3.624973e+03	1.650109e+03	1.339260e+03	1	2.543956e-04
4.100000e+09	1.691756e+12	5.357864e-01	8.511905e-01	6.026174e+12	1.957600e+13	1.213063e+13	3.624023e+03	1.647799e+03	1.337385e+03	1	2.525651e-04
4.200000e+09	1.683070e+12	5.363489e-01	8.511905e-01	6.002676e+12	1.926527e+13	1.188171e+13	3.623055e+03	1.645552e+03	1.335561e+03	1	2.520702e-04
4.300000e+09	1.674606e+12	5.369087e-01	8.511905e-01	5.979645e+12	1.896697e+13	1.164329e+13	3.622094e+03	1.643366e+03	1.333786e+03	1	2.515855e-04
4.400000e+09	1.666357e+12	5.374658e-01	8.511905e-01	5.957067e+12	1.868039e+13	1.141477e+13	3.621139e+03	1.641237e+03	1.332059e+03	1	2.511107e-04
4.500000e+09	1.658317e+12	5.380202e-01	8.511905e-01	5.934924e+12	1.840491e+13	1.119557e+13	3.620190e+03	1.639165e+03	1.330377e+03	1	2.506455e-04
4.600000e+09	1.650476e+12	5.385720e-01	8.511905e-01	5.913202e+12	1.813992e+13	1.098516e+13	3.619247e+03	1.637146e+03	1.328738e+03	1	2.501896e-04
4.700000e+09	1.642829e+12	5.391212e-01	8.511905e-01	5.891888e+12	1.788485e+13	1.078304e+13	3.618310e+03	1.635179e+03	1.327142e+03	1	2.497427e-04
4.800000e+09	1.635367e+12	5.396679e-01	8.511905e-01	5.870967e+12	1.763919e+13	1.058874e+13	3.617379e+03	1.633262e+03	1.325586e+03	1	2.493046e-04
4.900000e+09	1.628084e+12	5.402121e-01	8.511905e-01	5.850425e+12	1.740243e+13	1.040185e+13	3.616453e+03	1.631393e+03	1.324069e+03	1	2.488748e-04
5.000000e+09	1.620974e+12	5.407539e-01	8.511905e-01	5.830251e+12	1.717412e+13	1.022194e+13	3.615534e+03	1.629570e+03	1.322590e+03	1	2.484533e-04
5.100000e+09	1.614030e+12	5.412932e-01	8.511905e-01	5.810432e+12	1.695382e+13	1.004863e+13	3.614620e+03	1.627792e+03	1.321146e+03	1	2.480397e-04
5.200000e+09	1.581559e+12	5.418272e-01	8.511905e-01	5.790956e+12	1.674112e+13	9.881580e+12	3.613711e+03	1.626057e+03	1.319738e+03	1	2.463076e-04
5.300000e+09	1.574896e+12	5.423576e-01	8.511905e-01	5.771568e+12	1.653554e+13	9.720447e+12	3.612784e+03	1.624363e+03	1.318363e+03	1	2.459044e-04
5.400000e+09	1.568381e+12	5.428858e-01	8.511905e-01	5.752502e+12	1.633681e+13	9.564921e+12	3.611863e+03	1.622708e+03	1.317020e+03	1	2.455084e-04
5.500000e+09	1.562009e+12	5.434116e-01	8.511905e-01	5.733748e+12	1.614457e+13	9.414708e+12	3.610946e+03	1.621092e+03	1.315708e+03	1	2.451192e-04
5.600000e+09	1.555775e+12	5.439353e-01	8.511905e-01	5.715296e+12	1.595852e+13	9.269535e+12	3.610036e+03	1.619512e+03	1.314426e+03	1	2.447369e-04
5.700000e+09	1.549671e+12	5.444567e-01	8.511905e-01	5.697136e+12	1.577835e+13	9.129144e+12	3.609130e+03	1.617968e+03	1.313173e+03	1	2.443608e-04
5.800000e+09	1.543701e+12	5.449760e-01	8.511905e-01	5.679259e+12	1.560378e+13	8.993293e+12	3.608229e+03	1.616457e+03	1.311947e+03	1	2.439914e-04
5.900000e+09	1.537849e+12	5.454931e-01	8.511905e-01	5.661657e+12	1.543456e+13	8.861755e+12	3.607334e+03	1.614980e+03	1.310748e+03	1	2.436279e-04
6.000000e+09	1.532120e+12	5.460082e-01	8.511905e-01	5.644319e+12	1.527041e+13	8.734317e+12	3.606443e+03	1.613534e+03	1.309575e+03	1	2.432704e-04
6.100000e+09	1.526508e+12	5.465211e-01	8.511905e-01	5.627240e+12	1.511112e+13	8.610778e+12	3.605558e+03	1.612119e+03	1.308426e+03	1	2.429187e-04
6.200000e+09	1.521006e+12	5.470320e-01	8.511905e-01	5.610410e+12	1.495646e+13	8.490950e+12	3.604677e+03	1.610734e+03	1.307302e+03	1	2.425725e-04
6.300000e+09	1.515611e+12	5.475409e-01	8.511905e-01	5.593821e+12	1.480621e+13	8.374654e+12	3.603801e+03	1.609377e+03	1.306200e+03	1	2.422317e-04
6.400000e+09	1.482306e+12	5.480318e-01	8.511905e-01	5.577467e+12	1.466018e+13	8.261725e+12	3.602930e+03	1.608047e+03	1.305121e+03	1	2.403929e-04
6.500000e+09	1.477071e+12	5.485323e-01	8.511905e-01	5.561079e+12	1.451809e+13	8.152004e+12	3.602037e+03	1.606743e+03	1.304063e+03	1	2.400573e-04
6.600000e+09	1.471931e+12	5.490308e-01	8.511905e-01	5.544912e+12	1.437982e+13	8.045343e+12	3.601149e+03	1.605465e+03	1.303025e+03	1	2.397265e-04
6.700000e+09	1.466884e+12	5.495273e-01	8.511905e-01	5.528961e+12	1.424523e+13	7.941602e+12	3.600266e+03	1.604211e+03	1.302008e+03	1	2.394005e-04
6.800000e+09	1.461927e+12	5.500220e-01	8.511905e-01	5.513218e+12	1.411414e+13	7.840649e+12	3.599387e+03	1.602981e+03	1.301009e+03	1	2.390790e-04
6.900000e+09	1.457057e+12	5.505148e-01	8.511905e-01	5.497679e+12	1.398641e+13	7.742361e+12	3.598513e+03	1.601774e+03	1.300029e+03	1	2.387621e-04
7.000000e+09	1.452270e+12	5.510058e-01	8.511905e-01	5.482336e+12	1.386189e+13	7.646619e+12	3.597643e+03	1.600588e+03	1.299067e+03	1	2.384494e-04
7.100000e+09	1.447565e+12	5.514949e-01	8.511905e-01	5.467186e+12	1.374046e+13	7.553312e+12	3.596778e+03	1.599424e+03	1.298122e+03	1	2.381410e-04
7.200000e+09	1.442938e+12	5.519822e-01	8.511905e-01	5.452222e+12	1.362199e+13	7.462336e+12	3.595917e+03	1.598280e+03	1.297194e+03	1	2.378366e-04
7.300000e+09	1.438388e+12	5.524677e-01	8.511905e-01	5.437440e+12	1.350635e+13	7.373592e+12	3.595061e+03	1.597156e+03	1.296281e+03	1	2.375362e-04
7.400000e+09	1.433911e+12	5.529514e-01	8.511905e-01	5.422834e+12	1.339344e+13	7.286986e+12	3.594208e+03	1.596051e+03	1.295385e+03	1	2.372396e-04
7.500000e+09	1.429505e+12	5.534334e-01	8.511905e-01	5.408399e+12	1.328313e+13	7.202429e+12	3.593360e+03	1.594964e+03	1.294503e+03	1	2.369467e-04
7.600000e+09	1.397865e+12	5.538982e-01	8.511905e-01	5.394132e+12	1.317533e+13	7.119839e+12	3.592516e+03	1.593896e+03	1.293635e+03	1	2.351380e-04
7.700000e+09	1.393547e+12	5.543725e-01	8.511905e-01	5.379774e+12	1.306986e+13	7.039134e+12	3.591651e+03	1.592844e+03	1.292782e+03	1	2.348472e-04
7.800000e+09	1.389293e+12	5.548451e-01	8.511905e-01	5.365576e+12	1.296668e+13	6.960241e+12	3.590790e+03	1.591809e+03	1.291942e+03	1	2.345599e-04
7.900000e+09	1.385101e+12	5.553160e-01	8.511905e-01	5.351533e+12	1.286572e+13	6.883088e+12	3.589932e+03	1.590790e+03	1.291115e+03	1	2.342758e-04
8.000000e+09	1.380971e+12	5.557852e-01	8.511905e-01	5.337641e+12	1.276689e+13	6.807607e+12	3.589079e+03	1.589787e+03	1.290301e+03	1	2.339950e-04
8.100000e+09	1.376896e+12	5.562528e-01	8.511905e-01	5.323897e+12	1.267011e+13	6.733734e+12	3.588230e+03	1.588798e+03	1.289498e+03	1	2.337171e-04
8.200000e+09	1.372879e+12	5.567188e-01	8.511905e-01	5.310297e+12	1.257531e+13	6.661409e+12	3.587385e+03	1.587824e+03	1.288708e+03	1	2.334424e-04
8.300000e+09	1.368918e+12	5.571831e-01	8.511905e-01	5.296837e+12	1.248241e+13	6.590574e+12	3.586544e+03	1.586864e+03	1.287929e+03	1	2.331707e-04
8.400000e+09	1.365010e+12	5.576459e-01	8.511905e-01	5.283514e+12	1.239135e+13	6.521175e+12	3.585707e+03	1.585918e+03	1.287160e+03	1	2.329018e-04
8.500000e+09	1.361154e+12	5.581070e-01	8.511905e-01	5.270325e+12	1.230207e+13	6.453158e+12	3.584874e+03	1.584984e+03	1.286403e+03	1	2.326357e-04
8.600000e+09	1.357348e+12	5.585666e-01	8.511905e-01	5.257267e+12	1.221449e+13	6.386476e+12	3.584045e+03	1.584064e+03	1.285656e+03	1	2.323724e-04
8.700000e+09	1.353592e+12	5.590246e-01	8.511905e-01	5.244336e+12	1.212857e+13	6.321080e+12	3.583220e+03	1.583156e+03	1.284919e+03	1	2.321117e-04
8.800000e+09	1.349883e+12	5.594811e-01	8.511905e-01	5.231531e+12	1.204424e+13	6.256927e+12	3.582398e+03	1.582260e+03	1.284191e+03	1	2.318536e-04
8.900000e+09	1.325241e+12	5.599243e-01	8.511905e-01	5.218847e+12	1.196145e+13	6.193973e+12	3.581580e+03	1.581375e+03	1.283474e+03	1	2.303898e-04
9.000000e+09	1.321585e+12	5.603745e-01	8.511905e-01	5.206091e+12	1.188009e+13	6.132179e+12	3.580746e+03	1.580502e+03	1.282765e+03	1	2.301327e-04
9.100000e+09	1.317972e+12	5.608233e-01	8.511905e-01	5.193452e+12	1.180015e+13	6.071505e+12	3.579916e+03	1.579640e+03	1.282065e+03	1	2.298781e-04
9.200000e+09	1.314401e+12	5.612705e-01	8.511905e-01	5.180927e+12	1.172159e+13	6.011916e+12	3.579089e+03	1.578788e+03	1.281374e+03	1	2.296257e-04
9.300000e+09	1.310870e+12	5.617163e-01	8.511905e-01	5.168515e+12	1.164438e+13	5.953375e+12	3.578266e+03	1.577946e+03	1.280690e+03	1	2.293756e-04
9.400000e+09	1.307382e+12	5.621606e-01	8.511905e-01	5.156212e+12	1.156846e+13	5.895850e+12	3.577446e+03	1.577114e+03	1.280015e+03	1	2.291278e-04
9.500000e+09	1.303931e+12	5.626035e-01	8.511905e-01	5.144018e+12	1.149381e+13	5.839308e+12	3.576631e+03	1.576292e+03	1.279348e+03	1	2.288821e-04
9.600000e+09	1.300519e+12	5.630449e-01	8.511905e-01	5.131929e+12	1.142037e+13	5.783720e+12	3.575818e+03	1.575479e+03	1.278688e+03	1	2.286386e-04
9.700000e+09	1.297144e+12	5.634849e-01	8.511905e-01	5.119943e+12	1.134811e+13	5.729057e+12	3.575010e+03	1.574676e+03	1.278036e+03	1	2.283971e-04
9.800000e+09	1.293806e+12	5.639235e-01	8.511905e-01	5.108059e+12	1.127700e+13	5.675290e+12	3.574205e+03	1.573881e+03	1.277391e+03	1	2.281576e-04
9.900000e+09	1.290503e+12	5.643607e-01	8.511905e-01	5.096275e+12	1.120701e+13	5.622394e+12	3.573403e+03	1.573095e+03	1.276753e+03	1	2.279201e-04
1.000000e+10	1.287234e+12	5.647965e-01	8.511905e-01	5.084588e+12	1.113809e+13	5.570342e+12	3.572605e+03	1.572317e+03	1.276122e+03	1	2.276845e-04
