#t		Qconv[W]	Ri[Rp]		R*[Rp]		Qc[W]		Qm[W]		Qr[W]		Tcmb[K]		Tl[K]		Tup[K]		RiFlag		Bs[T]
0.000000e+00	2.939370e+12	0.000000e+00	9.097745e-01	6.487005e+13	6.298876e+13	2.557703e+13	5.669236e+03	2.819988e+03	2.208128e+03	0	3.783036e-04
1.000000e+07	2.931791e+12	0.000000e+00	9.097745e-01	6.476034e+13	6.427477e+13	2.543532e+13	5.665916e+03	2.828955e+03	2.215149e+03	0	3.779782e-04
2.000000e+07	2.923729e+12	0.000000e+00	9.097745e-01	6.464475e+13	6.550616e+13	2.529466e+13	5.662603e+03	2.837416e+03	2.221774e+03	0	3.776314e-04
3.000000e+07	2.915223e+12	0.000000e+00	9.097745e-01	6.452376e+13	6.668246e+13	2.515506e+13	5.659295e+03	2.845387e+03	2.228016e+03	0	3.772648e-04
4.000000e+07	2.906310e+12	0.000000e+00	9.097745e-01	6.439783e+13	6.780346e+13	2.501649e+13	5.655993e+03	2.852886e+03	2.233887e+03	0	3.768799e-04
5.000000e+07	2.897026e+12	0.000000e+00	9.097745e-01	6.426737e+13	6.886924e+13	2.487896e+13	5.652697e+03	2.859929e+03	2.239403e+03	0	3.764782e-04
6.000000e+07	2.887402e+12	0.000000e+00	9.097745e-01	6.413279e+13	6.988015e+13	2.474246e+13	5.649409e+03	2.866535e+03	2.244575e+03	0	3.760608e-04
7.000000e+07	2.877469e+12	0.000000e+00	9.097745e-01	6.399447e+13	7.083675e+13	2.460697e+13	5.646127e+03	2.872720e+03	2.249419e+03	0	3.756291e-04
8.000000e+07	2.867256e+12	0.000000e+00	9.097745e-01	6.385274e+13	7.173980e+13	2.447249e+13	5.642852e+03	2.878502e+03	2.253946e+03	0	3.751842e-04
9.000000e+07	2.856788e+12	0.000000e+00	9.097745e-01	6.370794e+13	7.259025e+13	2.433901e+13	5.639585e+03	2.883898e+03	2.258171e+03	0	3.747271e-04
1.000000e+08	2.846091e+12	0.000000e+00	9.097745e-01	6.356036e+13	7.338922e+13	2.420653e+13	5.636325e+03	2.888923e+03	2.262106e+03	0	3.742587e-04
1.100000e+08	2.835186e+12	0.000000e+00	9.097745e-01	6.341029e+13	7.413792e+13	2.407502e+13	5.633072e+03	2.893596e+03	2.265765e+03	0	3.737801e-04
1.200000e+08	2.824095e+12	0.000000e+00	9.097745e-01	6.325797e+13	7.483772e+13	2.394449e+13	5.629827e+03	2.897931e+03	2.269159e+03	0	3.732921e-04
1.300000e+08	2.812837e+12	0.000000e+00	9.097745e-01	6.310364e+13	7.549005e+13	2.381493e+13	5.626590e+03	2.901946e+03	2.272303e+03	0	3.727954e-04
1.400000e+08	2.801429e+12	0.000000e+00	9.097745e-01	6.294753e+13	7.609641e+13	2.368632e+13	5.623361e+03	2.905654e+03	2.275206e+03	0	3.722908e-04
1.500000e+08	2.789889e+12	0.000000e+00	9.097745e-01	6.278984e+13	7.665840e+13	2.355867e+13	5.620140e+03	2.909070e+03	2.277882e+03	0	3.717789e-04
1.600000e+08	2.778232e+12	0.000000e+00	9.097745e-01	6.263075e+13	7.717760e+13	2.343196e+13	5.616927e+03	2.912211e+03	2.280340e+03	0	3.712603e-04
1.700000e+08	2.766470e+12	0.000000e+00	9.097745e-01	6.247043e+13	7.765564e+13	2.330618e+13	5.613722e+03	2.915088e+03	2.282593e+03	0	3.707357e-04
1.800000e+08	2.754618e+12	0.000000e+00	9.097745e-01	6.230903e+13	7.809418e+13	2.318133e+13	5.610525e+03	2.917716e+03	2.284651e+03	0	3.702055e-04
1.900000e+08	2.742687e+12	0.000000e+00	9.097745e-01	6.214672e+13	7.849486e+13	2.305740e+13	5.607336e+03	2.920107e+03	2.286524e+03	0	3.696702e-04
2.000000e+08	2.730687e+12	0.000000e+00	9.097745e-01	6.198361e+13	7.885932e+13	2.293438e+13	5.604156e+03	2.922275e+03	2.288221e+03	0	3.691303e-04
2.100000e+08	2.718630e+12	0.000000e+00	9.097745e-01	6.181982e+13	7.918919e+13	2.281227e+13	5.600984e+03	2.924230e+03	2.289752e+03	0	3.685862e-04
2.200000e+08	2.706523e+12	0.000000e+00	9.097745e-01	6.165548e+13	7.948607e+13	2.269105e+13	5.597820e+03	2.925984e+03	2.291126e+03	0	3.680382e-04
2.300000e+08	2.694375e+12	0.000000e+00	9.097745e-01	6.149068e+13	7.975152e+13	2.257073e+13	5.594665e+03	2.927549e+03	2.292351e+03	0	3.674868e-04
2.400000e+08	2.682193e+12	0.000000e+00	9.097745e-01	6.132552e+13	7.998709e+13	2.245128e+13	5.591519e+03	2.928934e+03	2.293435e+03	0	3.669321e-04
2.500000e+08	2.669986e+12	0.000000e+00	9.097745e-01	6.116007e+13	8.019426e+13	2.233271e+13	5.588380e+03	2.930150e+03	2.294387e+03	0	3.663746e-04
2.600000e+08	2.657759e+12	0.000000e+00	9.097745e-01	6.099443e+13	8.037448e+13	2.221501e+13	5.585251e+03	2.931205e+03	2.295214e+03	0	3.658145e-04
2.700000e+08	2.645517e+12	0.000000e+00	9.097745e-01	6.082866e+13	8.052918e+13	2.209817e+13	5.582129e+03	2.932110e+03	2.295922e+03	0	3.652520e-04
2.800000e+08	2.633268e+12	0.000000e+00	9.097745e-01	6.066283e+13	8.065969e+13	2.198218e+13	5.579016e+03	2.932872e+03	2.296519e+03	0	3.646874e-04
2.900000e+08	2.621014e+12	0.000000e+00	9.097745e-01	6.049700e+13	8.076733e+13	2.186704e+13	5.575912e+03	2.933500e+03	2.297011e+03	0	3.641208e-04
3.000000e+08	2.608762e+12	0.000000e+00	9.097745e-01	6.033122e+13	8.085337e+13	2.175274e+13	5.572816e+03	2.934002e+03	2.297403e+03	0	3.635525e-04
3.100000e+08	2.596515e+12	0.000000e+00	9.097745e-01	6.016555e+13	8.091901e+13	2.163927e+13	5.569729e+03	2.934384e+03	2.297703e+03	0	3.629827e-04
3.200000e+08	2.584276e+12	0.000000e+00	9.097745e-01	6.000003e+13	8.096540e+13	2.152662e+13	5.566650e+03	2.934654e+03	2.297914e+03	0	3.624115e-04
3.300000e+08	2.572050e+12	0.000000e+00	9.097745e-01	5.983471e+13	8.099365e+13	2.141480e+13	5.563579e+03	2.934819e+03	2.298043e+03	0	3.618391e-04
3.400000e+08	2.559840e+12	0.000000e+00	9.097745e-01	5.966962e+13	8.100484e+13	2.130378e+13	5.560517e+03	2.934884e+03	2.298094e+03	0	3.612656e-04
3.500000e+08	2.547648e+12	0.000000e+00	9.097745e-01	5.950480e+13	8.099997e+13	2.119358e+13	5.557463e+03	2.934855e+03	2.298072e+03	0	3.606912e-04
3.600000e+08	2.535477e+12	0.000000e+00	9.097745e-01	5.934028e+13	8.097998e+13	2.108417e+13	5.554418e+03	2.934739e+03	2.297981e+03	0	3.601159e-04
3.700000e+08	2.523330e+12	0.000000e+00	9.097745e-01	5.917609e+13	8.094580e+13	2.097555e+13	5.551382e+03	2.934540e+03	2.297825e+03	0	3.595399e-04
3.800000e+08	2.511209e+12	0.000000e+00	9.097745e-01	5.901227e+13	8.089832e+13	2.086772e+13	5.548353e+03	2.934264e+03	2.297608e+03	0	3.589633e-04
3.900000e+08	2.499116e+12	0.000000e+00	9.097745e-01	5.884882e+13	8.083833e+13	2.076067e+13	5.545333e+03	2.933914e+03	2.297335e+03	0	3.583861e-04
4.000000e+08	2.487052e+12	0.000000e+00	9.097745e-01	5.868579e+13	8.076663e+13	2.065439e+13	5.542322e+03	2.933496e+03	2.297008e+03	0	3.578085e-04
4.100000e+08	2.475021e+12	0.000000e+00	9.097745e-01	5.852318e+13	8.068396e+13	2.054888e+13	5.539318e+03	2.933014e+03	2.296630e+03	0	3.572306e-04
4.200000e+08	2.463022e+12	0.000000e+00	9.097745e-01	5.836102e+13	8.059104e+13	2.044413e+13	5.536323e+03	2.932471e+03	2.296205e+03	0	3.566524e-04
4.300000e+08	2.451057e+12	0.000000e+00	9.097745e-01	5.819933e+13	8.048851e+13	2.034014e+13	5.533337e+03	2.931872e+03	2.295736e+03	0	3.560739e-04
4.400000e+08	2.439129e+12	0.000000e+00	9.097745e-01	5.803812e+13	8.037701e+13	2.023689e+13	5.530358e+03	2.931220e+03	2.295225e+03	0	3.554954e-04
4.500000e+08	2.427237e+12	0.000000e+00	9.097745e-01	5.787740e+13	8.025713e+13	2.013438e+13	5.527388e+03	2.930518e+03	2.294676e+03	0	3.549167e-04
4.600000e+08	2.415384e+12	0.000000e+00	9.097745e-01	5.771719e+13	8.012944e+13	2.003261e+13	5.524426e+03	2.929770e+03	2.294090e+03	0	3.543380e-04
4.700000e+08	2.403569e+12	0.000000e+00	9.097745e-01	5.755749e+13	7.999446e+13	1.993157e+13	5.521472e+03	2.928977e+03	2.293469e+03	0	3.537593e-04
4.800000e+08	2.391795e+12	0.000000e+00	9.097745e-01	5.739833e+13	7.985270e+13	1.983126e+13	5.518527e+03	2.928144e+03	2.292817e+03	0	3.531807e-04
4.900000e+08	2.380061e+12	0.000000e+00	9.097745e-01	5.723971e+13	7.970463e+13	1.973166e+13	5.515589e+03	2.927273e+03	2.292134e+03	0	3.526022e-04
5.000000e+08	2.368369e+12	0.000000e+00	9.097745e-01	5.708164e+13	7.955069e+13	1.963277e+13	5.512660e+03	2.926365e+03	2.291424e+03	0	3.520239e-04
5.100000e+08	2.356719e+12	0.000000e+00	9.097745e-01	5.692413e+13	7.939130e+13	1.953459e+13	5.509738e+03	2.925425e+03	2.290687e+03	0	3.514458e-04
5.200000e+08	2.345111e+12	0.000000e+00	9.097745e-01	5.676718e+13	7.922685e+13	1.943711e+13	5.506825e+03	2.924453e+03	2.289926e+03	0	3.508678e-04
5.300000e+08	2.333547e+12	0.000000e+00	9.097745e-01	5.661080e+13	7.905772e+13	1.934033e+13	5.503920e+03	2.923451e+03	2.289142e+03	0	3.502901e-04
5.400000e+08	2.322027e+12	0.000000e+00	9.097745e-01	5.645500e+13	7.888425e+13	1.924424e+13	5.501023e+03	2.922423e+03	2.288337e+03	0	3.497128e-04
5.500000e+08	2.310551e+12	0.000000e+00	9.097745e-01	5.629978e+13	7.870679e+13	1.914883e+13	5.498134e+03	2.921369e+03	2.287511e+03	0	3.491357e-04
5.600000e+08	2.299119e+12	0.000000e+00	9.097745e-01	5.614515e+13	7.852563e+13	1.905409e+13	5.495252e+03	2.920291e+03	2.286667e+03	0	3.485589e-04
5.700000e+08	2.287733e+12	0.000000e+00	9.097745e-01	5.599110e+13	7.834105e+13	1.896003e+13	5.492379e+03	2.919190e+03	2.285806e+03	0	3.479826e-04
5.800000e+08	2.276391e+12	0.000000e+00	9.097745e-01	5.583765e+13	7.815335e+13	1.886664e+13	5.489513e+03	2.918070e+03	2.284928e+03	0	3.474066e-04
5.900000e+08	2.265095e+12	0.000000e+00	9.097745e-01	5.568480e+13	7.796277e+13	1.877391e+13	5.486656e+03	2.916930e+03	2.284036e+03	0	3.468310e-04
6.000000e+08	2.253845e+12	0.000000e+00	9.097745e-01	5.553254e+13	7.776955e+13	1.868184e+13	5.483806e+03	2.915772e+03	2.283129e+03	0	3.462558e-04
6.100000e+08	2.242641e+12	0.000000e+00	9.097745e-01	5.538089e+13	7.757393e+13	1.859042e+13	5.480964e+03	2.914597e+03	2.282209e+03	0	3.456811e-04
6.200000e+08	2.231482e+12	0.000000e+00	9.097745e-01	5.522984e+13	7.737612e+13	1.849964e+13	5.478129e+03	2.913407e+03	2.281277e+03	0	3.451068e-04
6.300000e+08	2.220370e+12	0.000000e+00	9.097745e-01	5.507939e+13	7.717631e+13	1.840950e+13	5.475303e+03	2.912203e+03	2.280334e+03	0	3.445330e-04
6.400000e+08	2.209304e+12	0.000000e+00	9.097745e-01	5.492954e+13	7.697469e+13	1.832000e+13	5.472484e+03	2.910985e+03	2.279381e+03	0	3.439597e-04
6.500000e+08	2.198284e+12	0.000000e+00	9.097745e-01	5.478031e+13	7.677144e+13	1.823114e+13	5.469673e+03	2.909756e+03	2.278418e+03	0	3.433868e-04
6.600000e+08	2.187310e+12	0.000000e+00	9.097745e-01	5.463168e+13	7.656673e+13	1.814289e+13	5.466869e+03	2.908514e+03	2.277446e+03	0	3.428145e-04
6.700000e+08	2.176383e+12	0.000000e+00	9.097745e-01	5.448365e+13	7.636070e+13	1.805527e+13	5.464073e+03	2.907263e+03	2.276466e+03	0	3.422427e-04
6.800000e+08	2.165503e+12	0.000000e+00	9.097745e-01	5.433624e+13	7.615351e+13	1.796826e+13	5.461285e+03	2.906002e+03	2.275479e+03	0	3.416714e-04
6.900000e+08	2.154668e+12	0.000000e+00	9.097745e-01	5.418943e+13	7.594528e+13	1.788186e+13	5.458504e+03	2.904731e+03	2.274484e+03	0	3.411006e-04
7.000000e+08	2.143880e+12	0.000000e+00	9.097745e-01	5.404322e+13	7.573616e+13	1.779607e+13	5.455730e+03	2.903453e+03	2.273483e+03	0	3.405304e-04
7.100000e+08	2.133139e+12	0.000000e+00	9.097745e-01	5.389762e+13	7.552626e+13	1.771088e+13	5.452964e+03	2.902168e+03	2.272476e+03	0	3.399607e-04
7.200000e+08	2.122444e+12	0.000000e+00	9.097745e-01	5.375263e+13	7.531569e+13	1.762628e+13	5.450206e+03	2.900875e+03	2.271464e+03	0	3.393916e-04
7.300000e+08	2.111795e+12	0.000000e+00	9.097745e-01	5.360824e+13	7.510455e+13	1.754228e+13	5.447455e+03	2.899576e+03	2.270448e+03	0	3.388230e-04
7.400000e+08	2.101192e+12	0.000000e+00	9.097745e-01	5.346445e+13	7.489295e+13	1.745886e+13	5.444711e+03	2.898272e+03	2.269426e+03	0	3.382550e-04
7.500000e+08	2.090635e+12	0.000000e+00	9.097745e-01	5.332127e+13	7.468098e+13	1.737602e+13	5.441975e+03	2.896963e+03	2.268401e+03	0	3.376876e-04
7.600000e+08	2.080124e+12	0.000000e+00	9.097745e-01	5.317868e+13	7.446871e+13	1.729376e+13	5.439246e+03	2.895649e+03	2.267372e+03	0	3.371207e-04
7.700000e+08	2.069659e+12	0.000000e+00	9.097745e-01	5.303669e+13	7.425625e+13	1.721208e+13	5.436524e+03	2.894331e+03	2.266340e+03	0	3.365544e-04
7.800000e+08	2.059240e+12	0.000000e+00	9.097745e-01	5.289530e+13	7.404365e+13	1.713096e+13	5.433810e+03	2.893010e+03	2.265305e+03	0	3.359887e-04
7.900000e+08	2.048866e+12	0.000000e+00	9.097745e-01	5.275451e+13	7.383099e+13	1.705040e+13	5.431102e+03	2.891685e+03	2.264268e+03	0	3.354236e-04
8.000000e+08	2.038538e+12	0.000000e+00	9.097745e-01	5.261430e+13	7.361833e+13	1.697040e+13	5.428402e+03	2.890357e+03	2.263229e+03	0	3.348590e-04
8.100000e+08	2.028255e+12	0.000000e+00	9.097745e-01	5.247469e+13	7.340576e+13	1.689096e+13	5.425709e+03	2.889027e+03	2.262187e+03	0	3.342950e-04
8.200000e+08	2.018017e+12	0.000000e+00	9.097745e-01	5.233567e+13	7.319330e+13	1.681207e+13	5.423024e+03	2.887695e+03	2.261144e+03	0	3.337316e-04
8.300000e+08	2.007825e+12	0.000000e+00	9.097745e-01	5.219724e+13	7.298102e+13	1.673372e+13	5.420345e+03	2.886361e+03	2.260099e+03	0	3.331688e-04
8.400000e+08	1.997677e+12	0.000000e+00	9.097745e-01	5.205939e+13	7.276897e+13	1.665591e+13	5.417674e+03	2.885025e+03	2.259054e+03	0	3.326066e-04
8.500000e+08	1.987574e+12	0.000000e+00	9.097745e-01	5.192212e+13	7.255720e+13	1.657864e+13	5.415009e+03	2.883689e+03	2.258007e+03	0	3.320449e-04
8.600000e+08	1.977515e+12	0.000000e+00	9.097745e-01	5.178544e+13	7.234575e+13	1.650190e+13	5.412352e+03	2.882351e+03	2.256960e+03	0	3.314838e-04
8.700000e+08	1.967501e+12	0.000000e+00	9.097745e-01	5.164933e+13	7.213467e+13	1.642569e+13	5.409701e+03	2.881013e+03	2.255912e+03	0	3.309233e-04
8.800000e+08	1.957531e+12	0.000000e+00	9.097745e-01	5.151380e+13	7.192398e+13	1.635001e+13	5.407058e+03	2.879675e+03	2.254864e+03	0	3.303634e-04
8.900000e+08	1.947605e+12	0.000000e+00	9.097745e-01	5.137885e+13	7.171373e+13	1.627485e+13	5.404421e+03	2.878336e+03	2.253816e+03	0	3.298041e-04
9.000000e+08	1.937723e+12	0.000000e+00	9.097745e-01	5.124446e+13	7.150394e+13	1.620020e+13	5.401791e+03	2.876998e+03	2.252768e+03	0	3.292453e-04
9.100000e+08	1.927884e+12	0.000000e+00	9.097745e-01	5.111065e+13	7.129466e+13	1.612606e+13	5.399169e+03	2.875659e+03	2.251720e+03	0	3.286871e-04
9.200000e+08	1.918089e+12	0.000000e+00	9.097745e-01	5.097740e+13	7.108591e+13	1.605243e+13	5.396553e+03	2.874321e+03	2.250672e+03	0	3.281295e-04
9.300000e+08	1.908337e+12	0.000000e+00	9.097745e-01	5.084471e+13	7.087772e+13	1.597930e+13	5.393943e+03	2.872984e+03	2.249625e+03	0	3.275725e-04
9.400000e+08	1.898628e+12	0.000000e+00	9.097745e-01	5.071259e+13	7.067010e+13	1.590668e+13	5.391341e+03	2.871647e+03	2.248578e+03	0	3.270160e-04
9.500000e+08	1.888962e+12	0.000000e+00	9.097745e-01	5.058103e+13	7.046308e+13	1.583455e+13	5.388745e+03	2.870312e+03	2.247533e+03	0	3.264601e-04
9.600000e+08	1.879339e+12	0.000000e+00	9.097745e-01	5.045002e+13	7.025669e+13	1.576291e+13	5.386157e+03	2.868977e+03	2.246488e+03	0	3.259048e-04
9.700000e+08	1.869758e+12	0.000000e+00	9.097745e-01	5.031956e+13	7.005094e+13	1.569176e+13	5.383574e+03	2.867644e+03	2.245444e+03	0	3.253500e-04
9.800000e+08	1.860219e+12	0.000000e+00	9.097745e-01	5.018966e+13	6.984585e+13	1.562109e+13	5.380999e+03	2.866312e+03	2.244401e+03	0	3.247958e-04
9.900000e+08	1.850722e+12	0.000000e+00	9.097745e-01	5.006031e+13	6.964144e+13	1.555091e+13	5.378430e+03	2.864982e+03	2.243359e+03	0	3.242421e-04
1.000000e+09	1.841267e+12	0.000000e+00	9.097745e-01	4.993150e+13	6.943772e+13	1.548120e+13	5.375868e+03	2.863653e+03	2.242319e+03	0	3.236890e-04
1.010000e+09	1.831854e+12	0.000000e+00	9.097745e-01	4.980323e+13	6.923471e+13	1.541196e+13	5.373312e+03	2.862326e+03	2.241279e+03	0	3.231365e-04
1.020000e+09	1.822482e+12	0.000000e+00	9.097745e-01	4.967550e+13	6.903243e+13	1.534319e+13	5.370763e+03	2.861001e+03	2.240242e+03	0	3.225845e-04
1.030000e+09	1.813151e+12	0.000000e+00	9.097745e-01	4.954832e+13	6.883087e+13	1.527489e+13	5.368220e+03	2.859677e+03	2.239205e+03	0	3.220330e-04
1.040000e+09	1.803862e+12	0.000000e+00	9.097745e-01	4.942166e+13	6.863006e+13	1.520705e+13	5.365684e+03	2.858356e+03	2.238171e+03	0	3.214821e-04
1.050000e+09	1.794613e+12	0.000000e+00	9.097745e-01	4.929554e+13	6.843000e+13	1.513966e+13	5.363155e+03	2.857036e+03	2.237138e+03	0	3.209317e-04
1.060000e+09	1.785404e+12	0.000000e+00	9.097745e-01	4.916995e+13	6.823071e+13	1.507274e+13	5.360632e+03	2.855719e+03	2.236106e+03	0	3.203819e-04
1.070000e+09	1.776236e+12	0.000000e+00	9.097745e-01	4.904489e+13	6.803218e+13	1.500626e+13	5.358115e+03	2.854404e+03	2.235076e+03	0	3.198325e-04
1.080000e+09	1.767109e+12	0.000000e+00	9.097745e-01	4.892035e+13	6.783443e+13	1.494023e+13	5.355605e+03	2.853092e+03	2.234049e+03	0	3.192837e-04
1.090000e+09	1.758021e+12	0.000000e+00	9.097745e-01	4.879633e+13	6.763747e+13	1.487464e+13	5.353101e+03	2.851781e+03	2.233023e+03	0	3.187355e-04
1.100000e+09	1.748973e+12	0.000000e+00	9.097745e-01	4.867283e+13	6.744130e+13	1.480950e+13	5.350603e+03	2.850473e+03	2.231998e+03	0	3.181877e-04
1.110000e+09	1.739964e+12	0.000000e+00	9.097745e-01	4.854984e+13	6.724591e+13	1.474479e+13	5.348112e+03	2.849168e+03	2.230976e+03	0	3.176404e-04
1.120000e+09	1.730995e+12	0.000000e+00	9.097745e-01	4.842737e+13	6.705134e+13	1.468051e+13	5.345627e+03	2.847865e+03	2.229956e+03	0	3.170937e-04
1.130000e+09	1.722065e+12	0.000000e+00	9.097745e-01	4.830541e+13	6.685756e+13	1.461667e+13	5.343148e+03	2.846564e+03	2.228938e+03	0	3.165475e-04
1.140000e+09	1.713173e+12	0.000000e+00	9.097745e-01	4.818396e+13	6.666460e+13	1.455325e+13	5.340675e+03	2.845267e+03	2.227921e+03	0	3.160017e-04
1.150000e+09	1.704321e+12	0.000000e+00	9.097745e-01	4.806302e+13	6.647245e+13	1.449025e+13	5.338209e+03	2.843971e+03	2.226907e+03	0	3.154565e-04
1.160000e+09	1.695506e+12	0.000000e+00	9.097745e-01	4.794257e+13	6.628110e+13	1.442768e+13	5.335749e+03	2.842679e+03	2.225895e+03	0	3.149117e-04
1.170000e+09	1.686731e+12	0.000000e+00	9.097745e-01	4.782263e+13	6.609058e+13	1.436552e+13	5.333295e+03	2.841389e+03	2.224885e+03	0	3.143675e-04
1.180000e+09	1.677993e+12	0.000000e+00	9.097745e-01	4.770318e+13	6.590087e+13	1.430378e+13	5.330847e+03	2.840102e+03	2.223878e+03	0	3.138237e-04
1.190000e+09	1.669293e+12	0.000000e+00	9.097745e-01	4.758423e+13	6.571198e+13	1.424244e+13	5.328405e+03	2.838818e+03	2.222872e+03	0	3.132804e-04
1.200000e+09	1.660631e+12	0.000000e+00	9.097745e-01	4.746577e+13	6.552392e+13	1.418152e+13	5.325970e+03	2.837537e+03	2.221869e+03	0	3.127376e-04
1.210000e+09	1.652006e+12	0.000000e+00	9.097745e-01	4.734780e+13	6.533667e+13	1.412099e+13	5.323540e+03	2.836258e+03	2.220868e+03	0	3.121952e-04
1.220000e+09	1.643418e+12	0.000000e+00	9.097745e-01	4.723032e+13	6.515023e+13	1.406087e+13	5.321117e+03	2.834983e+03	2.219869e+03	0	3.116533e-04
1.230000e+09	1.634868e+12	0.000000e+00	9.097745e-01	4.711332e+13	6.496463e+13	1.400115e+13	5.318699e+03	2.833710e+03	2.218872e+03	0	3.111119e-04
1.240000e+09	1.626354e+12	0.000000e+00	9.097745e-01	4.699680e+13	6.477984e+13	1.394182e+13	5.316288e+03	2.832440e+03	2.217878e+03	0	3.105709e-04
1.250000e+09	1.617877e+12	0.000000e+00	9.097745e-01	4.688076e+13	6.459587e+13	1.388288e+13	5.313882e+03	2.831173e+03	2.216886e+03	0	3.100304e-04
1.260000e+09	1.609437e+12	0.000000e+00	9.097745e-01	4.676520e+13	6.441272e+13	1.382433e+13	5.311482e+03	2.829909e+03	2.215896e+03	0	3.094903e-04
1.270000e+09	1.601032e+12	0.000000e+00	9.097745e-01	4.665011e+13	6.423039e+13	1.376617e+13	5.309089e+03	2.828648e+03	2.214908e+03	0	3.089506e-04
1.280000e+09	1.592664e+12	0.000000e+00	9.097745e-01	4.653549e+13	6.404887e+13	1.370839e+13	5.306701e+03	2.827390e+03	2.213923e+03	0	3.084114e-04
1.290000e+09	1.584332e+12	0.000000e+00	9.097745e-01	4.642134e+13	6.386818e+13	1.365099e+13	5.304319e+03	2.826135e+03	2.212941e+03	0	3.078726e-04
1.300000e+09	1.576035e+12	0.000000e+00	9.097745e-01	4.630766e+13	6.368829e+13	1.359396e+13	5.301943e+03	2.824883e+03	2.211960e+03	0	3.073343e-04
1.310000e+09	1.567773e+12	0.000000e+00	9.097745e-01	4.619444e+13	6.350921e+13	1.353731e+13	5.299572e+03	2.823633e+03	2.210982e+03	0	3.067963e-04
1.320000e+09	1.559547e+12	0.000000e+00	9.097745e-01	4.608169e+13	6.333094e+13	1.348103e+13	5.297208e+03	2.822387e+03	2.210006e+03	0	3.062588e-04
1.330000e+09	1.551356e+12	0.000000e+00	9.097745e-01	4.596939e+13	6.315348e+13	1.342512e+13	5.294849e+03	2.821144e+03	2.209033e+03	0	3.057217e-04
1.340000e+09	1.543200e+12	0.000000e+00	9.097745e-01	4.585755e+13	6.297683e+13	1.336957e+13	5.292496e+03	2.819904e+03	2.208062e+03	0	3.051850e-04
1.350000e+09	1.535079e+12	0.000000e+00	9.097745e-01	4.574616e+13	6.280097e+13	1.331439e+13	5.290149e+03	2.818667e+03	2.207093e+03	0	3.046487e-04
1.360000e+09	1.526992e+12	0.000000e+00	9.097745e-01	4.563522e+13	6.262592e+13	1.325957e+13	5.287807e+03	2.817433e+03	2.206127e+03	0	3.041127e-04
