#t		Qconv[W]	Ri[Rp]		R*[Rp]		Qc[W]		Qm[W]		Qr[W]		Tcmb[K]		Tl[K]		Tup[K]		RiFlag		Bs[T]
0.000000e+00	4.948786e+13	0.000000e+00	9.090909e-01	6.144328e+14	6.819055e+13	3.323205e+13	9.726294e+03	3.447122e+03	2.304082e+03	0	9.572696e-04
1.000000e+07	4.960628e+13	0.000000e+00	9.090909e-01	6.154842e+14	9.054516e+13	3.304792e+13	9.704372e+03	3.603195e+03	2.408402e+03	0	9.580325e-04
2.000000e+07	4.957261e+13	0.000000e+00	9.090909e-01	6.149239e+14	1.167548e+14	3.286517e+13	9.682413e+03	3.752836e+03	2.508424e+03	0	9.578157e-04
3.000000e+07	4.940041e+13	0.000000e+00	9.090909e-01	6.128962e+14	1.464461e+14	3.268378e+13	9.660475e+03	3.894591e+03	2.603174e+03	0	9.567054e-04
4.000000e+07	4.910761e+13	0.000000e+00	9.090909e-01	6.095916e+14	1.789760e+14	3.250375e+13	9.638609e+03	4.027184e+03	2.691800e+03	0	9.548115e-04
5.000000e+07	4.871506e+13	0.000000e+00	9.090909e-01	6.052312e+14	2.134840e+14	3.232506e+13	9.616861e+03	4.149600e+03	2.773624e+03	0	9.522605e-04
6.000000e+07	4.824478e+13	0.000000e+00	9.090909e-01	6.000489e+14	2.489766e+14	3.214770e+13	9.595268e+03	4.261141e+03	2.848178e+03	0	9.491863e-04
7.000000e+07	4.771836e+13	0.000000e+00	9.090909e-01	5.942735e+14	2.844279e+14	3.197166e+13	9.573860e+03	4.361453e+03	2.915227e+03	0	9.457214e-04
8.000000e+07	4.715552e+13	0.000000e+00	9.090909e-01	5.881141e+14	3.188772e+14	3.179693e+13	9.552658e+03	4.450517e+03	2.974759e+03	0	9.419884e-04
9.000000e+07	4.657317e+13	0.000000e+00	9.090909e-01	5.817501e+14	3.515060e+14	3.162351e+13	9.531675e+03	4.528622e+03	3.026965e+03	0	9.380946e-04
1.000000e+08	4.598497e+13	0.000000e+00	9.090909e-01	5.753261e+14	3.816857e+14	3.145136e+13	9.510919e+03	4.596300e+03	3.072201e+03	0	9.341286e-04
1.100000e+08	4.540121e+13	0.000000e+00	9.090909e-01	5.689514e+14	4.089949e+14	3.128050e+13	9.490392e+03	4.654270e+03	3.110949e+03	0	9.301590e-04
1.200000e+08	4.482917e+13	0.000000e+00	9.090909e-01	5.627030e+14	4.332090e+14	3.111090e+13	9.470092e+03	4.703369e+03	3.143767e+03	0	9.262359e-04
1.300000e+08	4.427351e+13	0.000000e+00	9.090909e-01	5.566301e+14	4.542739e+14	3.094256e+13	9.450014e+03	4.744492e+03	3.171254e+03	0	9.223931e-04
1.400000e+08	4.373683e+13	0.000000e+00	9.090909e-01	5.507603e+14	4.722685e+14	3.077547e+13	9.430153e+03	4.778544e+03	3.194014e+03	0	9.186508e-04
1.500000e+08	4.322017e+13	0.000000e+00	9.090909e-01	5.451045e+14	4.873676e+14	3.060960e+13	9.410501e+03	4.806400e+03	3.212634e+03	0	9.150191e-04
1.600000e+08	4.272348e+13	0.000000e+00	9.090909e-01	5.396622e+14	4.998061e+14	3.044497e+13	9.391050e+03	4.828884e+03	3.227662e+03	0	9.115005e-04
1.700000e+08	4.224603e+13	0.000000e+00	9.090909e-01	5.344255e+14	5.098512e+14	3.028155e+13	9.371794e+03	4.846749e+03	3.239603e+03	0	9.080923e-04
1.800000e+08	4.178662e+13	0.000000e+00	9.090909e-01	5.293817e+14	5.177792e+14	3.011933e+13	9.352723e+03	4.860671e+03	3.248909e+03	0	9.047886e-04
1.900000e+08	4.134389e+13	0.000000e+00	9.090909e-01	5.245162e+14	5.238605e+14	2.995831e+13	9.333832e+03	4.871246e+03	3.255977e+03	0	9.015818e-04
2.000000e+08	4.091638e+13	0.000000e+00	9.090909e-01	5.198135e+14	5.283496e+14	2.979848e+13	9.315115e+03	4.878996e+03	3.261157e+03	0	8.984635e-04
2.100000e+08	4.050266e+13	0.000000e+00	9.090909e-01	5.152586e+14	5.314786e+14	2.963981e+13	9.296565e+03	4.884370e+03	3.264749e+03	0	8.954250e-04
2.200000e+08	4.010141e+13	0.000000e+00	9.090909e-01	5.108372e+14	5.334555e+14	2.948232e+13	9.278177e+03	4.887753e+03	3.267011e+03	0	8.924582e-04
2.300000e+08	3.971140e+13	0.000000e+00	9.090909e-01	5.065364e+14	5.344626e+14	2.932598e+13	9.259946e+03	4.889474e+03	3.268161e+03	0	8.895556e-04
2.400000e+08	3.933156e+13	0.000000e+00	9.090909e-01	5.023447e+14	5.346589e+14	2.917079e+13	9.241869e+03	4.889808e+03	3.268384e+03	0	8.867103e-04
2.500000e+08	3.896090e+13	0.000000e+00	9.090909e-01	4.982517e+14	5.341800e+14	2.901673e+13	9.223941e+03	4.888991e+03	3.267838e+03	0	8.839161e-04
2.600000e+08	3.859861e+13	0.000000e+00	9.090909e-01	4.942487e+14	5.331427e+14	2.886380e+13	9.206159e+03	4.887218e+03	3.266653e+03	0	8.811677e-04
2.700000e+08	3.824394e+13	0.000000e+00	9.090909e-01	4.903278e+14	5.316447e+14	2.871199e+13	9.188519e+03	4.884655e+03	3.264940e+03	0	8.784605e-04
2.800000e+08	3.789629e+13	0.000000e+00	9.090909e-01	4.864824e+14	5.297695e+14	2.856129e+13	9.171019e+03	4.881437e+03	3.262789e+03	0	8.757905e-04
2.900000e+08	3.755509e+13	0.000000e+00	9.090909e-01	4.827068e+14	5.275862e+14	2.841168e+13	9.153655e+03	4.877682e+03	3.260279e+03	0	8.731543e-04
3.000000e+08	3.721990e+13	0.000000e+00	9.090909e-01	4.789960e+14	5.251532e+14	2.826317e+13	9.136426e+03	4.873483e+03	3.257472e+03	0	8.705488e-04
3.100000e+08	3.689032e+13	0.000000e+00	9.090909e-01	4.753459e+14	5.225190e+14	2.811574e+13	9.119330e+03	4.868921e+03	3.254423e+03	0	8.679715e-04
3.200000e+08	3.656600e+13	0.000000e+00	9.090909e-01	4.717527e+14	5.197241e+14	2.796938e+13	9.102363e+03	4.864063e+03	3.251176e+03	0	8.654205e-04
3.300000e+08	3.624665e+13	0.000000e+00	9.090909e-01	4.682134e+14	5.168019e+14	2.782409e+13	9.085524e+03	4.858963e+03	3.247767e+03	0	8.628937e-04
3.400000e+08	3.593201e+13	0.000000e+00	9.090909e-01	4.647251e+14	5.137804e+14	2.767985e+13	9.068811e+03	4.853669e+03	3.244228e+03	0	8.603897e-04
3.500000e+08	3.562187e+13	0.000000e+00	9.090909e-01	4.612857e+14	5.106827e+14	2.753666e+13	9.052223e+03	4.848217e+03	3.240584e+03	0	8.579071e-04
3.600000e+08	3.531603e+13	0.000000e+00	9.090909e-01	4.578929e+14	5.075280e+14	2.739451e+13	9.035756e+03	4.842640e+03	3.236857e+03	0	8.554448e-04
3.700000e+08	3.501433e+13	0.000000e+00	9.090909e-01	4.545451e+14	5.043320e+14	2.725338e+13	9.019411e+03	4.836965e+03	3.233064e+03	0	8.530018e-04
3.800000e+08	3.471660e+13	0.000000e+00	9.090909e-01	4.512406e+14	5.011078e+14	2.711328e+13	9.003185e+03	4.831214e+03	3.229219e+03	0	8.505773e-04
3.900000e+08	3.442273e+13	0.000000e+00	9.090909e-01	4.479780e+14	4.978662e+14	2.697419e+13	8.987077e+03	4.825405e+03	3.225336e+03	0	8.481705e-04
4.000000e+08	3.413260e+13	0.000000e+00	9.090909e-01	4.447560e+14	4.946161e+14	2.683611e+13	8.971084e+03	4.819553e+03	3.221425e+03	0	8.457808e-04
4.100000e+08	3.384609e+13	0.000000e+00	9.090909e-01	4.415734e+14	4.913648e+14	2.669902e+13	8.955207e+03	4.813671e+03	3.217493e+03	0	8.434076e-04
4.200000e+08	3.356311e+13	0.000000e+00	9.090909e-01	4.384294e+14	4.881185e+14	2.656291e+13	8.939443e+03	4.807769e+03	3.213549e+03	0	8.410505e-04
4.300000e+08	3.328357e+13	0.000000e+00	9.090909e-01	4.353228e+14	4.848818e+14	2.642779e+13	8.923791e+03	4.801857e+03	3.209597e+03	0	8.387090e-04
4.400000e+08	3.300739e+13	0.000000e+00	9.090909e-01	4.322529e+14	4.816589e+14	2.629364e+13	8.908249e+03	4.795942e+03	3.205644e+03	0	8.363828e-04
4.500000e+08	3.273450e+13	0.000000e+00	9.090909e-01	4.292187e+14	4.784529e+14	2.616046e+13	8.892817e+03	4.790030e+03	3.201692e+03	0	8.340714e-04
4.600000e+08	3.246482e+13	0.000000e+00	9.090909e-01	4.262197e+14	4.752667e+14	2.602823e+13	8.877493e+03	4.784126e+03	3.197745e+03	0	8.317747e-04
4.700000e+08	3.219829e+13	0.000000e+00	9.090909e-01	4.232550e+14	4.721023e+14	2.589695e+13	8.862276e+03	4.778233e+03	3.193807e+03	0	8.294922e-04
4.800000e+08	3.193486e+13	0.000000e+00	9.090909e-01	4.203241e+14	4.689614e+14	2.576661e+13	8.847164e+03	4.772357e+03	3.189879e+03	0	8.272238e-04
4.900000e+08	3.167445e+13	0.000000e+00	9.090909e-01	4.174262e+14	4.658454e+14	2.563720e+13	8.832157e+03	4.766498e+03	3.185963e+03	0	8.249692e-04
5.000000e+08	3.141702e+13	0.000000e+00	9.090909e-01	4.145608e+14	4.627555e+14	2.550872e+13	8.817253e+03	4.760661e+03	3.182061e+03	0	8.227282e-04
5.100000e+08	3.116252e+13	0.000000e+00	9.090909e-01	4.117273e+14	4.596922e+14	2.538116e+13	8.802451e+03	4.754846e+03	3.178175e+03	0	8.205006e-04
5.200000e+08	3.091089e+13	0.000000e+00	9.090909e-01	4.089252e+14	4.566563e+14	2.525450e+13	8.787750e+03	4.749056e+03	3.174304e+03	0	8.182861e-04
5.300000e+08	3.066208e+13	0.000000e+00	9.090909e-01	4.061539e+14	4.536483e+14	2.512875e+13	8.773148e+03	4.743291e+03	3.170451e+03	0	8.160847e-04
5.400000e+08	3.041605e+13	0.000000e+00	9.090909e-01	4.034130e+14	4.506683e+14	2.500390e+13	8.758646e+03	4.737552e+03	3.166615e+03	0	8.138961e-04
5.500000e+08	3.017275e+13	0.000000e+00	9.090909e-01	4.007019e+14	4.477167e+14	2.487993e+13	8.744241e+03	4.731842e+03	3.162798e+03	0	8.117201e-04
5.600000e+08	2.993214e+13	0.000000e+00	9.090909e-01	3.980203e+14	4.447934e+14	2.475685e+13	8.729933e+03	4.726159e+03	3.159000e+03	0	8.095567e-04
5.700000e+08	2.969418e+13	0.000000e+00	9.090909e-01	3.953675e+14	4.418987e+14	2.463464e+13	8.715720e+03	4.720505e+03	3.155220e+03	0	8.074057e-04
5.800000e+08	2.945882e+13	0.000000e+00	9.090909e-01	3.927432e+14	4.390324e+14	2.451329e+13	8.701602e+03	4.714879e+03	3.151461e+03	0	8.052668e-04
5.900000e+08	2.922603e+13	0.000000e+00	9.090909e-01	3.901470e+14	4.361942e+14	2.439281e+13	8.687577e+03	4.709283e+03	3.147720e+03	0	8.031401e-04
6.000000e+08	2.899576e+13	0.000000e+00	9.090909e-01	3.875784e+14	4.333842e+14	2.427318e+13	8.673645e+03	4.703717e+03	3.143999e+03	0	8.010253e-04
6.100000e+08	2.876799e+13	0.000000e+00	9.090909e-01	3.850370e+14	4.306022e+14	2.415439e+13	8.659804e+03	4.698180e+03	3.140299e+03	0	7.989223e-04
6.200000e+08	2.854266e+13	0.000000e+00	9.090909e-01	3.825224e+14	4.278478e+14	2.403645e+13	8.646054e+03	4.692673e+03	3.136617e+03	0	7.968309e-04
6.300000e+08	2.831975e+13	0.000000e+00	9.090909e-01	3.800342e+14	4.251210e+14	2.391934e+13	8.632394e+03	4.687195e+03	3.132956e+03	0	7.947512e-04
6.400000e+08	2.809922e+13	0.000000e+00	9.090909e-01	3.775721e+14	4.224214e+14	2.380305e+13	8.618822e+03	4.681747e+03	3.129315e+03	0	7.926828e-04
6.500000e+08	2.788103e+13	0.000000e+00	9.090909e-01	3.751356e+14	4.197488e+14	2.368758e+13	8.605338e+03	4.676329e+03	3.125693e+03	0	7.906258e-04
6.600000e+08	2.766516e+13	0.000000e+00	9.090909e-01	3.727244e+14	4.171029e+14	2.357293e+13	8.591940e+03	4.670940e+03	3.122091e+03	0	7.885800e-04
6.700000e+08	2.745156e+13	0.000000e+00	9.090909e-01	3.703381e+14	4.144834e+14	2.345908e+13	8.578629e+03	4.665580e+03	3.118508e+03	0	7.865452e-04
6.800000e+08	2.724021e+13	0.000000e+00	9.090909e-01	3.679764e+14	4.118899e+14	2.334603e+13	8.565403e+03	4.660249e+03	3.114945e+03	0	7.845215e-04
6.900000e+08	2.703107e+13	0.000000e+00	9.090909e-01	3.656389e+14	4.093223e+14	2.323377e+13	8.552261e+03	4.654948e+03	3.111402e+03	0	7.825085e-04
7.000000e+08	2.682411e+13	0.000000e+00	9.090909e-01	3.633253e+14	4.067802e+14	2.312230e+13	8.539202e+03	4.649675e+03	3.107878e+03	0	7.805064e-04
7.100000e+08	2.661930e+13	0.000000e+00	9.090909e-01	3.610352e+14	4.042633e+14	2.301161e+13	8.526225e+03	4.644431e+03	3.104373e+03	0	7.785149e-04
7.200000e+08	2.641661e+13	0.000000e+00	9.090909e-01	3.587684e+14	4.017712e+14	2.290170e+13	8.513330e+03	4.639216e+03	3.100886e+03	0	7.765339e-04
7.300000e+08	2.621601e+13	0.000000e+00	9.090909e-01	3.565244e+14	3.993037e+14	2.279255e+13	8.500516e+03	4.634029e+03	3.097419e+03	0	7.745633e-04
7.400000e+08	2.601748e+13	0.000000e+00	9.090909e-01	3.543031e+14	3.968605e+14	2.268417e+13	8.487782e+03	4.628870e+03	3.093971e+03	0	7.726031e-04
7.500000e+08	2.582098e+13	0.000000e+00	9.090909e-01	3.521040e+14	3.944412e+14	2.257654e+13	8.475128e+03	4.623738e+03	3.090541e+03	0	7.706531e-04
7.600000e+08	2.562648e+13	0.000000e+00	9.090909e-01	3.499269e+14	3.920456e+14	2.246966e+13	8.462551e+03	4.618635e+03	3.087130e+03	0	7.687132e-04
7.700000e+08	2.543396e+13	0.000000e+00	9.090909e-01	3.477715e+14	3.896734e+14	2.236352e+13	8.450052e+03	4.613559e+03	3.083737e+03	0	7.667834e-04
7.800000e+08	2.524339e+13	0.000000e+00	9.090909e-01	3.456374e+14	3.873243e+14	2.225813e+13	8.437630e+03	4.608510e+03	3.080362e+03	0	7.648635e-04
7.900000e+08	2.505475e+13	0.000000e+00	9.090909e-01	3.435244e+14	3.849978e+14	2.215346e+13	8.425284e+03	4.603488e+03	3.077006e+03	0	7.629534e-04
8.000000e+08	2.486800e+13	0.000000e+00	9.090909e-01	3.414322e+14	3.826939e+14	2.204952e+13	8.413013e+03	4.598493e+03	3.073667e+03	0	7.610531e-04
8.100000e+08	2.468312e+13	0.000000e+00	9.090909e-01	3.393606e+14	3.804122e+14	2.194630e+13	8.400817e+03	4.593524e+03	3.070346e+03	0	7.591625e-04
8.200000e+08	2.450009e+13	0.000000e+00	9.090909e-01	3.373092e+14	3.781524e+14	2.184379e+13	8.388695e+03	4.588582e+03	3.067042e+03	0	7.572814e-04
8.300000e+08	2.431888e+13	0.000000e+00	9.090909e-01	3.352777e+14	3.759141e+14	2.174200e+13	8.376646e+03	4.583665e+03	3.063756e+03	0	7.554097e-04
8.400000e+08	2.413948e+13	0.000000e+00	9.090909e-01	3.332660e+14	3.736973e+14	2.164090e+13	8.364669e+03	4.578775e+03	3.060487e+03	0	7.535475e-04
8.500000e+08	2.396184e+13	0.000000e+00	9.090909e-01	3.312738e+14	3.715015e+14	2.154051e+13	8.352764e+03	4.573911e+03	3.057236e+03	0	7.516946e-04
8.600000e+08	2.378595e+13	0.000000e+00	9.090909e-01	3.293007e+14	3.693265e+14	2.144080e+13	8.340930e+03	4.569072e+03	3.054001e+03	0	7.498508e-04
8.700000e+08	2.361179e+13	0.000000e+00	9.090909e-01	3.273466e+14	3.671720e+14	2.134179e+13	8.329167e+03	4.564258e+03	3.050784e+03	0	7.480162e-04
8.800000e+08	2.343934e+13	0.000000e+00	9.090909e-01	3.254112e+14	3.650379e+14	2.124345e+13	8.317473e+03	4.559469e+03	3.047583e+03	0	7.461907e-04
8.900000e+08	2.326856e+13	0.000000e+00	9.090909e-01	3.234942e+14	3.629237e+14	2.114579e+13	8.305848e+03	4.554705e+03	3.044399e+03	0	7.443740e-04
9.000000e+08	2.309945e+13	0.000000e+00	9.090909e-01	3.215955e+14	3.608293e+14	2.104880e+13	8.294291e+03	4.549965e+03	3.041231e+03	0	7.425663e-04
9.100000e+08	2.293197e+13	0.000000e+00	9.090909e-01	3.197147e+14	3.587545e+14	2.095247e+13	8.282802e+03	4.545251e+03	3.038079e+03	0	7.407673e-04
9.200000e+08	2.276611e+13	0.000000e+00	9.090909e-01	3.178517e+14	3.566989e+14	2.085680e+13	8.271380e+03	4.540560e+03	3.034944e+03	0	7.389771e-04
9.300000e+08	2.260185e+13	0.000000e+00	9.090909e-01	3.160061e+14	3.546623e+14	2.076179e+13	8.260025e+03	4.535893e+03	3.031825e+03	0	7.371955e-04
9.400000e+08	2.243916e+13	0.000000e+00	9.090909e-01	3.141779e+14	3.526445e+14	2.066743e+13	8.248735e+03	4.531250e+03	3.028721e+03	0	7.354224e-04
9.500000e+08	2.227802e+13	0.000000e+00	9.090909e-01	3.123668e+14	3.506453e+14	2.057371e+13	8.237511e+03	4.526631e+03	3.025634e+03	0	7.336578e-04
9.600000e+08	2.211842e+13	0.000000e+00	9.090909e-01	3.105725e+14	3.486644e+14	2.048063e+13	8.226351e+03	4.522035e+03	3.022562e+03	0	7.319017e-04
9.700000e+08	2.196033e+13	0.000000e+00	9.090909e-01	3.087949e+14	3.467016e+14	2.038819e+13	8.215255e+03	4.517462e+03	3.019505e+03	0	7.301538e-04
9.800000e+08	2.180374e+13	0.000000e+00	9.090909e-01	3.070337e+14	3.447567e+14	2.029637e+13	8.204223e+03	4.512912e+03	3.016464e+03	0	7.284142e-04
9.900000e+08	2.164863e+13	0.000000e+00	9.090909e-01	3.052887e+14	3.428293e+14	2.020518e+13	8.193253e+03	4.508386e+03	3.013439e+03	0	7.266827e-04
1.000000e+09	2.149497e+13	0.000000e+00	9.090909e-01	3.035597e+14	3.409194e+14	2.011461e+13	8.182345e+03	4.503881e+03	3.010428e+03	0	7.249594e-04
1.010000e+09	2.134276e+13	0.000000e+00	9.090909e-01	3.018466e+14	3.390269e+14	2.002465e+13	8.171500e+03	4.499400e+03	3.007432e+03	0	7.232441e-04
1.020000e+09	2.119196e+13	0.000000e+00	9.090909e-01	3.001491e+14	3.371512e+14	1.993530e+13	8.160715e+03	4.494940e+03	3.004451e+03	0	7.215367e-04
1.030000e+09	2.104257e+13	0.000000e+00	9.090909e-01	2.984670e+14	3.352924e+14	1.984655e+13	8.149991e+03	4.490503e+03	3.001485e+03	0	7.198372e-04
1.040000e+09	2.089456e+13	0.000000e+00	9.090909e-01	2.968001e+14	3.334501e+14	1.975841e+13	8.139326e+03	4.486087e+03	2.998534e+03	0	7.181455e-04
1.050000e+09	2.074793e+13	0.000000e+00	9.090909e-01	2.951483e+14	3.316242e+14	1.967086e+13	8.128722e+03	4.481693e+03	2.995597e+03	0	7.164616e-04
1.060000e+09	2.060264e+13	0.000000e+00	9.090909e-01	2.935114e+14	3.298145e+14	1.958390e+13	8.118176e+03	4.477321e+03	2.992675e+03	0	7.147854e-04
1.070000e+09	2.045869e+13	0.000000e+00	9.090909e-01	2.918891e+14	3.280209e+14	1.949752e+13	8.107688e+03	4.472970e+03	2.989767e+03	0	7.131168e-04
1.080000e+09	2.031606e+13	0.000000e+00	9.090909e-01	2.902814e+14	3.262429e+14	1.941173e+13	8.097259e+03	4.468641e+03	2.986873e+03	0	7.114557e-04
1.090000e+09	2.017473e+13	0.000000e+00	9.090909e-01	2.886880e+14	3.244807e+14	1.932651e+13	8.086886e+03	4.464332e+03	2.983993e+03	0	7.098021e-04
1.100000e+09	2.003468e+13	0.000000e+00	9.090909e-01	2.871087e+14	3.227339e+14	1.924187e+13	8.076571e+03	4.460044e+03	2.981127e+03	0	7.081559e-04
1.110000e+09	1.989591e+13	0.000000e+00	9.090909e-01	2.855434e+14	3.210023e+14	1.915780e+13	8.066312e+03	4.455777e+03	2.978275e+03	0	7.065170e-04
1.120000e+09	1.975839e+13	0.000000e+00	9.090909e-01	2.839919e+14	3.192857e+14	1.907428e+13	8.056108e+03	4.451531e+03	2.975436e+03	0	7.048855e-04
1.130000e+09	1.962211e+13	0.000000e+00	9.090909e-01	2.824541e+14	3.175841e+14	1.899133e+13	8.045960e+03	4.447304e+03	2.972611e+03	0	7.032611e-04
1.140000e+09	1.948706e+13	0.000000e+00	9.090909e-01	2.809297e+14	3.158971e+14	1.890893e+13	8.035867e+03	4.443098e+03	2.969800e+03	0	7.016439e-04
1.150000e+09	1.935321e+13	0.000000e+00	9.090909e-01	2.794187e+14	3.142247e+14	1.882708e+13	8.025829e+03	4.438912e+03	2.967002e+03	0	7.000338e-04
1.160000e+09	1.922056e+13	0.000000e+00	9.090909e-01	2.779208e+14	3.125667e+14	1.874578e+13	8.015844e+03	4.434746e+03	2.964218e+03	0	6.984308e-04
1.170000e+09	1.908909e+13	0.000000e+00	9.090909e-01	2.764360e+14	3.109228e+14	1.866502e+13	8.005912e+03	4.430600e+03	2.961446e+03	0	6.968347e-04
1.180000e+09	1.895879e+13	0.000000e+00	9.090909e-01	2.749640e+14	3.092930e+14	1.858479e+13	7.996034e+03	4.426473e+03	2.958688e+03	0	6.952456e-04
1.190000e+09	1.882964e+13	0.000000e+00	9.090909e-01	2.735047e+14	3.076770e+14	1.850510e+13	7.986208e+03	4.422366e+03	2.955942e+03	0	6.936633e-04
1.200000e+09	1.870163e+13	0.000000e+00	9.090909e-01	2.720579e+14	3.060748e+14	1.842594e+13	7.976434e+03	4.418278e+03	2.953210e+03	0	6.920878e-04
1.210000e+09	1.857474e+13	0.000000e+00	9.090909e-01	2.706235e+14	3.044861e+14	1.834730e+13	7.966712e+03	4.414209e+03	2.950490e+03	0	6.905190e-04
1.220000e+09	1.844897e+13	0.000000e+00	9.090909e-01	2.692014e+14	3.029108e+14	1.826919e+13	7.957040e+03	4.410159e+03	2.947783e+03	0	6.889569e-04
1.230000e+09	1.832430e+13	0.000000e+00	9.090909e-01	2.677914e+14	3.013486e+14	1.819159e+13	7.947420e+03	4.406128e+03	2.945089e+03	0	6.874015e-04
1.240000e+09	1.820071e+13	0.000000e+00	9.090909e-01	2.663934e+14	2.997997e+14	1.811450e+13	7.937850e+03	4.402115e+03	2.942407e+03	0	6.858526e-04
1.250000e+09	1.807819e+13	0.000000e+00	9.090909e-01	2.650072e+14	2.982636e+14	1.803793e+13	7.928330e+03	4.398121e+03	2.939737e+03	0	6.843102e-04
1.260000e+09	1.795674e+13	0.000000e+00	9.090909e-01	2.636328e+14	2.967403e+14	1.796185e+13	7.918859e+03	4.394146e+03	2.937080e+03	0	6.827743e-04
1.270000e+09	1.783634e+13	0.000000e+00	9.090909e-01	2.622698e+14	2.952297e+14	1.788628e+13	7.909437e+03	4.390189e+03	2.934435e+03	0	6.812449e-04
1.280000e+09	1.771697e+13	0.000000e+00	9.090909e-01	2.609183e+14	2.937315e+14	1.781121e+13	7.900064e+03	4.386249e+03	2.931802e+03	0	6.797217e-04
1.290000e+09	1.759862e+13	0.000000e+00	9.090909e-01	2.595781e+14	2.922457e+14	1.773663e+13	7.890739e+03	4.382328e+03	2.929181e+03	0	6.782049e-04
1.300000e+09	1.748129e+13	0.000000e+00	9.090909e-01	2.582491e+14	2.907722e+14	1.766254e+13	7.881462e+03	4.378425e+03	2.926572e+03	0	6.766943e-04
1.310000e+09	1.736496e+13	0.000000e+00	9.090909e-01	2.569311e+14	2.893107e+14	1.758893e+13	7.872232e+03	4.374539e+03	2.923975e+03	0	6.751899e-04
1.320000e+09	1.724962e+13	0.000000e+00	9.090909e-01	2.556241e+14	2.878612e+14	1.751581e+13	7.863050e+03	4.370671e+03	2.921389e+03	0	6.736917e-04
1.330000e+09	1.713526e+13	0.000000e+00	9.090909e-01	2.543278e+14	2.864235e+14	1.744316e+13	7.853913e+03	4.366821e+03	2.918815e+03	0	6.721996e-04
1.340000e+09	1.702186e+13	0.000000e+00	9.090909e-01	2.530422e+14	2.849974e+14	1.737099e+13	7.844824e+03	4.362987e+03	2.916253e+03	0	6.707135e-04
1.350000e+09	1.690942e+13	0.000000e+00	9.090909e-01	2.517672e+14	2.835830e+14	1.729929e+13	7.835780e+03	4.359171e+03	2.913702e+03	0	6.692334e-04
1.360000e+09	1.679792e+13	0.000000e+00	9.090909e-01	2.505026e+14	2.821799e+14	1.722806e+13	7.826781e+03	4.355372e+03	2.911163e+03	0	6.677592e-04
