#t		Qconv[W]	Ri[Rp]		R*[Rp]		Qc[W]		Qm[W]		Qr[W]		Tcmb[K]		Tl[K]		Tup[K]		RiFlag		Bs[T]
0.000000e+00	6.243657e+13	0.000000e+00	9.090908e-01	7.876461e+14	7.378786e+13	4.581797e+13	1.091567e+04	3.716329e+03	2.431319e+03	0	1.020675e-03
1.000000e+07	6.296841e+13	0.000000e+00	9.090908e-01	7.921669e+14	9.584713e+13	4.556410e+13	1.089803e+04	3.866838e+03	2.529786e+03	0	1.023565e-03
2.000000e+07	6.332763e+13	0.000000e+00	9.090908e-01	7.951052e+14	1.217922e+14	4.531214e+13	1.088029e+04	4.013380e+03	2.625658e+03	0	1.025508e-03
3.000000e+07	6.351968e+13	0.000000e+00	9.090908e-01	7.965114e+14	1.515376e+14	4.506205e+13	1.086248e+04	4.154864e+03	2.718220e+03	0	1.026544e-03
4.000000e+07	6.355446e+13	0.000000e+00	9.090908e-01	7.964770e+14	1.847930e+14	4.481384e+13	1.084464e+04	4.290243e+03	2.806789e+03	0	1.026731e-03
5.000000e+07	6.344582e+13	0.000000e+00	9.090908e-01	7.951293e+14	2.210658e+14	4.456747e+13	1.082680e+04	4.418570e+03	2.890744e+03	0	1.026146e-03
6.000000e+07	6.321067e+13	0.000000e+00	9.090908e-01	7.926238e+14	2.596882e+14	4.432294e+13	1.080899e+04	4.539039e+03	2.969557e+03	0	1.024876e-03
7.000000e+07	6.286794e+13	0.000000e+00	9.090908e-01	7.891344e+14	2.998637e+14	4.408024e+13	1.079124e+04	4.651023e+03	3.042821e+03	0	1.023021e-03
8.000000e+07	6.243734e+13	0.000000e+00	9.090908e-01	7.848419e+14	3.407267e+14	4.383933e+13	1.077356e+04	4.754101e+03	3.110257e+03	0	1.020680e-03
9.000000e+07	6.193827e+13	0.000000e+00	9.090908e-01	7.799244e+14	3.814084e+14	4.360022e+13	1.075599e+04	4.848060e+03	3.171727e+03	0	1.017953e-03
1.000000e+08	6.138885e+13	0.000000e+00	9.090908e-01	7.745479e+14	4.210968e+14	4.336289e+13	1.073852e+04	4.932895e+03	3.227228e+03	0	1.014934e-03
1.100000e+08	6.080522e+13	0.000000e+00	9.090908e-01	7.688607e+14	4.590849e+14	4.312731e+13	1.072117e+04	5.008785e+03	3.276878e+03	0	1.011707e-03
1.200000e+08	6.020114e+13	0.000000e+00	9.090908e-01	7.629886e+14	4.948032e+14	4.289348e+13	1.070395e+04	5.076071e+03	3.320898e+03	0	1.008346e-03
1.300000e+08	5.958781e+13	0.000000e+00	9.090908e-01	7.570345e+14	5.278335e+14	4.266138e+13	1.068686e+04	5.135216e+03	3.359592e+03	0	1.004910e-03
1.400000e+08	5.897400e+13	0.000000e+00	9.090908e-01	7.510786e+14	5.579085e+14	4.243100e+13	1.066990e+04	5.186773e+03	3.393322e+03	0	1.001447e-03
1.500000e+08	5.836618e+13	0.000000e+00	9.090908e-01	7.451803e+14	5.848987e+14	4.220233e+13	1.065308e+04	5.231351e+03	3.422486e+03	0	9.979951e-04
1.600000e+08	5.776892e+13	0.000000e+00	9.090908e-01	7.393812e+14	6.087912e+14	4.197534e+13	1.063639e+04	5.269586e+03	3.447500e+03	0	9.945793e-04
1.700000e+08	5.718515e+13	0.000000e+00	9.090908e-01	7.337082e+14	6.296665e+14	4.175003e+13	1.061983e+04	5.302112e+03	3.468780e+03	0	9.912178e-04
1.800000e+08	5.661659e+13	0.000000e+00	9.090908e-01	7.281770e+14	6.476738e+14	4.152638e+13	1.060339e+04	5.329549e+03	3.486730e+03	0	9.879218e-04
1.900000e+08	5.606396e+13	0.000000e+00	9.090908e-01	7.227941e+14	6.630085e+14	4.130437e+13	1.058708e+04	5.352481e+03	3.501733e+03	0	9.846969e-04
2.000000e+08	5.552732e+13	0.000000e+00	9.090908e-01	7.175600e+14	6.758929e+14	4.108400e+13	1.057089e+04	5.371456e+03	3.514146e+03	0	9.815451e-04
2.100000e+08	5.500627e+13	0.000000e+00	9.090908e-01	7.124710e+14	6.865619e+14	4.086525e+13	1.055482e+04	5.386971e+03	3.524297e+03	0	9.784652e-04
2.200000e+08	5.450008e+13	0.000000e+00	9.090908e-01	7.075203e+14	6.952503e+14	4.064811e+13	1.053886e+04	5.399477e+03	3.532479e+03	0	9.754546e-04
2.300000e+08	5.400787e+13	0.000000e+00	9.090908e-01	7.026998e+14	7.021849e+14	4.043256e+13	1.052301e+04	5.409379e+03	3.538956e+03	0	9.725091e-04
2.400000e+08	5.352867e+13	0.000000e+00	9.090908e-01	6.980005e+14	7.075796e+14	4.021859e+13	1.050727e+04	5.417032e+03	3.543964e+03	0	9.696243e-04
2.500000e+08	5.306150e+13	0.000000e+00	9.090908e-01	6.934135e+14	7.116305e+14	4.000619e+13	1.049164e+04	5.422752e+03	3.547706e+03	0	9.667952e-04
2.600000e+08	5.260539e+13	0.000000e+00	9.090908e-01	6.889298e+14	7.145166e+14	3.979534e+13	1.047610e+04	5.426813e+03	3.550362e+03	0	9.640171e-04
2.700000e+08	5.215946e+13	0.000000e+00	9.090908e-01	6.845412e+14	7.163980e+14	3.958603e+13	1.046067e+04	5.429454e+03	3.552090e+03	0	9.612854e-04
2.800000e+08	5.172285e+13	0.000000e+00	9.090908e-01	6.802400e+14	7.174165e+14	3.937825e+13	1.044534e+04	5.430881e+03	3.553024e+03	0	9.585957e-04
2.900000e+08	5.129482e+13	0.000000e+00	9.090908e-01	6.760193e+14	7.176966e+14	3.917199e+13	1.043010e+04	5.431273e+03	3.553281e+03	0	9.559441e-04
3.000000e+08	5.087468e+13	0.000000e+00	9.090908e-01	6.718726e+14	7.173478e+14	3.896724e+13	1.041495e+04	5.430785e+03	3.552961e+03	0	9.533270e-04
3.100000e+08	5.046182e+13	0.000000e+00	9.090908e-01	6.677945e+14	7.164645e+14	3.876397e+13	1.039990e+04	5.429547e+03	3.552151e+03	0	9.507412e-04
3.200000e+08	5.005571e+13	0.000000e+00	9.090908e-01	6.637799e+14	7.151286e+14	3.856218e+13	1.038494e+04	5.427672e+03	3.550925e+03	0	9.481838e-04
3.300000e+08	4.965587e+13	0.000000e+00	9.090908e-01	6.598245e+14	7.134110e+14	3.836186e+13	1.037007e+04	5.425258e+03	3.549345e+03	0	9.456524e-04
3.400000e+08	4.926188e+13	0.000000e+00	9.090908e-01	6.559245e+14	7.113720e+14	3.816300e+13	1.035529e+04	5.422388e+03	3.547467e+03	0	9.431447e-04
3.500000e+08	4.887338e+13	0.000000e+00	9.090908e-01	6.520764e+14	7.090641e+14	3.796557e+13	1.034060e+04	5.419131e+03	3.545337e+03	0	9.406588e-04
3.600000e+08	4.849005e+13	0.000000e+00	9.090908e-01	6.482774e+14	7.065312e+14	3.776958e+13	1.032599e+04	5.415548e+03	3.542993e+03	0	9.381930e-04
3.700000e+08	4.811160e+13	0.000000e+00	9.090908e-01	6.445248e+14	7.038117e+14	3.757501e+13	1.031146e+04	5.411691e+03	3.540469e+03	0	9.357459e-04
3.800000e+08	4.773780e+13	0.000000e+00	9.090908e-01	6.408164e+14	7.009376e+14	3.738185e+13	1.029702e+04	5.407603e+03	3.537795e+03	0	9.333162e-04
3.900000e+08	4.736842e+13	0.000000e+00	9.090908e-01	6.371501e+14	6.979369e+14	3.719008e+13	1.028267e+04	5.403321e+03	3.534994e+03	0	9.309027e-04
4.000000e+08	4.700328e+13	0.000000e+00	9.090908e-01	6.335243e+14	6.948326e+14	3.699970e+13	1.026839e+04	5.398879e+03	3.532087e+03	0	9.285046e-04
4.100000e+08	4.664221e+13	0.000000e+00	9.090908e-01	6.299373e+14	6.916451e+14	3.681069e+13	1.025420e+04	5.394301e+03	3.529092e+03	0	9.261210e-04
4.200000e+08	4.628506e+13	0.000000e+00	9.090908e-01	6.263878e+14	6.883908e+14	3.662304e+13	1.024008e+04	5.389613e+03	3.526025e+03	0	9.237510e-04
4.300000e+08	4.593170e+13	0.000000e+00	9.090908e-01	6.228746e+14	6.850845e+14	3.643675e+13	1.022605e+04	5.384832e+03	3.522898e+03	0	9.213943e-04
4.400000e+08	4.558201e+13	0.000000e+00	9.090908e-01	6.193965e+14	6.817380e+14	3.625179e+13	1.021209e+04	5.379977e+03	3.519721e+03	0	9.190500e-04
4.500000e+08	4.523588e+13	0.000000e+00	9.090908e-01	6.159526e+14	6.783622e+14	3.606816e+13	1.019822e+04	5.375062e+03	3.516506e+03	0	9.167178e-04
4.600000e+08	4.489322e+13	0.000000e+00	9.090908e-01	6.125420e+14	6.749652e+14	3.588586e+13	1.018442e+04	5.370098e+03	3.513258e+03	0	9.143973e-04
4.700000e+08	4.455395e+13	0.000000e+00	9.090908e-01	6.091639e+14	6.715549e+14	3.570485e+13	1.017069e+04	5.365097e+03	3.509986e+03	0	9.120880e-04
4.800000e+08	4.421798e+13	0.000000e+00	9.090908e-01	6.058175e+14	6.681371e+14	3.552515e+13	1.015704e+04	5.360066e+03	3.506695e+03	0	9.097896e-04
4.900000e+08	4.388524e+13	0.000000e+00	9.090908e-01	6.025023e+14	6.647176e+14	3.534673e+13	1.014347e+04	5.355014e+03	3.503390e+03	0	9.075018e-04
5.000000e+08	4.355568e+13	0.000000e+00	9.090908e-01	5.992175e+14	6.613006e+14	3.516959e+13	1.012997e+04	5.349947e+03	3.500074e+03	0	9.052244e-04
5.100000e+08	4.322922e+13	0.000000e+00	9.090908e-01	5.959626e+14	6.578900e+14	3.499372e+13	1.011654e+04	5.344870e+03	3.496753e+03	0	9.029571e-04
5.200000e+08	4.290580e+13	0.000000e+00	9.090908e-01	5.927370e+14	6.544886e+14	3.481910e+13	1.010319e+04	5.339788e+03	3.493429e+03	0	9.006997e-04
5.300000e+08	4.258539e+13	0.000000e+00	9.090908e-01	5.895404e+14	6.510994e+14	3.464572e+13	1.008991e+04	5.334705e+03	3.490103e+03	0	8.984520e-04
5.400000e+08	4.226792e+13	0.000000e+00	9.090908e-01	5.863721e+14	6.477247e+14	3.447358e+13	1.007670e+04	5.329625e+03	3.486780e+03	0	8.962138e-04
5.500000e+08	4.195334e+13	0.000000e+00	9.090908e-01	5.832317e+14	6.443661e+14	3.430267e+13	1.006356e+04	5.324551e+03	3.483460e+03	0	8.939849e-04
5.600000e+08	4.164163e+13	0.000000e+00	9.090908e-01	5.801189e+14	6.410251e+14	3.413296e+13	1.005049e+04	5.319484e+03	3.480145e+03	0	8.917653e-04
5.700000e+08	4.133272e+13	0.000000e+00	9.090908e-01	5.770332e+14	6.377032e+14	3.396447e+13	1.003749e+04	5.314426e+03	3.476836e+03	0	8.895547e-04
5.800000e+08	4.102658e+13	0.000000e+00	9.090908e-01	5.739742e+14	6.344014e+14	3.379717e+13	1.002456e+04	5.309381e+03	3.473535e+03	0	8.873531e-04
5.900000e+08	4.072318e+13	0.000000e+00	9.090908e-01	5.709416e+14	6.311207e+14	3.363106e+13	1.001170e+04	5.304348e+03	3.470243e+03	0	8.851602e-04
6.000000e+08	4.042247e+13	0.000000e+00	9.090908e-01	5.679350e+14	6.278614e+14	3.346612e+13	9.998902e+03	5.299330e+03	3.466960e+03	0	8.829761e-04
6.100000e+08	4.012442e+13	0.000000e+00	9.090908e-01	5.649541e+14	6.246243e+14	3.330235e+13	9.986176e+03	5.294328e+03	3.463687e+03	0	8.808005e-04
6.200000e+08	3.982899e+13	0.000000e+00	9.090908e-01	5.619985e+14	6.214098e+14	3.313973e+13	9.973516e+03	5.289342e+03	3.460425e+03	0	8.786335e-04
6.300000e+08	3.953615e+13	0.000000e+00	9.090908e-01	5.590679e+14	6.182183e+14	3.297827e+13	9.960922e+03	5.284373e+03	3.457174e+03	0	8.764748e-04
6.400000e+08	3.924586e+13	0.000000e+00	9.090908e-01	5.561621e+14	6.150499e+14	3.281794e+13	9.948393e+03	5.279421e+03	3.453935e+03	0	8.743244e-04
6.500000e+08	3.895810e+13	0.000000e+00	9.090908e-01	5.532806e+14	6.119050e+14	3.265874e+13	9.935930e+03	5.274488e+03	3.450708e+03	0	8.721823e-04
6.600000e+08	3.867283e+13	0.000000e+00	9.090908e-01	5.504232e+14	6.087835e+14	3.250066e+13	9.923531e+03	5.269573e+03	3.447492e+03	0	8.700482e-04
6.700000e+08	3.839002e+13	0.000000e+00	9.090908e-01	5.475896e+14	6.056856e+14	3.234370e+13	9.911196e+03	5.264678e+03	3.444289e+03	0	8.679222e-04
6.800000e+08	3.810965e+13	0.000000e+00	9.090908e-01	5.447796e+14	6.026111e+14	3.218783e+13	9.898924e+03	5.259802e+03	3.441099e+03	0	8.658041e-04
6.900000e+08	3.783168e+13	0.000000e+00	9.090908e-01	5.419928e+14	5.995602e+14	3.203306e+13	9.886715e+03	5.254945e+03	3.437922e+03	0	8.636939e-04
7.000000e+08	3.755608e+13	0.000000e+00	9.090908e-01	5.392290e+14	5.965329e+14	3.187937e+13	9.874569e+03	5.250108e+03	3.434757e+03	0	8.615915e-04
7.100000e+08	3.728283e+13	0.000000e+00	9.090908e-01	5.364879e+14	5.935289e+14	3.172676e+13	9.862484e+03	5.245290e+03	3.431606e+03	0	8.594969e-04
7.200000e+08	3.701191e+13	0.000000e+00	9.090908e-01	5.337692e+14	5.905482e+14	3.157522e+13	9.850461e+03	5.240493e+03	3.428467e+03	0	8.574099e-04
7.300000e+08	3.674327e+13	0.000000e+00	9.090908e-01	5.310727e+14	5.875907e+14	3.142474e+13	9.838498e+03	5.235715e+03	3.425341e+03	0	8.553304e-04
7.400000e+08	3.647690e+13	0.000000e+00	9.090908e-01	5.283982e+14	5.846562e+14	3.127531e+13	9.826596e+03	5.230957e+03	3.422229e+03	0	8.532585e-04
7.500000e+08	3.621276e+13	0.000000e+00	9.090908e-01	5.257454e+14	5.817445e+14	3.112691e+13	9.814754e+03	5.226220e+03	3.419129e+03	0	8.511940e-04
7.600000e+08	3.595085e+13	0.000000e+00	9.090908e-01	5.231140e+14	5.788556e+14	3.097956e+13	9.802971e+03	5.221502e+03	3.416043e+03	0	8.491369e-04
7.700000e+08	3.569112e+13	0.000000e+00	9.090908e-01	5.205039e+14	5.759892e+14	3.083322e+13	9.791247e+03	5.216804e+03	3.412969e+03	0	8.470871e-04
7.800000e+08	3.543356e+13	0.000000e+00	9.090908e-01	5.179147e+14	5.731452e+14	3.068791e+13	9.779581e+03	5.212126e+03	3.409909e+03	0	8.450445e-04
7.900000e+08	3.517813e+13	0.000000e+00	9.090908e-01	5.153462e+14	5.703235e+14	3.054360e+13	9.767973e+03	5.207468e+03	3.406861e+03	0	8.430091e-04
8.000000e+08	3.492483e+13	0.000000e+00	9.090908e-01	5.127983e+14	5.675236e+14	3.040030e+13	9.756423e+03	5.202829e+03	3.403827e+03	0	8.409808e-04
8.100000e+08	3.467361e+13	0.000000e+00	9.090908e-01	5.102707e+14	5.647456e+14	3.025799e+13	9.744930e+03	5.198211e+03	3.400805e+03	0	8.389596e-04
8.200000e+08	3.442447e+13	0.000000e+00	9.090908e-01	5.077631e+14	5.619891e+14	3.011666e+13	9.733493e+03	5.193611e+03	3.397796e+03	0	8.369453e-04
8.300000e+08	3.417737e+13	0.000000e+00	9.090908e-01	5.052754e+14	5.592541e+14	2.997631e+13	9.722112e+03	5.189032e+03	3.394800e+03	0	8.349380e-04
8.400000e+08	3.393230e+13	0.000000e+00	9.090908e-01	5.028073e+14	5.565403e+14	2.983693e+13	9.710787e+03	5.184472e+03	3.391816e+03	0	8.329375e-04
8.500000e+08	3.368923e+13	0.000000e+00	9.090908e-01	5.003586e+14	5.538474e+14	2.969851e+13	9.699518e+03	5.179931e+03	3.388846e+03	0	8.309438e-04
8.600000e+08	3.344814e+13	0.000000e+00	9.090908e-01	4.979292e+14	5.511754e+14	2.956104e+13	9.688303e+03	5.175409e+03	3.385887e+03	0	8.289569e-04
8.700000e+08	3.320900e+13	0.000000e+00	9.090908e-01	4.955188e+14	5.485239e+14	2.942452e+13	9.677142e+03	5.170906e+03	3.382942e+03	0	8.269767e-04
8.800000e+08	3.297181e+13	0.000000e+00	9.090908e-01	4.931271e+14	5.458929e+14	2.928894e+13	9.666036e+03	5.166423e+03	3.380008e+03	0	8.250031e-04
8.900000e+08	3.273653e+13	0.000000e+00	9.090908e-01	4.907541e+14	5.432819e+14	2.915430e+13	9.654983e+03	5.161958e+03	3.377087e+03	0	8.230361e-04
9.000000e+08	3.250314e+13	0.000000e+00	9.090908e-01	4.883995e+14	5.406912e+14	2.902057e+13	9.643983e+03	5.157512e+03	3.374179e+03	0	8.210756e-04
9.100000e+08	3.227164e+13	0.000000e+00	9.090908e-01	4.860631e+14	5.381201e+14	2.888777e+13	9.633035e+03	5.153084e+03	3.371282e+03	0	8.191215e-04
9.200000e+08	3.204198e+13	0.000000e+00	9.090908e-01	4.837447e+14	5.355687e+14	2.875587e+13	9.622140e+03	5.148676e+03	3.368398e+03	0	8.171738e-04
9.300000e+08	3.181416e+13	0.000000e+00	9.090908e-01	4.814442e+14	5.330366e+14	2.862487e+13	9.611297e+03	5.144285e+03	3.365525e+03	0	8.152325e-04
9.400000e+08	3.158816e+13	0.000000e+00	9.090908e-01	4.791613e+14	5.305237e+14	2.849477e+13	9.600505e+03	5.139913e+03	3.362665e+03	0	8.132975e-04
9.500000e+08	3.136396e+13	0.000000e+00	9.090908e-01	4.768958e+14	5.280299e+14	2.836556e+13	9.589765e+03	5.135559e+03	3.359817e+03	0	8.113687e-04
9.600000e+08	3.114153e+13	0.000000e+00	9.090908e-01	4.746476e+14	5.255550e+14	2.823723e+13	9.579075e+03	5.131223e+03	3.356980e+03	0	8.094462e-04
9.700000e+08	3.092086e+13	0.000000e+00	9.090908e-01	4.724166e+14	5.230986e+14	2.810977e+13	9.568435e+03	5.126906e+03	3.354155e+03	0	8.075297e-04
9.800000e+08	3.070193e+13	0.000000e+00	9.090908e-01	4.702024e+14	5.206607e+14	2.798318e+13	9.557846e+03	5.122606e+03	3.351342e+03	0	8.056193e-04
9.900000e+08	3.048472e+13	0.000000e+00	9.090908e-01	4.680050e+14	5.182410e+14	2.785745e+13	9.547306e+03	5.118323e+03	3.348540e+03	0	8.037150e-04
1.000000e+09	3.026921e+13	0.000000e+00	9.090908e-01	4.658242e+14	5.158395e+14	2.773258e+13	9.536815e+03	5.114059e+03	3.345750e+03	0	8.018166e-04
1.010000e+09	3.005539e+13	0.000000e+00	9.090908e-01	4.636597e+14	5.134559e+14	2.760855e+13	9.526373e+03	5.109811e+03	3.342972e+03	0	7.999241e-04
1.020000e+09	2.984324e+13	0.000000e+00	9.090908e-01	4.615115e+14	5.110899e+14	2.748536e+13	9.515979e+03	5.105582e+03	3.340205e+03	0	7.980376e-04
1.030000e+09	2.963274e+13	0.000000e+00	9.090908e-01	4.593794e+14	5.087416e+14	2.736300e+13	9.505634e+03	5.101369e+03	3.337449e+03	0	7.961568e-04
1.040000e+09	2.942388e+13	0.000000e+00	9.090908e-01	4.572632e+14	5.064105e+14	2.724147e+13	9.495336e+03	5.097174e+03	3.334704e+03	0	7.942818e-04
1.050000e+09	2.921663e+13	0.000000e+00	9.090908e-01	4.551627e+14	5.040968e+14	2.712077e+13	9.485085e+03	5.092995e+03	3.331970e+03	0	7.924126e-04
1.060000e+09	2.901098e+13	0.000000e+00	9.090908e-01	4.530778e+14	5.017999e+14	2.700087e+13	9.474882e+03	5.088834e+03	3.329248e+03	0	7.905490e-04
1.070000e+09	2.880692e+13	0.000000e+00	9.090908e-01	4.510083e+14	4.995201e+14	2.688179e+13	9.464725e+03	5.084690e+03	3.326536e+03	0	7.886911e-04
1.080000e+09	2.860442e+13	0.000000e+00	9.090908e-01	4.489541e+14	4.972570e+14	2.676350e+13	9.454615e+03	5.080562e+03	3.323836e+03	0	7.868387e-04
1.090000e+09	2.840347e+13	0.000000e+00	9.090908e-01	4.469150e+14	4.950102e+14	2.664601e+13	9.444550e+03	5.076451e+03	3.321146e+03	0	7.849918e-04
1.100000e+09	2.820406e+13	0.000000e+00	9.090908e-01	4.448909e+14	4.927800e+14	2.652931e+13	9.434531e+03	5.072356e+03	3.318467e+03	0	7.831505e-04
1.110000e+09	2.800617e+13	0.000000e+00	9.090908e-01	4.428816e+14	4.905659e+14	2.641340e+13	9.424558e+03	5.068277e+03	3.315799e+03	0	7.813145e-04
1.120000e+09	2.780979e+13	0.000000e+00	9.090908e-01	4.408870e+14	4.883678e+14	2.629825e+13	9.414629e+03	5.064215e+03	3.313142e+03	0	7.794840e-04
1.130000e+09	2.761489e+13	0.000000e+00	9.090908e-01	4.389068e+14	4.861857e+14	2.618388e+13	9.404745e+03	5.060170e+03	3.310495e+03	0	7.776588e-04
1.140000e+09	2.742147e+13	0.000000e+00	9.090908e-01	4.369411e+14	4.840193e+14	2.607028e+13	9.394906e+03	5.056140e+03	3.307858e+03	0	7.758389e-04
1.150000e+09	2.722950e+13	0.000000e+00	9.090908e-01	4.349896e+14	4.818684e+14	2.595743e+13	9.385110e+03	5.052126e+03	3.305232e+03	0	7.740243e-04
1.160000e+09	2.703899e+13	0.000000e+00	9.090908e-01	4.330522e+14	4.797330e+14	2.584533e+13	9.375358e+03	5.048128e+03	3.302617e+03	0	7.722148e-04
1.170000e+09	2.684990e+13	0.000000e+00	9.090908e-01	4.311287e+14	4.776129e+14	2.573399e+13	9.365650e+03	5.044146e+03	3.300012e+03	0	7.704105e-04
1.180000e+09	2.666223e+13	0.000000e+00	9.090908e-01	4.292191e+14	4.755079e+14	2.562338e+13	9.355984e+03	5.040179e+03	3.297417e+03	0	7.686114e-04
1.190000e+09	2.647596e+13	0.000000e+00	9.090908e-01	4.273231e+14	4.734179e+14	2.551351e+13	9.346361e+03	5.036228e+03	3.294832e+03	0	7.668173e-04
1.200000e+09	2.629108e+13	0.000000e+00	9.090908e-01	4.254407e+14	4.713427e+14	2.540436e+13	9.336781e+03	5.032293e+03	3.292257e+03	0	7.650282e-04
1.210000e+09	2.610757e+13	0.000000e+00	9.090908e-01	4.235717e+14	4.692822e+14	2.529595e+13	9.327243e+03	5.028373e+03	3.289692e+03	0	7.632441e-04
1.220000e+09	2.592542e+13	0.000000e+00	9.090908e-01	4.217160e+14	4.672364e+14	2.518825e+13	9.317747e+03	5.024468e+03	3.287138e+03	0	7.614650e-04
1.230000e+09	2.574462e+13	0.000000e+00	9.090908e-01	4.198734e+14	4.652048e+14	2.508126e+13	9.308292e+03	5.020578e+03	3.284593e+03	0	7.596907e-04
1.240000e+09	2.556515e+13	0.000000e+00	9.090908e-01	4.180439e+14	4.631876e+14	2.497498e+13	9.298878e+03	5.016703e+03	3.282058e+03	0	7.579213e-04
1.250000e+09	2.538701e+13	0.000000e+00	9.090908e-01	4.162272e+14	4.611845e+14	2.486940e+13	9.289506e+03	5.012844e+03	3.279533e+03	0	7.561568e-04
1.260000e+09	2.521017e+13	0.000000e+00	9.090908e-01	4.144234e+14	4.591955e+14	2.476451e+13	9.280174e+03	5.008999e+03	3.277018e+03	0	7.543970e-04
1.270000e+09	2.503463e+13	0.000000e+00	9.090908e-01	4.126322e+14	4.572203e+14	2.466032e+13	9.270882e+03	5.005169e+03	3.274512e+03	0	7.526419e-04
1.280000e+09	2.486037e+13	0.000000e+00	9.090908e-01	4.108536e+14	4.552588e+14	2.455682e+13	9.261631e+03	5.001354e+03	3.272016e+03	0	7.508915e-04
1.290000e+09	2.468738e+13	0.000000e+00	9.090908e-01	4.090873e+14	4.533111e+14	2.445399e+13	9.252419e+03	4.997553e+03	3.269529e+03	0	7.491458e-04
1.300000e+09	2.451565e+13	0.000000e+00	9.090908e-01	4.073334e+14	4.513766e+14	2.435184e+13	9.243247e+03	4.993767e+03	3.267052e+03	0	7.474046e-04
1.310000e+09	2.434516e+13	0.000000e+00	9.090908e-01	4.055916e+14	4.494558e+14	2.425036e+13	9.234114e+03	4.989995e+03	3.264585e+03	0	7.456681e-04
1.320000e+09	2.417591e+13	0.000000e+00	9.090908e-01	4.038619e+14	4.475480e+14	2.414954e+13	9.225021e+03	4.986238e+03	3.262127e+03	0	7.439360e-04
1.330000e+09	2.400787e+13	0.000000e+00	9.090908e-01	4.021442e+14	4.456533e+14	2.404938e+13	9.215965e+03	4.982495e+03	3.259678e+03	0	7.422085e-04
1.340000e+09	2.384105e+13	0.000000e+00	9.090908e-01	4.004383e+14	4.437716e+14	2.394988e+13	9.206949e+03	4.978766e+03	3.257238e+03	0	7.404853e-04
1.350000e+09	2.367543e+13	0.000000e+00	9.090908e-01	3.987441e+14	4.419028e+14	2.385102e+13	9.197970e+03	4.975051e+03	3.254808e+03	0	7.387666e-04
1.360000e+09	2.351099e+13	0.000000e+00	9.090908e-01	3.970616e+14	4.400468e+14	2.375281e+13	9.189030e+03	4.971350e+03	3.252386e+03	0	7.370523e-04
