#t		Qconv[W]	Ri[Rp]		R*[Rp]		Qc[W]		Qm[W]		Qr[W]		Tcmb[K]		Tl[K]		Tup[K]		RiFlag		Bs[T]
0.000000e+00	2.325190e+13	0.000000e+00	8.899082e-01	4.352468e+14	3.828608e+13	1.588034e+13	9.008005e+03	2.827951e+03	2.153247e+03	0	8.013145e-04
1.000000e+07	2.309755e+13	0.000000e+00	8.899082e-01	4.323630e+14	6.070807e+13	1.579235e+13	8.953197e+03	3.046902e+03	2.319960e+03	0	7.995375e-04
2.000000e+07	2.281297e+13	0.000000e+00	8.899082e-01	4.270963e+14	8.915523e+13	1.570502e+13	8.898751e+03	3.250362e+03	2.474878e+03	0	7.962403e-04
3.000000e+07	2.242359e+13	0.000000e+00	8.899082e-01	4.199123e+14	1.223343e+14	1.561834e+13	8.844965e+03	3.434062e+03	2.614750e+03	0	7.916841e-04
4.000000e+07	2.196003e+13	0.000000e+00	8.899082e-01	4.113718e+14	1.581068e+14	1.553231e+13	8.792079e+03	3.594936e+03	2.737242e+03	0	7.861905e-04
5.000000e+07	2.145301e+13	0.000000e+00	8.899082e-01	4.020372e+14	1.939748e+14	1.544692e+13	8.740264e+03	3.731511e+03	2.841233e+03	0	7.800927e-04
6.000000e+07	2.092903e+13	0.000000e+00	8.899082e-01	3.923935e+14	2.276372e+14	1.536217e+13	8.689619e+03	3.843947e+03	2.926843e+03	0	7.736892e-04
7.000000e+07	2.040793e+13	0.000000e+00	8.899082e-01	3.828038e+14	2.573980e+14	1.527805e+13	8.640184e+03	3.933768e+03	2.995234e+03	0	7.672140e-04
8.000000e+07	1.990254e+13	0.000000e+00	8.899082e-01	3.735029e+14	2.823203e+14	1.519455e+13	8.591950e+03	4.003414e+03	3.048263e+03	0	7.608278e-04
9.000000e+07	1.941974e+13	0.000000e+00	8.899082e-01	3.646165e+14	3.021582e+14	1.511168e+13	8.544883e+03	4.055768e+03	3.088127e+03	0	7.546252e-04
1.000000e+08	1.896209e+13	0.000000e+00	8.899082e-01	3.561917e+14	3.171682e+14	1.502942e+13	8.498930e+03	4.093770e+03	3.117062e+03	0	7.486502e-04
1.100000e+08	1.852949e+13	0.000000e+00	8.899082e-01	3.482266e+14	3.278994e+14	1.494777e+13	8.454033e+03	4.120160e+03	3.137156e+03	0	7.429132e-04
1.200000e+08	1.812039e+13	0.000000e+00	8.899082e-01	3.406924e+14	3.350216e+14	1.486672e+13	8.410135e+03	4.137337e+03	3.150235e+03	0	7.374050e-04
1.300000e+08	1.773262e+13	0.000000e+00	8.899082e-01	3.335496e+14	3.392092e+14	1.478628e+13	8.367182e+03	4.147314e+03	3.157832e+03	0	7.321068e-04
1.400000e+08	1.736390e+13	0.000000e+00	8.899082e-01	3.267565e+14	3.410758e+14	1.470643e+13	8.325124e+03	4.151734e+03	3.161197e+03	0	7.269970e-04
1.500000e+08	1.701211e+13	0.000000e+00	8.899082e-01	3.202741e+14	3.411469e+14	1.462717e+13	8.283918e+03	4.151902e+03	3.161325e+03	0	7.220538e-04
1.600000e+08	1.667538e+13	0.000000e+00	8.899082e-01	3.140682e+14	3.398546e+14	1.454850e+13	8.243525e+03	4.148844e+03	3.158997e+03	0	7.172581e-04
1.700000e+08	1.635213e+13	0.000000e+00	8.899082e-01	3.081097e+14	3.375440e+14	1.447041e+13	8.203910e+03	4.143357e+03	3.154819e+03	0	7.125931e-04
1.800000e+08	1.604101e+13	0.000000e+00	8.899082e-01	3.023742e+14	3.344856e+14	1.439289e+13	8.165042e+03	4.136053e+03	3.149257e+03	0	7.080449e-04
1.900000e+08	1.574093e+13	0.000000e+00	8.899082e-01	2.968415e+14	3.308886e+14	1.431594e+13	8.126894e+03	4.127401e+03	3.142670e+03	0	7.036019e-04
2.000000e+08	1.545098e+13	0.000000e+00	8.899082e-01	2.914947e+14	3.269131e+14	1.423956e+13	8.089440e+03	4.117761e+03	3.135329e+03	0	6.992549e-04
2.100000e+08	1.517038e+13	0.000000e+00	8.899082e-01	2.863200e+14	3.226806e+14	1.416375e+13	8.052657e+03	4.107404e+03	3.127444e+03	0	6.949961e-04
2.200000e+08	1.489850e+13	0.000000e+00	8.899082e-01	2.813055e+14	3.182828e+14	1.408849e+13	8.016523e+03	4.096541e+03	3.119172e+03	0	6.908192e-04
2.300000e+08	1.463480e+13	0.000000e+00	8.899082e-01	2.764412e+14	3.137884e+14	1.401378e+13	7.981019e+03	4.085327e+03	3.110634e+03	0	6.867191e-04
2.400000e+08	1.437880e+13	0.000000e+00	8.899082e-01	2.717186e+14	3.092488e+14	1.393962e+13	7.946125e+03	4.073884e+03	3.101921e+03	0	6.826914e-04
2.500000e+08	1.413010e+13	0.000000e+00	8.899082e-01	2.671302e+14	3.047023e+14	1.386600e+13	7.911824e+03	4.062303e+03	3.093102e+03	0	6.787324e-04
2.600000e+08	1.388833e+13	0.000000e+00	8.899082e-01	2.626694e+14	3.001771e+14	1.379292e+13	7.878099e+03	4.050652e+03	3.084231e+03	0	6.748391e-04
2.700000e+08	1.365318e+13	0.000000e+00	8.899082e-01	2.583303e+14	2.956937e+14	1.372037e+13	7.844935e+03	4.038984e+03	3.075348e+03	0	6.710087e-04
2.800000e+08	1.342436e+13	0.000000e+00	8.899082e-01	2.541075e+14	2.912669e+14	1.364836e+13	7.812315e+03	4.027340e+03	3.066481e+03	0	6.672390e-04
2.900000e+08	1.320160e+13	0.000000e+00	8.899082e-01	2.499962e+14	2.869074e+14	1.357687e+13	7.780225e+03	4.015748e+03	3.057655e+03	0	6.635277e-04
3.000000e+08	1.298466e+13	0.000000e+00	8.899082e-01	2.459920e+14	2.826225e+14	1.350590e+13	7.748652e+03	4.004231e+03	3.048886e+03	0	6.598730e-04
3.100000e+08	1.277331e+13	0.000000e+00	8.899082e-01	2.420907e+14	2.784170e+14	1.343545e+13	7.717583e+03	3.992805e+03	3.040186e+03	0	6.562732e-04
3.200000e+08	1.256734e+13	0.000000e+00	8.899082e-01	2.382884e+14	2.742941e+14	1.336551e+13	7.687003e+03	3.981483e+03	3.031565e+03	0	6.527267e-04
3.300000e+08	1.236657e+13	0.000000e+00	8.899082e-01	2.345816e+14	2.702555e+14	1.329608e+13	7.656901e+03	3.970274e+03	3.023030e+03	0	6.492320e-04
3.400000e+08	1.217079e+13	0.000000e+00	8.899082e-01	2.309668e+14	2.663017e+14	1.322715e+13	7.627265e+03	3.959183e+03	3.014585e+03	0	6.457877e-04
3.500000e+08	1.197984e+13	0.000000e+00	8.899082e-01	2.274409e+14	2.624327e+14	1.315873e+13	7.598083e+03	3.948215e+03	3.006234e+03	0	6.423927e-04
3.600000e+08	1.179356e+13	0.000000e+00	8.899082e-01	2.240008e+14	2.586477e+14	1.309080e+13	7.569345e+03	3.937373e+03	2.997979e+03	0	6.390455e-04
3.700000e+08	1.161178e+13	0.000000e+00	8.899082e-01	2.206435e+14	2.549458e+14	1.302336e+13	7.541039e+03	3.926658e+03	2.989821e+03	0	6.357452e-04
3.800000e+08	1.143435e+13	0.000000e+00	8.899082e-01	2.173665e+14	2.513256e+14	1.295641e+13	7.513155e+03	3.916071e+03	2.981760e+03	0	6.324906e-04
3.900000e+08	1.126114e+13	0.000000e+00	8.899082e-01	2.141669e+14	2.477854e+14	1.288995e+13	7.485684e+03	3.905612e+03	2.973796e+03	0	6.292805e-04
4.000000e+08	1.109200e+13	0.000000e+00	8.899082e-01	2.110424e+14	2.443235e+14	1.282396e+13	7.458615e+03	3.895280e+03	2.965928e+03	0	6.261141e-04
4.100000e+08	1.092681e+13	0.000000e+00	8.899082e-01	2.079905e+14	2.409381e+14	1.275845e+13	7.431938e+03	3.885073e+03	2.958157e+03	0	6.229903e-04
4.200000e+08	1.076543e+13	0.000000e+00	8.899082e-01	2.050089e+14	2.376273e+14	1.269341e+13	7.405646e+03	3.874992e+03	2.950481e+03	0	6.199082e-04
4.300000e+08	1.060776e+13	0.000000e+00	8.899082e-01	2.020954e+14	2.343892e+14	1.262884e+13	7.379729e+03	3.865034e+03	2.942899e+03	0	6.168668e-04
4.400000e+08	1.045367e+13	0.000000e+00	8.899082e-01	1.992479e+14	2.312220e+14	1.256474e+13	7.354179e+03	3.855198e+03	2.935409e+03	0	6.138654e-04
4.500000e+08	1.030306e+13	0.000000e+00	8.899082e-01	1.964644e+14	2.281235e+14	1.250109e+13	7.328986e+03	3.845481e+03	2.928011e+03	0	6.109030e-04
4.600000e+08	1.015581e+13	0.000000e+00	8.899082e-01	1.937430e+14	2.250922e+14	1.243791e+13	7.304144e+03	3.835882e+03	2.920702e+03	0	6.079788e-04
4.700000e+08	1.001184e+13	0.000000e+00	8.899082e-01	1.910817e+14	2.221260e+14	1.237517e+13	7.279645e+03	3.826399e+03	2.913482e+03	0	6.050920e-04
4.800000e+08	9.871027e+12	0.000000e+00	8.899082e-01	1.884787e+14	2.192232e+14	1.231289e+13	7.255481e+03	3.817031e+03	2.906348e+03	0	6.022419e-04
4.900000e+08	9.733292e+12	0.000000e+00	8.899082e-01	1.859324e+14	2.163820e+14	1.225105e+13	7.231644e+03	3.807774e+03	2.899300e+03	0	5.994277e-04
5.000000e+08	9.598542e+12	0.000000e+00	8.899082e-01	1.834410e+14	2.136007e+14	1.218965e+13	7.208128e+03	3.798627e+03	2.892336e+03	0	5.966486e-04
5.100000e+08	9.466688e+12	0.000000e+00	8.899082e-01	1.810029e+14	2.108777e+14	1.212869e+13	7.184925e+03	3.789588e+03	2.885453e+03	0	5.939040e-04
5.200000e+08	9.337647e+12	0.000000e+00	8.899082e-01	1.786167e+14	2.082113e+14	1.206817e+13	7.162030e+03	3.780655e+03	2.878652e+03	0	5.911931e-04
5.300000e+08	9.211338e+12	0.000000e+00	8.899082e-01	1.762808e+14	2.055999e+14	1.200808e+13	7.139435e+03	3.771826e+03	2.871929e+03	0	5.885153e-04
5.400000e+08	9.087682e+12	0.000000e+00	8.899082e-01	1.739938e+14	2.030421e+14	1.194842e+13	7.117135e+03	3.763100e+03	2.865285e+03	0	5.858700e-04
5.500000e+08	8.966605e+12	0.000000e+00	8.899082e-01	1.717542e+14	2.005363e+14	1.188918e+13	7.095122e+03	3.754474e+03	2.858717e+03	0	5.832564e-04
5.600000e+08	8.848033e+12	0.000000e+00	8.899082e-01	1.695609e+14	1.980811e+14	1.183036e+13	7.073391e+03	3.745946e+03	2.852224e+03	0	5.806741e-04
5.700000e+08	8.731897e+12	0.000000e+00	8.899082e-01	1.674123e+14	1.956752e+14	1.177196e+13	7.051937e+03	3.737515e+03	2.845804e+03	0	5.781223e-04
5.800000e+08	8.618129e+12	0.000000e+00	8.899082e-01	1.653075e+14	1.933172e+14	1.171398e+13	7.030754e+03	3.729179e+03	2.839457e+03	0	5.756005e-04
5.900000e+08	8.506664e+12	0.000000e+00	8.899082e-01	1.632450e+14	1.910058e+14	1.165640e+13	7.009836e+03	3.720937e+03	2.833181e+03	0	5.731082e-04
6.000000e+08	8.397438e+12	0.000000e+00	8.899082e-01	1.612238e+14	1.887398e+14	1.159923e+13	6.989177e+03	3.712785e+03	2.826974e+03	0	5.706447e-04
6.100000e+08	8.290392e+12	0.000000e+00	8.899082e-01	1.592428e+14	1.865179e+14	1.154247e+13	6.968774e+03	3.704724e+03	2.820836e+03	0	5.682096e-04
6.200000e+08	8.185466e+12	0.000000e+00	8.899082e-01	1.573009e+14	1.843389e+14	1.148611e+13	6.948620e+03	3.696751e+03	2.814765e+03	0	5.658022e-04
6.300000e+08	8.082603e+12	0.000000e+00	8.899082e-01	1.553969e+14	1.822019e+14	1.143015e+13	6.928710e+03	3.688864e+03	2.808760e+03	0	5.634222e-04
6.400000e+08	7.981749e+12	0.000000e+00	8.899082e-01	1.535300e+14	1.801055e+14	1.137458e+13	6.909041e+03	3.681063e+03	2.802820e+03	0	5.610689e-04
6.500000e+08	7.882851e+12	0.000000e+00	8.899082e-01	1.516992e+14	1.780488e+14	1.131940e+13	6.889607e+03	3.673345e+03	2.796944e+03	0	5.587420e-04
6.600000e+08	7.785857e+12	0.000000e+00	8.899082e-01	1.499034e+14	1.760309e+14	1.126461e+13	6.870404e+03	3.665709e+03	2.791130e+03	0	5.564408e-04
6.700000e+08	7.690717e+12	0.000000e+00	8.899082e-01	1.481418e+14	1.740505e+14	1.121021e+13	6.851428e+03	3.658154e+03	2.785377e+03	0	5.541651e-04
6.800000e+08	7.597385e+12	0.000000e+00	8.899082e-01	1.464135e+14	1.721069e+14	1.115618e+13	6.832673e+03	3.650678e+03	2.779685e+03	0	5.519142e-04
6.900000e+08	7.505812e+12	0.000000e+00	8.899082e-01	1.447177e+14	1.701990e+14	1.110254e+13	6.814137e+03	3.643280e+03	2.774052e+03	0	5.496878e-04
7.000000e+08	7.415955e+12	0.000000e+00	8.899082e-01	1.430535e+14	1.683260e+14	1.104927e+13	6.795814e+03	3.635958e+03	2.768477e+03	0	5.474854e-04
7.100000e+08	7.327770e+12	0.000000e+00	8.899082e-01	1.414201e+14	1.664870e+14	1.099638e+13	6.777701e+03	3.628712e+03	2.762960e+03	0	5.453067e-04
7.200000e+08	7.241215e+12	0.000000e+00	8.899082e-01	1.398168e+14	1.646811e+14	1.094386e+13	6.759794e+03	3.621540e+03	2.757498e+03	0	5.431511e-04
7.300000e+08	7.156248e+12	0.000000e+00	8.899082e-01	1.382427e+14	1.629076e+14	1.089170e+13	6.742090e+03	3.614440e+03	2.752093e+03	0	5.410183e-04
7.400000e+08	7.072831e+12	0.000000e+00	8.899082e-01	1.366972e+14	1.611656e+14	1.083991e+13	6.724584e+03	3.607412e+03	2.746741e+03	0	5.389080e-04
7.500000e+08	6.990925e+12	0.000000e+00	8.899082e-01	1.351796e+14	1.594543e+14	1.078847e+13	6.707273e+03	3.600454e+03	2.741443e+03	0	5.368196e-04
7.600000e+08	6.910493e+12	0.000000e+00	8.899082e-01	1.336892e+14	1.577731e+14	1.073740e+13	6.690153e+03	3.593565e+03	2.736198e+03	0	5.347530e-04
7.700000e+08	6.831499e+12	0.000000e+00	8.899082e-01	1.322253e+14	1.561212e+14	1.068668e+13	6.673222e+03	3.586744e+03	2.731004e+03	0	5.327076e-04
7.800000e+08	6.753908e+12	0.000000e+00	8.899082e-01	1.307873e+14	1.544978e+14	1.063632e+13	6.656475e+03	3.579989e+03	2.725862e+03	0	5.306831e-04
7.900000e+08	6.677687e+12	0.000000e+00	8.899082e-01	1.293745e+14	1.529024e+14	1.058630e+13	6.639910e+03	3.573301e+03	2.720769e+03	0	5.286792e-04
8.000000e+08	6.602802e+12	0.000000e+00	8.899082e-01	1.279864e+14	1.513342e+14	1.053663e+13	6.623523e+03	3.566677e+03	2.715725e+03	0	5.266955e-04
8.100000e+08	6.529222e+12	0.000000e+00	8.899082e-01	1.266223e+14	1.497927e+14	1.048731e+13	6.607311e+03	3.560117e+03	2.710730e+03	0	5.247317e-04
8.200000e+08	6.456916e+12	0.000000e+00	8.899082e-01	1.252818e+14	1.482771e+14	1.043832e+13	6.591271e+03	3.553620e+03	2.705783e+03	0	5.227876e-04
8.300000e+08	6.385855e+12	0.000000e+00	8.899082e-01	1.239642e+14	1.467869e+14	1.038968e+13	6.575401e+03	3.547184e+03	2.700883e+03	0	5.208626e-04
8.400000e+08	6.316008e+12	0.000000e+00	8.899082e-01	1.226690e+14	1.453215e+14	1.034137e+13	6.559696e+03	3.540808e+03	2.696028e+03	0	5.189567e-04
8.500000e+08	6.247348e+12	0.000000e+00	8.899082e-01	1.213957e+14	1.438803e+14	1.029339e+13	6.544156e+03	3.534493e+03	2.691219e+03	0	5.170693e-04
8.600000e+08	6.179848e+12	0.000000e+00	8.899082e-01	1.201438e+14	1.424629e+14	1.024575e+13	6.528776e+03	3.528236e+03	2.686455e+03	0	5.152003e-04
8.700000e+08	6.113480e+12	0.000000e+00	8.899082e-01	1.189128e+14	1.410685e+14	1.019843e+13	6.513554e+03	3.522036e+03	2.681735e+03	0	5.133494e-04
8.800000e+08	6.048220e+12	0.000000e+00	8.899082e-01	1.177023e+14	1.396968e+14	1.015144e+13	6.498488e+03	3.515894e+03	2.677058e+03	0	5.115162e-04
8.900000e+08	5.984042e+12	0.000000e+00	8.899082e-01	1.165117e+14	1.383472e+14	1.010477e+13	6.483574e+03	3.509808e+03	2.672424e+03	0	5.097005e-04
9.000000e+08	5.920921e+12	0.000000e+00	8.899082e-01	1.153406e+14	1.370193e+14	1.005842e+13	6.468811e+03	3.503777e+03	2.667832e+03	0	5.079020e-04
9.100000e+08	5.858834e+12	0.000000e+00	8.899082e-01	1.141886e+14	1.357124e+14	1.001239e+13	6.454195e+03	3.497800e+03	2.663282e+03	0	5.061205e-04
9.200000e+08	5.797758e+12	0.000000e+00	8.899082e-01	1.130553e+14	1.344263e+14	9.966678e+12	6.439725e+03	3.491877e+03	2.658772e+03	0	5.043556e-04
9.300000e+08	5.737671e+12	0.000000e+00	8.899082e-01	1.119402e+14	1.331604e+14	9.921276e+12	6.425399e+03	3.486007e+03	2.654302e+03	0	5.026072e-04
9.400000e+08	5.678550e+12	0.000000e+00	8.899082e-01	1.108429e+14	1.319143e+14	9.876183e+12	6.411213e+03	3.480188e+03	2.649871e+03	0	5.008750e-04
9.500000e+08	5.620375e+12	0.000000e+00	8.899082e-01	1.097631e+14	1.306875e+14	9.831399e+12	6.397165e+03	3.474421e+03	2.645480e+03	0	4.991587e-04
9.600000e+08	5.563125e+12	0.000000e+00	8.899082e-01	1.087004e+14	1.294797e+14	9.786920e+12	6.383254e+03	3.468704e+03	2.641127e+03	0	4.974581e-04
9.700000e+08	5.506780e+12	0.000000e+00	8.899082e-01	1.076544e+14	1.282905e+14	9.742744e+12	6.369478e+03	3.463037e+03	2.636812e+03	0	4.957729e-04
9.800000e+08	5.451321e+12	0.000000e+00	8.899082e-01	1.066247e+14	1.271194e+14	9.698868e+12	6.355833e+03	3.457419e+03	2.632534e+03	0	4.941029e-04
9.900000e+08	5.396729e+12	0.000000e+00	8.899082e-01	1.056111e+14	1.259661e+14	9.655291e+12	6.342318e+03	3.451849e+03	2.628293e+03	0	4.924480e-04
1.000000e+09	5.342984e+12	0.000000e+00	8.899082e-01	1.046131e+14	1.248302e+14	9.612009e+12	6.328932e+03	3.446326e+03	2.624088e+03	0	4.908078e-04
1.010000e+09	5.290071e+12	0.000000e+00	8.899082e-01	1.036304e+14	1.237113e+14	9.569021e+12	6.315672e+03	3.440850e+03	2.619919e+03	0	4.891822e-04
1.020000e+09	5.237970e+12	0.000000e+00	8.899082e-01	1.026628e+14	1.226091e+14	9.526324e+12	6.302535e+03	3.435421e+03	2.615785e+03	0	4.875710e-04
1.030000e+09	5.186664e+12	0.000000e+00	8.899082e-01	1.017098e+14	1.215232e+14	9.483916e+12	6.289521e+03	3.430037e+03	2.611685e+03	0	4.859739e-04
1.040000e+09	5.136139e+12	0.000000e+00	8.899082e-01	1.007712e+14	1.204533e+14	9.441795e+12	6.276628e+03	3.424698e+03	2.607620e+03	0	4.843907e-04
1.050000e+09	5.086376e+12	0.000000e+00	8.899082e-01	9.984676e+13	1.193992e+14	9.399958e+12	6.263853e+03	3.419403e+03	2.603588e+03	0	4.828212e-04
1.060000e+09	5.037361e+12	0.000000e+00	8.899082e-01	9.893610e+13	1.183603e+14	9.358404e+12	6.251195e+03	3.414152e+03	2.599590e+03	0	4.812653e-04
1.070000e+09	4.989078e+12	0.000000e+00	8.899082e-01	9.803896e+13	1.173366e+14	9.317129e+12	6.238652e+03	3.408943e+03	2.595624e+03	0	4.797227e-04
1.080000e+09	4.941513e+12	0.000000e+00	8.899082e-01	9.715507e+13	1.163275e+14	9.276132e+12	6.226222e+03	3.403778e+03	2.591691e+03	0	4.781933e-04
1.090000e+09	4.894650e+12	0.000000e+00	8.899082e-01	9.628416e+13	1.153330e+14	9.235411e+12	6.213904e+03	3.398654e+03	2.587789e+03	0	4.766769e-04
1.100000e+09	4.848476e+12	0.000000e+00	8.899082e-01	9.542597e+13	1.143526e+14	9.194963e+12	6.201697e+03	3.393571e+03	2.583919e+03	0	4.751732e-04
1.110000e+09	4.802977e+12	0.000000e+00	8.899082e-01	9.458025e+13	1.133861e+14	9.154786e+12	6.189597e+03	3.388529e+03	2.580080e+03	0	4.736821e-04
1.120000e+09	4.758139e+12	0.000000e+00	8.899082e-01	9.374675e+13	1.124332e+14	9.114879e+12	6.177605e+03	3.383527e+03	2.576272e+03	0	4.722035e-04
1.130000e+09	4.713950e+12	0.000000e+00	8.899082e-01	9.292523e+13	1.114936e+14	9.075238e+12	6.165718e+03	3.378565e+03	2.572494e+03	0	4.707372e-04
1.140000e+09	4.670396e+12	0.000000e+00	8.899082e-01	9.211545e+13	1.105672e+14	9.035863e+12	6.153935e+03	3.373642e+03	2.568745e+03	0	4.692829e-04
1.150000e+09	4.627465e+12	0.000000e+00	8.899082e-01	9.131719e+13	1.096536e+14	8.996750e+12	6.142254e+03	3.368757e+03	2.565026e+03	0	4.678406e-04
1.160000e+09	4.585145e+12	0.000000e+00	8.899082e-01	9.053021e+13	1.087526e+14	8.957898e+12	6.130674e+03	3.363911e+03	2.561336e+03	0	4.664100e-04
1.170000e+09	4.543424e+12	0.000000e+00	8.899082e-01	8.975431e+13	1.078639e+14	8.919306e+12	6.119193e+03	3.359102e+03	2.557674e+03	0	4.649911e-04
1.180000e+09	4.502291e+12	0.000000e+00	8.899082e-01	8.898926e+13	1.069874e+14	8.880969e+12	6.107811e+03	3.354330e+03	2.554041e+03	0	4.635836e-04
1.190000e+09	4.461734e+12	0.000000e+00	8.899082e-01	8.823486e+13	1.061227e+14	8.842888e+12	6.096526e+03	3.349595e+03	2.550436e+03	0	4.621874e-04
1.200000e+09	4.421742e+12	0.000000e+00	8.899082e-01	8.749091e+13	1.052697e+14	8.805060e+12	6.085335e+03	3.344896e+03	2.546858e+03	0	4.608023e-04
1.210000e+09	4.382305e+12	0.000000e+00	8.899082e-01	8.675721e+13	1.044282e+14	8.767482e+12	6.074239e+03	3.340232e+03	2.543307e+03	0	4.594283e-04
1.220000e+09	4.343412e+12	0.000000e+00	8.899082e-01	8.603356e+13	1.035979e+14	8.730154e+12	6.063236e+03	3.335604e+03	2.539783e+03	0	4.580651e-04
1.230000e+09	4.305052e+12	0.000000e+00	8.899082e-01	8.531979e+13	1.027786e+14	8.693072e+12	6.052324e+03	3.331011e+03	2.536285e+03	0	4.567126e-04
1.240000e+09	4.267216e+12	0.000000e+00	8.899082e-01	8.461569e+13	1.019702e+14	8.656236e+12	6.041503e+03	3.326451e+03	2.532814e+03	0	4.553707e-04
1.250000e+09	4.229894e+12	0.000000e+00	8.899082e-01	8.392109e+13	1.011724e+14	8.619642e+12	6.030770e+03	3.321926e+03	2.529368e+03	0	4.540392e-04
1.260000e+09	4.193077e+12	0.000000e+00	8.899082e-01	8.323583e+13	1.003850e+14	8.583290e+12	6.020126e+03	3.317434e+03	2.525948e+03	0	4.527180e-04
1.270000e+09	4.156755e+12	0.000000e+00	8.899082e-01	8.255971e+13	9.960785e+13	8.547178e+12	6.009568e+03	3.312975e+03	2.522553e+03	0	4.514070e-04
1.280000e+09	4.120919e+12	0.000000e+00	8.899082e-01	8.189259e+13	9.884076e+13	8.511303e+12	5.999095e+03	3.308549e+03	2.519182e+03	0	4.501061e-04
1.290000e+09	4.085560e+12	0.000000e+00	8.899082e-01	8.123429e+13	9.808355e+13	8.475663e+12	5.988707e+03	3.304155e+03	2.515837e+03	0	4.488150e-04
1.300000e+09	4.050669e+12	0.000000e+00	8.899082e-01	8.058465e+13	9.733604e+13	8.440258e+12	5.978402e+03	3.299793e+03	2.512515e+03	0	4.475337e-04
1.310000e+09	4.016239e+12	0.000000e+00	8.899082e-01	7.994352e+13	9.659808e+13	8.405085e+12	5.968180e+03	3.295462e+03	2.509218e+03	0	4.462621e-04
1.320000e+09	3.982260e+12	0.000000e+00	8.899082e-01	7.931074e+13	9.586946e+13	8.370142e+12	5.958038e+03	3.291162e+03	2.505944e+03	0	4.450001e-04
1.330000e+09	3.948725e+12	0.000000e+00	8.899082e-01	7.868617e+13	9.515005e+13	8.335427e+12	5.947977e+03	3.286893e+03	2.502693e+03	0	4.437474e-04
1.340000e+09	3.915626e+12	0.000000e+00	8.899082e-01	7.806966e+13	9.443967e+13	8.300940e+12	5.937994e+03	3.282654e+03	2.499465e+03	0	4.425040e-04
1.350000e+09	3.882954e+12	0.000000e+00	8.899082e-01	7.746107e+13	9.373817e+13	8.266677e+12	5.928090e+03	3.278445e+03	2.496261e+03	0	4.412699e-04
1.360000e+09	3.850703e+12	0.000000e+00	8.899082e-01	7.686025e+13	9.304538e+13	8.232638e+12	5.918263e+03	3.274265e+03	2.493078e+03	0	4.400448e-04
