#t		Qconv[W]	Ri[Rp]		R*[Rp]		Qc[W]		Qm[W]		Qr[W]		Tcmb[K]		Tl[K]		Tup[K]		RiFlag		Bs[T]
0.000000e+00	2.645218e+14	0.000000e+00	8.888889e-01	3.297746e+15	4.897646e+13	3.086752e+13	1.679182e+04	3.535035e+03	2.383640e+03	0	1.740293e-03
1.000000e+07	2.605604e+14	0.000000e+00	8.888889e-01	3.248655e+15	2.123848e+14	3.069649e+13	1.660607e+04	4.485182e+03	3.024315e+03	0	1.731562e-03
2.000000e+07	2.510879e+14	0.000000e+00	8.888889e-01	3.132435e+15	5.585482e+14	3.052674e+13	1.642304e+04	5.346176e+03	3.604875e+03	0	1.710319e-03
3.000000e+07	2.386985e+14	0.000000e+00	8.888889e-01	2.980710e+15	1.048287e+15	3.035826e+13	1.624648e+04	6.047032e+03	4.077455e+03	0	1.681713e-03
4.000000e+07	2.261536e+14	0.000000e+00	8.888889e-01	2.827128e+15	1.550801e+15	3.019103e+13	1.607841e+04	6.553008e+03	4.418629e+03	0	1.651720e-03
5.000000e+07	2.150732e+14	0.000000e+00	8.888889e-01	2.691425e+15	1.950636e+15	3.002506e+13	1.591894e+04	6.878247e+03	4.637935e+03	0	1.624291e-03
6.000000e+07	2.058084e+14	0.000000e+00	8.888889e-01	2.577876e+15	2.210836e+15	2.986032e+13	1.576708e+04	7.065618e+03	4.764278e+03	0	1.600625e-03
7.000000e+07	1.980609e+14	0.000000e+00	8.888889e-01	2.482839e+15	2.351733e+15	2.969681e+13	1.562157e+04	7.160757e+03	4.828429e+03	0	1.580283e-03
8.000000e+07	1.914045e+14	0.000000e+00	8.888889e-01	2.401119e+15	2.410117e+15	2.953451e+13	1.548140e+04	7.199026e+03	4.854233e+03	0	1.562377e-03
9.000000e+07	1.854962e+14	0.000000e+00	8.888889e-01	2.328533e+15	2.417599e+15	2.937342e+13	1.534580e+04	7.203883e+03	4.857509e+03	0	1.546133e-03
1.000000e+08	1.801062e+14	0.000000e+00	8.888889e-01	2.262281e+15	2.395769e+15	2.921353e+13	1.521427e+04	7.189681e+03	4.847932e+03	0	1.531010e-03
1.100000e+08	1.750919e+14	0.000000e+00	8.888889e-01	2.200622e+15	2.357922e+15	2.905482e+13	1.508646e+04	7.164845e+03	4.831185e+03	0	1.516668e-03
1.200000e+08	1.703665e+14	0.000000e+00	8.888889e-01	2.142496e+15	2.311836e+15	2.889729e+13	1.496211e+04	7.134227e+03	4.810540e+03	0	1.502899e-03
1.300000e+08	1.658766e+14	0.000000e+00	8.888889e-01	2.087256e+15	2.261945e+15	2.874093e+13	1.484101e+04	7.100602e+03	4.787867e+03	0	1.489579e-03
1.400000e+08	1.615886e+14	0.000000e+00	8.888889e-01	2.034488e+15	2.210736e+15	2.858572e+13	1.472302e+04	7.065549e+03	4.764231e+03	0	1.476631e-03
1.500000e+08	1.574799e+14	0.000000e+00	8.888889e-01	1.983919e+15	2.159586e+15	2.843166e+13	1.460798e+04	7.029972e+03	4.740241e+03	0	1.464008e-03
1.600000e+08	1.535347e+14	0.000000e+00	8.888889e-01	1.935354e+15	2.109246e+15	2.827874e+13	1.449579e+04	6.994383e+03	4.716244e+03	0	1.451679e-03
1.700000e+08	1.497409e+14	0.000000e+00	8.888889e-01	1.888645e+15	2.060111e+15	2.812695e+13	1.438632e+04	6.959074e+03	4.692436e+03	0	1.439623e-03
1.800000e+08	1.460889e+14	0.000000e+00	8.888889e-01	1.843676e+15	2.012378e+15	2.797628e+13	1.427947e+04	6.924207e+03	4.668925e+03	0	1.427823e-03
1.900000e+08	1.425706e+14	0.000000e+00	8.888889e-01	1.800346e+15	1.966125e+15	2.782671e+13	1.417515e+04	6.889871e+03	4.645773e+03	0	1.416267e-03
2.000000e+08	1.391788e+14	0.000000e+00	8.888889e-01	1.758570e+15	1.921374e+15	2.767825e+13	1.407326e+04	6.856110e+03	4.623009e+03	0	1.404946e-03
2.100000e+08	1.359073e+14	0.000000e+00	8.888889e-01	1.718268e+15	1.878105e+15	2.753088e+13	1.397372e+04	6.822945e+03	4.600645e+03	0	1.393850e-03
2.200000e+08	1.327502e+14	0.000000e+00	8.888889e-01	1.679371e+15	1.836282e+15	2.738459e+13	1.387645e+04	6.790379e+03	4.578686e+03	0	1.382973e-03
2.300000e+08	1.297021e+14	0.000000e+00	8.888889e-01	1.641811e+15	1.795858e+15	2.723937e+13	1.378136e+04	6.758408e+03	4.557129e+03	0	1.372306e-03
2.400000e+08	1.267580e+14	0.000000e+00	8.888889e-01	1.605528e+15	1.756781e+15	2.709522e+13	1.368839e+04	6.727023e+03	4.535966e+03	0	1.361843e-03
2.500000e+08	1.239132e+14	0.000000e+00	8.888889e-01	1.570464e+15	1.719000e+15	2.695213e+13	1.359746e+04	6.696213e+03	4.515191e+03	0	1.351578e-03
2.600000e+08	1.211634e+14	0.000000e+00	8.888889e-01	1.536565e+15	1.682461e+15	2.681008e+13	1.350849e+04	6.665964e+03	4.494794e+03	0	1.341505e-03
2.700000e+08	1.185042e+14	0.000000e+00	8.888889e-01	1.503780e+15	1.647113e+15	2.666907e+13	1.342144e+04	6.636261e+03	4.474766e+03	0	1.331618e-03
2.800000e+08	1.159319e+14	0.000000e+00	8.888889e-01	1.472061e+15	1.612907e+15	2.652909e+13	1.333623e+04	6.607092e+03	4.455098e+03	0	1.321913e-03
2.900000e+08	1.134426e+14	0.000000e+00	8.888889e-01	1.441362e+15	1.579794e+15	2.639013e+13	1.325281e+04	6.578441e+03	4.435779e+03	0	1.312383e-03
3.000000e+08	1.110329e+14	0.000000e+00	8.888889e-01	1.411639e+15	1.547730e+15	2.625219e+13	1.317112e+04	6.550294e+03	4.416800e+03	0	1.303024e-03
3.100000e+08	1.086994e+14	0.000000e+00	8.888889e-01	1.382853e+15	1.516670e+15	2.611525e+13	1.309110e+04	6.522639e+03	4.398152e+03	0	1.293831e-03
3.200000e+08	1.064389e+14	0.000000e+00	8.888889e-01	1.354964e+15	1.486574e+15	2.597930e+13	1.301270e+04	6.495461e+03	4.379826e+03	0	1.284799e-03
3.300000e+08	1.042485e+14	0.000000e+00	8.888889e-01	1.327935e+15	1.457402e+15	2.584435e+13	1.293587e+04	6.468748e+03	4.361814e+03	0	1.275925e-03
3.400000e+08	1.021253e+14	0.000000e+00	8.888889e-01	1.301731e+15	1.429117e+15	2.571037e+13	1.286057e+04	6.442487e+03	4.344107e+03	0	1.267203e-03
3.500000e+08	1.000666e+14	0.000000e+00	8.888889e-01	1.276320e+15	1.401682e+15	2.557737e+13	1.278674e+04	6.416667e+03	4.326696e+03	0	1.258630e-03
3.600000e+08	9.806976e+13	0.000000e+00	8.888889e-01	1.251669e+15	1.375066e+15	2.544533e+13	1.271435e+04	6.391276e+03	4.309575e+03	0	1.250202e-03
3.700000e+08	9.613240e+13	0.000000e+00	8.888889e-01	1.227749e+15	1.349234e+15	2.531425e+13	1.264334e+04	6.366302e+03	4.292735e+03	0	1.241915e-03
3.800000e+08	9.425216e+13	0.000000e+00	8.888889e-01	1.204531e+15	1.324157e+15	2.518411e+13	1.257369e+04	6.341735e+03	4.276170e+03	0	1.233765e-03
3.900000e+08	9.242684e+13	0.000000e+00	8.888889e-01	1.181988e+15	1.299805e+15	2.505492e+13	1.250534e+04	6.317564e+03	4.259872e+03	0	1.225748e-03
4.000000e+08	9.065432e+13	0.000000e+00	8.888889e-01	1.160094e+15	1.276151e+15	2.492666e+13	1.243827e+04	6.293779e+03	4.243834e+03	0	1.217862e-03
4.100000e+08	8.893257e+13	0.000000e+00	8.888889e-01	1.138824e+15	1.253167e+15	2.479932e+13	1.237243e+04	6.270371e+03	4.228050e+03	0	1.210102e-03
4.200000e+08	8.725970e+13	0.000000e+00	8.888889e-01	1.118154e+15	1.230829e+15	2.467290e+13	1.230779e+04	6.247329e+03	4.212513e+03	0	1.202467e-03
4.300000e+08	8.563387e+13	0.000000e+00	8.888889e-01	1.098063e+15	1.209113e+15	2.454740e+13	1.224431e+04	6.224645e+03	4.197218e+03	0	1.194952e-03
4.400000e+08	8.405332e+13	0.000000e+00	8.888889e-01	1.078529e+15	1.187995e+15	2.442279e+13	1.218198e+04	6.202311e+03	4.182158e+03	0	1.187554e-03
4.500000e+08	8.251640e+13	0.000000e+00	8.888889e-01	1.059531e+15	1.167454e+15	2.429908e+13	1.212074e+04	6.180316e+03	4.167327e+03	0	1.180272e-03
4.600000e+08	8.102152e+13	0.000000e+00	8.888889e-01	1.041050e+15	1.147468e+15	2.417626e+13	1.206058e+04	6.158654e+03	4.152721e+03	0	1.173101e-03
4.700000e+08	7.956716e+13	0.000000e+00	8.888889e-01	1.023068e+15	1.128019e+15	2.405432e+13	1.200146e+04	6.137316e+03	4.138333e+03	0	1.166039e-03
4.800000e+08	7.815186e+13	0.000000e+00	8.888889e-01	1.005565e+15	1.109086e+15	2.393326e+13	1.194335e+04	6.116295e+03	4.124158e+03	0	1.159084e-03
4.900000e+08	7.677424e+13	0.000000e+00	8.888889e-01	9.885267e+14	1.090651e+15	2.381306e+13	1.188624e+04	6.095582e+03	4.110192e+03	0	1.152233e-03
5.000000e+08	7.543297e+13	0.000000e+00	8.888889e-01	9.719351e+14	1.072697e+15	2.369372e+13	1.183008e+04	6.075172e+03	4.096429e+03	0	1.145484e-03
5.100000e+08	7.412678e+13	0.000000e+00	8.888889e-01	9.557751e+14	1.055207e+15	2.357523e+13	1.177487e+04	6.055056e+03	4.082865e+03	0	1.138833e-03
5.200000e+08	7.285446e+13	0.000000e+00	8.888889e-01	9.400318e+14	1.038166e+15	2.345759e+13	1.172057e+04	6.035228e+03	4.069495e+03	0	1.132280e-03
5.300000e+08	7.161485e+13	0.000000e+00	8.888889e-01	9.246910e+14	1.021556e+15	2.334079e+13	1.166715e+04	6.015681e+03	4.056315e+03	0	1.125822e-03
5.400000e+08	7.040683e+13	0.000000e+00	8.888889e-01	9.097388e+14	1.005366e+15	2.322481e+13	1.161461e+04	5.996409e+03	4.043321e+03	0	1.119455e-03
5.500000e+08	6.922933e+13	0.000000e+00	8.888889e-01	8.951624e+14	9.895791e+14	2.310967e+13	1.156291e+04	5.977407e+03	4.030507e+03	0	1.113180e-03
5.600000e+08	6.808133e+13	0.000000e+00	8.888889e-01	8.809490e+14	9.741829e+14	2.299534e+13	1.151203e+04	5.958667e+03	4.017871e+03	0	1.106992e-03
5.700000e+08	6.696186e+13	0.000000e+00	8.888889e-01	8.670867e+14	9.591645e+14	2.288183e+13	1.146196e+04	5.940183e+03	4.005408e+03	0	1.100891e-03
5.800000e+08	6.586997e+13	0.000000e+00	8.888889e-01	8.535639e+14	9.445114e+14	2.276912e+13	1.141267e+04	5.921952e+03	3.993114e+03	0	1.094874e-03
5.900000e+08	6.480476e+13	0.000000e+00	8.888889e-01	8.403696e+14	9.302113e+14	2.265721e+13	1.136415e+04	5.903966e+03	3.980987e+03	0	1.088940e-03
6.000000e+08	6.376537e+13	0.000000e+00	8.888889e-01	8.274932e+14	9.162536e+14	2.254609e+13	1.131637e+04	5.886220e+03	3.969021e+03	0	1.083087e-03
6.100000e+08	6.275095e+13	0.000000e+00	8.888889e-01	8.149244e+14	9.026267e+14	2.243576e+13	1.126932e+04	5.868710e+03	3.957214e+03	0	1.077313e-03
6.200000e+08	6.176073e+13	0.000000e+00	8.888889e-01	8.026534e+14	8.893204e+14	2.232620e+13	1.122298e+04	5.851431e+03	3.945563e+03	0	1.071616e-03
6.300000e+08	6.079393e+13	0.000000e+00	8.888889e-01	7.906708e+14	8.763245e+14	2.221742e+13	1.117734e+04	5.834376e+03	3.934063e+03	0	1.065995e-03
6.400000e+08	5.984981e+13	0.000000e+00	8.888889e-01	7.789677e+14	8.636291e+14	2.210941e+13	1.113237e+04	5.817543e+03	3.922712e+03	0	1.060448e-03
6.500000e+08	5.892767e+13	0.000000e+00	8.888889e-01	7.675353e+14	8.512256e+14	2.200216e+13	1.108807e+04	5.800925e+03	3.911508e+03	0	1.054974e-03
6.600000e+08	5.802682e+13	0.000000e+00	8.888889e-01	7.563652e+14	8.391042e+14	2.189566e+13	1.104441e+04	5.784520e+03	3.900445e+03	0	1.049570e-03
6.700000e+08	5.714662e+13	0.000000e+00	8.888889e-01	7.454494e+14	8.272565e+14	2.178991e+13	1.100139e+04	5.768321e+03	3.889523e+03	0	1.044236e-03
6.800000e+08	5.628643e+13	0.000000e+00	8.888889e-01	7.347802e+14	8.156746e+14	2.168491e+13	1.095899e+04	5.752326e+03	3.878737e+03	0	1.038970e-03
6.900000e+08	5.544565e+13	0.000000e+00	8.888889e-01	7.243501e+14	8.043499e+14	2.158064e+13	1.091718e+04	5.736530e+03	3.868086e+03	0	1.033771e-03
7.000000e+08	5.462370e+13	0.000000e+00	8.888889e-01	7.141520e+14	7.932752e+14	2.147710e+13	1.087597e+04	5.720928e+03	3.857566e+03	0	1.028637e-03
7.100000e+08	5.382000e+13	0.000000e+00	8.888889e-01	7.041790e+14	7.824428e+14	2.137429e+13	1.083534e+04	5.705518e+03	3.847175e+03	0	1.023567e-03
7.200000e+08	5.303403e+13	0.000000e+00	8.888889e-01	6.944244e+14	7.718457e+14	2.127219e+13	1.079527e+04	5.690295e+03	3.836911e+03	0	1.018560e-03
7.300000e+08	5.226527e+13	0.000000e+00	8.888889e-01	6.848819e+14	7.614769e+14	2.117081e+13	1.075576e+04	5.675256e+03	3.826770e+03	0	1.013615e-03
7.400000e+08	5.151320e+13	0.000000e+00	8.888889e-01	6.755453e+14	7.513298e+14	2.107014e+13	1.071678e+04	5.660397e+03	3.816751e+03	0	1.008729e-03
7.500000e+08	5.077735e+13	0.000000e+00	8.888889e-01	6.664086e+14	7.413985e+14	2.097017e+13	1.067833e+04	5.645715e+03	3.806850e+03	0	1.003903e-03
7.600000e+08	5.005725e+13	0.000000e+00	8.888889e-01	6.574660e+14	7.316761e+14	2.087089e+13	1.064040e+04	5.631205e+03	3.797067e+03	0	9.991350e-04
7.700000e+08	4.935245e+13	0.000000e+00	8.888889e-01	6.487122e+14	7.221571e+14	2.077231e+13	1.060298e+04	5.616866e+03	3.787398e+03	0	9.944236e-04
7.800000e+08	4.866252e+13	0.000000e+00	8.888889e-01	6.401417e+14	7.128356e+14	2.067441e+13	1.056606e+04	5.602693e+03	3.777841e+03	0	9.897679e-04
7.900000e+08	4.798703e+13	0.000000e+00	8.888889e-01	6.317494e+14	7.037061e+14	2.057719e+13	1.052962e+04	5.588684e+03	3.768395e+03	0	9.851669e-04
8.000000e+08	4.732559e+13	0.000000e+00	8.888889e-01	6.235303e+14	6.947636e+14	2.048065e+13	1.049365e+04	5.574835e+03	3.759057e+03	0	9.806195e-04
8.100000e+08	4.667781e+13	0.000000e+00	8.888889e-01	6.154797e+14	6.860026e+14	2.038477e+13	1.045815e+04	5.561143e+03	3.749825e+03	0	9.761248e-04
8.200000e+08	4.604330e+13	0.000000e+00	8.888889e-01	6.075928e+14	6.774180e+14	2.028956e+13	1.042311e+04	5.547607e+03	3.740697e+03	0	9.716816e-04
8.300000e+08	4.542171e+13	0.000000e+00	8.888889e-01	5.998653e+14	6.690053e+14	2.019501e+13	1.038852e+04	5.534221e+03	3.731672e+03	0	9.672892e-04
8.400000e+08	4.481268e+13	0.000000e+00	8.888889e-01	5.922929e+14	6.607598e+14	2.010111e+13	1.035436e+04	5.520985e+03	3.722747e+03	0	9.629465e-04
8.500000e+08	4.421588e+13	0.000000e+00	8.888889e-01	5.848712e+14	6.526768e+14	2.000785e+13	1.032063e+04	5.507896e+03	3.713920e+03	0	9.586526e-04
8.600000e+08	4.363097e+13	0.000000e+00	8.888889e-01	5.775964e+14	6.447524e+14	1.991524e+13	1.028732e+04	5.494949e+03	3.705191e+03	0	9.544067e-04
8.700000e+08	4.305765e+13	0.000000e+00	8.888889e-01	5.704645e+14	6.369820e+14	1.982327e+13	1.025443e+04	5.482144e+03	3.696557e+03	0	9.502078e-04
8.800000e+08	4.249559e+13	0.000000e+00	8.888889e-01	5.634718e+14	6.293618e+14	1.973193e+13	1.022194e+04	5.469478e+03	3.688016e+03	0	9.460552e-04
8.900000e+08	4.194451e+13	0.000000e+00	8.888889e-01	5.566145e+14	6.218876e+14	1.964122e+13	1.018985e+04	5.456947e+03	3.679567e+03	0	9.419479e-04
9.000000e+08	4.140412e+13	0.000000e+00	8.888889e-01	5.498892e+14	6.145560e+14	1.955113e+13	1.015814e+04	5.444551e+03	3.671208e+03	0	9.378853e-04
9.100000e+08	4.087415e+13	0.000000e+00	8.888889e-01	5.432925e+14	6.073631e+14	1.946166e+13	1.012682e+04	5.432285e+03	3.662937e+03	0	9.338664e-04
9.200000e+08	4.035431e+13	0.000000e+00	8.888889e-01	5.368210e+14	6.003052e+14	1.937280e+13	1.009587e+04	5.420149e+03	3.654754e+03	0	9.298905e-04
9.300000e+08	3.984436e+13	0.000000e+00	8.888889e-01	5.304715e+14	5.933793e+14	1.928455e+13	1.006529e+04	5.408140e+03	3.646656e+03	0	9.259570e-04
9.400000e+08	3.934405e+13	0.000000e+00	8.888889e-01	5.242411e+14	5.865816e+14	1.919690e+13	1.003507e+04	5.396256e+03	3.638643e+03	0	9.220650e-04
9.500000e+08	3.885312e+13	0.000000e+00	8.888889e-01	5.181265e+14	5.799092e+14	1.910985e+13	1.000520e+04	5.384494e+03	3.630712e+03	0	9.182138e-04
9.600000e+08	3.837134e+13	0.000000e+00	8.888889e-01	5.121251e+14	5.733588e+14	1.902339e+13	9.975683e+03	5.372853e+03	3.622863e+03	0	9.144027e-04
9.700000e+08	3.789849e+13	0.000000e+00	8.888889e-01	5.062338e+14	5.669275e+14	1.893752e+13	9.946504e+03	5.361330e+03	3.615093e+03	0	9.106311e-04
9.800000e+08	3.743433e+13	0.000000e+00	8.888889e-01	5.004501e+14	5.606122e+14	1.885224e+13	9.917659e+03	5.349924e+03	3.607402e+03	0	9.068982e-04
9.900000e+08	3.697867e+13	0.000000e+00	8.888889e-01	4.947713e+14	5.544103e+14	1.876754e+13	9.889142e+03	5.338633e+03	3.599788e+03	0	9.032035e-04
1.000000e+09	3.653129e+13	0.000000e+00	8.888889e-01	4.891947e+14	5.483189e+14	1.868341e+13	9.860947e+03	5.327455e+03	3.592251e+03	0	8.995463e-04
1.010000e+09	3.609198e+13	0.000000e+00	8.888889e-01	4.837180e+14	5.423352e+14	1.859985e+13	9.833069e+03	5.316387e+03	3.584788e+03	0	8.959259e-04
1.020000e+09	3.566056e+13	0.000000e+00	8.888889e-01	4.783387e+14	5.364571e+14	1.851686e+13	9.805502e+03	5.305429e+03	3.577399e+03	0	8.923418e-04
1.030000e+09	3.523683e+13	0.000000e+00	8.888889e-01	4.730545e+14	5.306815e+14	1.843443e+13	9.778240e+03	5.294577e+03	3.570082e+03	0	8.887933e-04
1.040000e+09	3.482060e+13	0.000000e+00	8.888889e-01	4.678631e+14	5.250062e+14	1.835255e+13	9.751279e+03	5.283832e+03	3.562837e+03	0	8.852799e-04
1.050000e+09	3.441171e+13	0.000000e+00	8.888889e-01	4.627623e+14	5.194289e+14	1.827123e+13	9.724612e+03	5.273191e+03	3.555661e+03	0	8.818010e-04
1.060000e+09	3.400997e+13	0.000000e+00	8.888889e-01	4.577501e+14	5.139473e+14	1.819046e+13	9.698235e+03	5.262651e+03	3.548555e+03	0	8.783561e-04
1.070000e+09	3.361523e+13	0.000000e+00	8.888889e-01	4.528242e+14	5.085590e+14	1.811023e+13	9.672142e+03	5.252213e+03	3.541516e+03	0	8.749445e-04
1.080000e+09	3.322731e+13	0.000000e+00	8.888889e-01	4.479827e+14	5.032621e+14	1.803054e+13	9.646330e+03	5.241874e+03	3.534544e+03	0	8.715659e-04
1.090000e+09	3.284605e+13	0.000000e+00	8.888889e-01	4.432237e+14	4.980543e+14	1.795139e+13	9.620792e+03	5.231632e+03	3.527638e+03	0	8.682196e-04
1.100000e+09	3.247131e+13	0.000000e+00	8.888889e-01	4.385452e+14	4.929335e+14	1.787277e+13	9.595525e+03	5.221486e+03	3.520797e+03	0	8.649051e-04
1.110000e+09	3.210293e+13	0.000000e+00	8.888889e-01	4.339455e+14	4.878981e+14	1.779468e+13	9.570523e+03	5.211435e+03	3.514020e+03	0	8.616219e-04
1.120000e+09	3.174077e+13	0.000000e+00	8.888889e-01	4.294227e+14	4.829457e+14	1.771711e+13	9.545783e+03	5.201477e+03	3.507305e+03	0	8.583696e-04
1.130000e+09	3.138469e+13	0.000000e+00	8.888889e-01	4.249750e+14	4.780748e+14	1.764005e+13	9.521299e+03	5.191611e+03	3.500652e+03	0	8.551477e-04
1.140000e+09	3.103454e+13	0.000000e+00	8.888889e-01	4.206009e+14	4.732834e+14	1.756352e+13	9.497069e+03	5.181835e+03	3.494061e+03	0	8.519556e-04
1.150000e+09	3.069021e+13	0.000000e+00	8.888889e-01	4.162986e+14	4.685698e+14	1.748749e+13	9.473086e+03	5.172148e+03	3.487529e+03	0	8.487930e-04
1.160000e+09	3.035155e+13	0.000000e+00	8.888889e-01	4.120666e+14	4.639322e+14	1.741197e+13	9.449349e+03	5.162548e+03	3.481056e+03	0	8.456594e-04
1.170000e+09	3.001845e+13	0.000000e+00	8.888889e-01	4.079033e+14	4.593690e+14	1.733696e+13	9.425851e+03	5.153035e+03	3.474641e+03	0	8.425543e-04
1.180000e+09	2.969077e+13	0.000000e+00	8.888889e-01	4.038072e+14	4.548786e+14	1.726244e+13	9.402591e+03	5.143607e+03	3.468284e+03	0	8.394774e-04
1.190000e+09	2.936840e+13	0.000000e+00	8.888889e-01	3.997768e+14	4.504593e+14	1.718842e+13	9.379563e+03	5.134263e+03	3.461984e+03	0	8.364281e-04
1.200000e+09	2.905123e+13	0.000000e+00	8.888889e-01	3.958108e+14	4.461096e+14	1.711489e+13	9.356764e+03	5.125001e+03	3.455739e+03	0	8.334061e-04
1.210000e+09	2.873914e+13	0.000000e+00	8.888889e-01	3.919077e+14	4.418282e+14	1.704185e+13	9.334191e+03	5.115821e+03	3.449548e+03	0	8.304110e-04
1.220000e+09	2.843203e+13	0.000000e+00	8.888889e-01	3.880661e+14	4.376134e+14	1.696929e+13	9.311839e+03	5.106721e+03	3.443412e+03	0	8.274424e-04
1.230000e+09	2.812977e+13	0.000000e+00	8.888889e-01	3.842848e+14	4.334640e+14	1.689722e+13	9.289706e+03	5.097700e+03	3.437330e+03	0	8.244999e-04
1.240000e+09	2.783229e+13	0.000000e+00	8.888889e-01	3.805625e+14	4.293783e+14	1.682562e+13	9.267788e+03	5.088757e+03	3.431299e+03	0	8.215830e-04
1.250000e+09	2.753946e+13	0.000000e+00	8.888889e-01	3.768979e+14	4.253553e+14	1.675449e+13	9.246081e+03	5.079891e+03	3.425321e+03	0	8.186915e-04
1.260000e+09	2.725119e+13	0.000000e+00	8.888889e-01	3.732898e+14	4.213935e+14	1.668383e+13	9.224583e+03	5.071100e+03	3.419393e+03	0	8.158250e-04
1.270000e+09	2.696739e+13	0.000000e+00	8.888889e-01	3.697371e+14	4.174917e+14	1.661363e+13	9.203290e+03	5.062384e+03	3.413516e+03	0	8.129831e-04
1.280000e+09	2.668797e+13	0.000000e+00	8.888889e-01	3.662385e+14	4.136487e+14	1.654390e+13	9.182199e+03	5.053742e+03	3.407689e+03	0	8.101654e-04
1.290000e+09	2.641283e+13	0.000000e+00	8.888889e-01	3.627930e+14	4.098632e+14	1.647463e+13	9.161307e+03	5.045172e+03	3.401910e+03	0	8.073716e-04
1.300000e+09	2.614188e+13	0.000000e+00	8.888889e-01	3.593995e+14	4.061342e+14	1.640581e+13	9.140611e+03	5.036674e+03	3.396180e+03	0	8.046014e-04
1.310000e+09	2.587504e+13	0.000000e+00	8.888889e-01	3.560569e+14	4.024601e+14	1.633744e+13	9.120107e+03	5.028246e+03	3.390497e+03	0	8.018544e-04
1.320000e+09	2.561223e+13	0.000000e+00	8.888889e-01	3.527642e+14	3.988403e+14	1.626952e+13	9.099794e+03	5.019888e+03	3.384862e+03	0	7.991304e-04
1.330000e+09	2.535336e+13	0.000000e+00	8.888889e-01	3.495204e+14	3.952735e+14	1.620204e+13	9.079668e+03	5.011599e+03	3.379272e+03	0	7.964289e-04
1.340000e+09	2.509835e+13	0.000000e+00	8.888889e-01	3.463244e+14	3.917587e+14	1.613501e+13	9.059727e+03	5.003377e+03	3.373728e+03	0	7.937497e-04
1.350000e+09	2.484712e+13	0.000000e+00	8.888889e-01	3.431754e+14	3.882948e+14	1.606841e+13	9.039967e+03	4.995222e+03	3.368230e+03	0	7.910924e-04
1.360000e+09	2.459961e+13	0.000000e+00	8.888889e-01	3.400724e+14	3.848808e+14	1.600225e+13	9.020386e+03	4.987133e+03	3.362775e+03	0	7.884568e-04
