#t		Qconv[W]	Ri[Rp]		R*[Rp]		Qc[W]		Qm[W]		Qr[W]		Tcmb[K]		Tl[K]		Tup[K]		RiFlag		Bs[T]
0.000000e+00	3.196358e+14	0.000000e+00	8.888888e-01	3.708322e+15	5.021691e+13	3.540205e+13	1.763777e+04	3.640969e+03	2.438749e+03	0	1.841747e-03
1.000000e+07	3.167862e+14	0.000000e+00	8.888888e-01	3.675153e+15	2.105604e+14	3.520590e+13	1.746237e+04	4.579271e+03	3.067231e+03	0	1.836257e-03
2.000000e+07	3.076317e+14	0.000000e+00	8.888888e-01	3.570954e+15	5.546225e+14	3.501121e+13	1.728850e+04	5.444624e+03	3.646851e+03	0	1.818396e-03
3.000000e+07	2.945948e+14	0.000000e+00	8.888888e-01	3.423043e+15	1.062456e+15	3.481798e+13	1.711951e+04	6.171402e+03	4.133653e+03	0	1.792338e-03
4.000000e+07	2.805985e+14	0.000000e+00	8.888888e-01	3.264364e+15	1.617166e+15	3.462619e+13	1.695747e+04	6.719697e+03	4.500904e+03	0	1.763491e-03
5.000000e+07	2.676967e+14	0.000000e+00	8.888888e-01	3.118063e+15	2.092511e+15	3.443583e+13	1.680289e+04	7.091677e+03	4.750059e+03	0	1.736038e-03
6.000000e+07	2.566331e+14	0.000000e+00	8.888888e-01	2.992514e+15	2.428626e+15	3.424689e+13	1.665519e+04	7.320339e+03	4.903219e+03	0	1.711784e-03
7.000000e+07	2.472950e+14	0.000000e+00	8.888888e-01	2.886442e+15	2.630618e+15	3.405936e+13	1.651341e+04	7.447340e+03	4.988286e+03	0	1.690765e-03
8.000000e+07	2.392817e+14	0.000000e+00	8.888888e-01	2.795327e+15	2.731658e+15	3.387322e+13	1.637662e+04	7.508345e+03	5.029147e+03	0	1.672302e-03
9.000000e+07	2.322083e+14	0.000000e+00	8.888888e-01	2.714827e+15	2.766090e+15	3.368847e+13	1.624411e+04	7.528777e+03	5.042833e+03	0	1.655658e-03
1.000000e+08	2.257924e+14	0.000000e+00	8.888888e-01	2.641758e+15	2.759830e+15	3.350509e+13	1.611540e+04	7.525075e+03	5.040353e+03	0	1.640267e-03
1.100000e+08	2.198485e+14	0.000000e+00	8.888888e-01	2.574029e+15	2.729950e+15	3.332306e+13	1.599013e+04	7.507326e+03	5.028465e+03	0	1.625746e-03
1.200000e+08	2.142599e+14	0.000000e+00	8.888888e-01	2.510322e+15	2.686970e+15	3.314239e+13	1.586805e+04	7.481559e+03	5.011206e+03	0	1.611852e-03
1.300000e+08	2.089541e+14	0.000000e+00	8.888888e-01	2.449819e+15	2.637148e+15	3.296306e+13	1.574897e+04	7.451331e+03	4.990959e+03	0	1.598435e-03
1.400000e+08	2.038849e+14	0.000000e+00	8.888888e-01	2.392000e+15	2.584137e+15	3.278505e+13	1.563274e+04	7.418731e+03	4.969123e+03	0	1.585404e-03
1.500000e+08	1.990223e+14	0.000000e+00	8.888888e-01	2.336525e+15	2.530044e+15	3.260836e+13	1.551924e+04	7.384983e+03	4.946519e+03	0	1.572698e-03
1.600000e+08	1.943456e+14	0.000000e+00	8.888888e-01	2.283160e+15	2.476070e+15	3.243298e+13	1.540835e+04	7.350809e+03	4.923628e+03	0	1.560282e-03
1.700000e+08	1.898398e+14	0.000000e+00	8.888888e-01	2.231736e+15	2.422894e+15	3.225888e+13	1.529997e+04	7.316630e+03	4.900735e+03	0	1.548129e-03
1.800000e+08	1.854934e+14	0.000000e+00	8.888888e-01	2.182122e+15	2.370879e+15	3.208608e+13	1.519402e+04	7.282691e+03	4.878002e+03	0	1.536223e-03
1.900000e+08	1.812969e+14	0.000000e+00	8.888888e-01	2.134212e+15	2.320219e+15	3.191454e+13	1.509041e+04	7.249134e+03	4.855526e+03	0	1.524550e-03
2.000000e+08	1.772424e+14	0.000000e+00	8.888888e-01	2.087916e+15	2.270997e+15	3.174427e+13	1.498906e+04	7.216039e+03	4.833359e+03	0	1.513099e-03
2.100000e+08	1.733230e+14	0.000000e+00	8.888888e-01	2.043154e+15	2.223239e+15	3.157525e+13	1.488989e+04	7.183450e+03	4.811530e+03	0	1.501863e-03
2.200000e+08	1.695322e+14	0.000000e+00	8.888888e-01	1.999855e+15	2.176936e+15	3.140747e+13	1.479284e+04	7.151385e+03	4.790052e+03	0	1.490833e-03
2.300000e+08	1.658643e+14	0.000000e+00	8.888888e-01	1.957952e+15	2.132059e+15	3.124092e+13	1.469783e+04	7.119851e+03	4.768931e+03	0	1.480003e-03
2.400000e+08	1.623139e+14	0.000000e+00	8.888888e-01	1.917386e+15	2.088569e+15	3.107559e+13	1.460479e+04	7.088848e+03	4.748165e+03	0	1.469366e-03
2.500000e+08	1.588760e+14	0.000000e+00	8.888888e-01	1.878099e+15	2.046420e+15	3.091147e+13	1.451368e+04	7.058370e+03	4.727750e+03	0	1.458918e-03
2.600000e+08	1.555459e+14	0.000000e+00	8.888888e-01	1.840037e+15	2.005566e+15	3.074856e+13	1.442442e+04	7.028407e+03	4.707681e+03	0	1.448653e-03
2.700000e+08	1.523191e+14	0.000000e+00	8.888888e-01	1.803149e+15	1.965956e+15	3.058683e+13	1.433695e+04	6.998948e+03	4.687949e+03	0	1.438565e-03
2.800000e+08	1.491913e+14	0.000000e+00	8.888888e-01	1.767389e+15	1.927546e+15	3.042629e+13	1.425123e+04	6.969984e+03	4.668549e+03	0	1.428650e-03
2.900000e+08	1.461586e+14	0.000000e+00	8.888888e-01	1.732710e+15	1.890290e+15	3.026692e+13	1.416720e+04	6.941502e+03	4.649471e+03	0	1.418904e-03
3.000000e+08	1.432172e+14	0.000000e+00	8.888888e-01	1.699070e+15	1.854141e+15	3.010871e+13	1.408481e+04	6.913490e+03	4.630708e+03	0	1.409321e-03
3.100000e+08	1.403634e+14	0.000000e+00	8.888888e-01	1.666426e+15	1.819058e+15	2.995165e+13	1.400400e+04	6.885936e+03	4.612253e+03	0	1.399897e-03
3.200000e+08	1.375939e+14	0.000000e+00	8.888888e-01	1.634742e+15	1.784999e+15	2.979574e+13	1.392475e+04	6.858830e+03	4.594097e+03	0	1.390629e-03
3.300000e+08	1.349054e+14	0.000000e+00	8.888888e-01	1.603978e+15	1.751926e+15	2.964096e+13	1.384698e+04	6.832160e+03	4.576233e+03	0	1.381512e-03
3.400000e+08	1.322947e+14	0.000000e+00	8.888888e-01	1.574101e+15	1.719801e+15	2.948730e+13	1.377068e+04	6.805915e+03	4.558654e+03	0	1.372542e-03
3.500000e+08	1.297589e+14	0.000000e+00	8.888888e-01	1.545076e+15	1.688587e+15	2.933476e+13	1.369579e+04	6.780085e+03	4.541353e+03	0	1.363716e-03
3.600000e+08	1.272952e+14	0.000000e+00	8.888888e-01	1.516871e+15	1.658252e+15	2.918332e+13	1.362227e+04	6.754658e+03	4.524322e+03	0	1.355030e-03
3.700000e+08	1.249008e+14	0.000000e+00	8.888888e-01	1.489456e+15	1.628762e+15	2.903298e+13	1.355008e+04	6.729627e+03	4.507556e+03	0	1.346480e-03
3.800000e+08	1.225733e+14	0.000000e+00	8.888888e-01	1.462802e+15	1.600086e+15	2.888373e+13	1.347919e+04	6.704980e+03	4.491047e+03	0	1.338064e-03
3.900000e+08	1.203101e+14	0.000000e+00	8.888888e-01	1.436880e+15	1.572195e+15	2.873556e+13	1.340957e+04	6.680708e+03	4.474790e+03	0	1.329777e-03
4.000000e+08	1.181089e+14	0.000000e+00	8.888888e-01	1.411665e+15	1.545059e+15	2.858846e+13	1.334117e+04	6.656803e+03	4.458778e+03	0	1.321617e-03
4.100000e+08	1.159675e+14	0.000000e+00	8.888888e-01	1.387130e+15	1.518652e+15	2.844242e+13	1.327396e+04	6.633255e+03	4.443005e+03	0	1.313581e-03
4.200000e+08	1.138838e+14	0.000000e+00	8.888888e-01	1.363251e+15	1.492949e+15	2.829743e+13	1.320792e+04	6.610057e+03	4.427467e+03	0	1.305666e-03
4.300000e+08	1.118556e+14	0.000000e+00	8.888888e-01	1.340006e+15	1.467923e+15	2.815348e+13	1.314300e+04	6.587199e+03	4.412157e+03	0	1.297868e-03
4.400000e+08	1.098810e+14	0.000000e+00	8.888888e-01	1.317372e+15	1.443551e+15	2.801057e+13	1.307919e+04	6.564675e+03	4.397069e+03	0	1.290186e-03
4.500000e+08	1.079582e+14	0.000000e+00	8.888888e-01	1.295328e+15	1.419810e+15	2.786869e+13	1.301645e+04	6.542475e+03	4.382200e+03	0	1.282616e-03
4.600000e+08	1.060854e+14	0.000000e+00	8.888888e-01	1.273852e+15	1.396680e+15	2.772783e+13	1.295475e+04	6.520594e+03	4.367544e+03	0	1.275156e-03
4.700000e+08	1.042609e+14	0.000000e+00	8.888888e-01	1.252927e+15	1.374139e+15	2.758798e+13	1.289408e+04	6.499023e+03	4.353095e+03	0	1.267803e-03
4.800000e+08	1.024830e+14	0.000000e+00	8.888888e-01	1.232533e+15	1.352166e+15	2.744912e+13	1.283439e+04	6.477756e+03	4.338850e+03	0	1.260556e-03
4.900000e+08	1.007501e+14	0.000000e+00	8.888888e-01	1.212653e+15	1.330743e+15	2.731127e+13	1.277567e+04	6.456785e+03	4.324804e+03	0	1.253410e-03
5.000000e+08	9.906071e+13	0.000000e+00	8.888888e-01	1.193268e+15	1.309852e+15	2.717440e+13	1.271789e+04	6.436104e+03	4.310952e+03	0	1.246365e-03
5.100000e+08	9.741344e+13	0.000000e+00	8.888888e-01	1.174364e+15	1.289475e+15	2.703850e+13	1.266103e+04	6.415708e+03	4.297290e+03	0	1.239418e-03
5.200000e+08	9.580687e+13	0.000000e+00	8.888888e-01	1.155923e+15	1.269594e+15	2.690358e+13	1.260507e+04	6.395588e+03	4.283814e+03	0	1.232566e-03
5.300000e+08	9.423968e+13	0.000000e+00	8.888888e-01	1.137931e+15	1.250195e+15	2.676962e+13	1.254998e+04	6.375741e+03	4.270520e+03	0	1.225809e-03
5.400000e+08	9.271058e+13	0.000000e+00	8.888888e-01	1.120374e+15	1.231262e+15	2.663661e+13	1.249575e+04	6.356158e+03	4.257404e+03	0	1.219143e-03
5.500000e+08	9.121835e+13	0.000000e+00	8.888888e-01	1.103237e+15	1.212778e+15	2.650455e+13	1.244234e+04	6.336836e+03	4.244462e+03	0	1.212566e-03
5.600000e+08	8.976182e+13	0.000000e+00	8.888888e-01	1.086507e+15	1.194731e+15	2.637343e+13	1.238975e+04	6.317769e+03	4.231690e+03	0	1.206078e-03
5.700000e+08	8.833984e+13	0.000000e+00	8.888888e-01	1.070172e+15	1.177106e+15	2.624324e+13	1.233796e+04	6.298950e+03	4.219085e+03	0	1.199675e-03
5.800000e+08	8.695134e+13	0.000000e+00	8.888888e-01	1.054218e+15	1.159890e+15	2.611397e+13	1.228694e+04	6.280375e+03	4.206643e+03	0	1.193357e-03
5.900000e+08	8.559528e+13	0.000000e+00	8.888888e-01	1.038634e+15	1.143071e+15	2.598562e+13	1.223667e+04	6.262039e+03	4.194362e+03	0	1.187120e-03
6.000000e+08	8.427063e+13	0.000000e+00	8.888888e-01	1.023409e+15	1.126636e+15	2.585818e+13	1.218715e+04	6.243937e+03	4.182237e+03	0	1.180965e-03
6.100000e+08	8.297645e+13	0.000000e+00	8.888888e-01	1.008532e+15	1.110575e+15	2.573164e+13	1.213835e+04	6.226064e+03	4.170266e+03	0	1.174888e-03
6.200000e+08	8.171180e+13	0.000000e+00	8.888888e-01	9.939913e+14	1.094873e+15	2.560599e+13	1.209025e+04	6.208416e+03	4.158444e+03	0	1.168888e-03
6.300000e+08	8.047579e+13	0.000000e+00	8.888888e-01	9.797776e+14	1.079523e+15	2.548123e+13	1.204285e+04	6.190987e+03	4.146770e+03	0	1.162965e-03
6.400000e+08	7.926755e+13	0.000000e+00	8.888888e-01	9.658810e+14	1.064512e+15	2.535735e+13	1.199611e+04	6.173774e+03	4.135241e+03	0	1.157115e-03
6.500000e+08	7.808626e+13	0.000000e+00	8.888888e-01	9.522920e+14	1.049831e+15	2.523434e+13	1.195004e+04	6.156772e+03	4.123853e+03	0	1.151338e-03
6.600000e+08	7.693112e+13	0.000000e+00	8.888888e-01	9.390015e+14	1.035471e+15	2.511220e+13	1.190462e+04	6.139977e+03	4.112604e+03	0	1.145633e-03
6.700000e+08	7.580137e+13	0.000000e+00	8.888888e-01	9.260008e+14	1.021421e+15	2.499092e+13	1.185982e+04	6.123385e+03	4.101490e+03	0	1.139997e-03
6.800000e+08	7.469625e+13	0.000000e+00	8.888888e-01	9.132815e+14	1.007673e+15	2.487049e+13	1.181565e+04	6.106992e+03	4.090510e+03	0	1.134430e-03
6.900000e+08	7.361505e+13	0.000000e+00	8.888888e-01	9.008354e+14	9.942172e+14	2.475090e+13	1.177207e+04	6.090794e+03	4.079661e+03	0	1.128930e-03
7.000000e+08	7.255709e+13	0.000000e+00	8.888888e-01	8.886547e+14	9.810470e+14	2.463215e+13	1.172909e+04	6.074788e+03	4.068940e+03	0	1.123496e-03
7.100000e+08	7.152171e+13	0.000000e+00	8.888888e-01	8.767318e+14	9.681529e+14	2.451424e+13	1.168669e+04	6.058969e+03	4.058344e+03	0	1.118126e-03
7.200000e+08	7.050826e+13	0.000000e+00	8.888888e-01	8.650595e+14	9.555277e+14	2.439714e+13	1.164485e+04	6.043335e+03	4.047872e+03	0	1.112820e-03
7.300000e+08	6.951612e+13	0.000000e+00	8.888888e-01	8.536306e+14	9.431642e+14	2.428087e+13	1.160357e+04	6.027882e+03	4.037521e+03	0	1.107575e-03
7.400000e+08	6.854469e+13	0.000000e+00	8.888888e-01	8.424385e+14	9.310542e+14	2.416541e+13	1.156283e+04	6.012606e+03	4.027289e+03	0	1.102392e-03
7.500000e+08	6.759341e+13	0.000000e+00	8.888888e-01	8.314766e+14	9.191912e+14	2.405075e+13	1.152262e+04	5.997504e+03	4.017174e+03	0	1.097269e-03
7.600000e+08	6.666172e+13	0.000000e+00	8.888888e-01	8.207384e+14	9.075686e+14	2.393689e+13	1.148294e+04	5.982573e+03	4.007173e+03	0	1.092204e-03
7.700000e+08	6.574907e+13	0.000000e+00	8.888888e-01	8.102180e+14	8.961793e+14	2.382383e+13	1.144376e+04	5.967809e+03	3.997285e+03	0	1.087196e-03
7.800000e+08	6.485495e+13	0.000000e+00	8.888888e-01	7.999094e+14	8.850177e+14	2.371155e+13	1.140508e+04	5.953211e+03	3.987506e+03	0	1.082246e-03
7.900000e+08	6.397886e+13	0.000000e+00	8.888888e-01	7.898069e+14	8.740773e+14	2.360004e+13	1.136690e+04	5.938774e+03	3.977836e+03	0	1.077350e-03
8.000000e+08	6.312031e+13	0.000000e+00	8.888888e-01	7.799049e+14	8.633520e+14	2.348932e+13	1.132919e+04	5.924496e+03	3.968273e+03	0	1.072510e-03
8.100000e+08	6.227884e+13	0.000000e+00	8.888888e-01	7.701982e+14	8.528367e+14	2.337936e+13	1.129196e+04	5.910374e+03	3.958814e+03	0	1.067722e-03
8.200000e+08	6.145399e+13	0.000000e+00	8.888888e-01	7.606816e+14	8.425253e+14	2.327016e+13	1.125518e+04	5.896405e+03	3.949458e+03	0	1.062988e-03
8.300000e+08	6.064533e+13	0.000000e+00	8.888888e-01	7.513501e+14	8.324127e+14	2.316171e+13	1.121886e+04	5.882587e+03	3.940202e+03	0	1.058304e-03
8.400000e+08	5.985242e+13	0.000000e+00	8.888888e-01	7.421988e+14	8.224938e+14	2.305402e+13	1.118299e+04	5.868917e+03	3.931046e+03	0	1.053672e-03
8.500000e+08	5.907487e+13	0.000000e+00	8.888888e-01	7.332231e+14	8.127632e+14	2.294707e+13	1.114754e+04	5.855392e+03	3.921986e+03	0	1.049089e-03
8.600000e+08	5.831227e+13	0.000000e+00	8.888888e-01	7.244185e+14	8.032166e+14	2.284085e+13	1.111253e+04	5.842010e+03	3.913023e+03	0	1.044555e-03
8.700000e+08	5.756424e+13	0.000000e+00	8.888888e-01	7.157807e+14	7.938490e+14	2.273537e+13	1.107793e+04	5.828768e+03	3.904154e+03	0	1.040070e-03
8.800000e+08	5.683041e+13	0.000000e+00	8.888888e-01	7.073053e+14	7.846561e+14	2.263061e+13	1.104375e+04	5.815664e+03	3.895377e+03	0	1.035631e-03
8.900000e+08	5.611042e+13	0.000000e+00	8.888888e-01	6.989882e+14	7.756330e+14	2.252657e+13	1.100997e+04	5.802696e+03	3.886690e+03	0	1.031239e-03
9.000000e+08	5.540392e+13	0.000000e+00	8.888888e-01	6.908256e+14	7.667763e+14	2.242325e+13	1.097658e+04	5.789861e+03	3.878094e+03	0	1.026892e-03
9.100000e+08	5.471058e+13	0.000000e+00	8.888888e-01	6.828135e+14	7.580810e+14	2.232063e+13	1.094358e+04	5.777158e+03	3.869585e+03	0	1.022591e-03
9.200000e+08	5.403005e+13	0.000000e+00	8.888888e-01	6.749482e+14	7.495437e+14	2.221872e+13	1.091097e+04	5.764583e+03	3.861162e+03	0	1.018333e-03
9.300000e+08	5.336204e+13	0.000000e+00	8.888888e-01	6.672261e+14	7.411603e+14	2.211750e+13	1.087872e+04	5.752135e+03	3.852824e+03	0	1.014119e-03
9.400000e+08	5.270623e+13	0.000000e+00	8.888888e-01	6.596437e+14	7.329273e+14	2.201698e+13	1.084685e+04	5.739812e+03	3.844570e+03	0	1.009947e-03
9.500000e+08	5.206232e+13	0.000000e+00	8.888888e-01	6.521976e+14	7.248405e+14	2.191714e+13	1.081533e+04	5.727612e+03	3.836398e+03	0	1.005818e-03
9.600000e+08	5.143002e+13	0.000000e+00	8.888888e-01	6.448845e+14	7.168969e+14	2.181798e+13	1.078418e+04	5.715532e+03	3.828307e+03	0	1.001729e-03
9.700000e+08	5.080906e+13	0.000000e+00	8.888888e-01	6.377013e+14	7.090928e+14	2.171950e+13	1.075336e+04	5.703571e+03	3.820296e+03	0	9.976813e-04
9.800000e+08	5.019916e+13	0.000000e+00	8.888888e-01	6.306447e+14	7.014251e+14	2.162169e+13	1.072289e+04	5.691727e+03	3.812362e+03	0	9.936733e-04
9.900000e+08	4.960005e+13	0.000000e+00	8.888888e-01	6.237119e+14	6.938904e+14	2.152454e+13	1.069276e+04	5.679998e+03	3.804506e+03	0	9.897045e-04
1.000000e+09	4.901150e+13	0.000000e+00	8.888888e-01	6.168998e+14	6.864857e+14	2.142806e+13	1.066296e+04	5.668382e+03	3.796726e+03	0	9.857742e-04
1.010000e+09	4.843323e+13	0.000000e+00	8.888888e-01	6.102057e+14	6.792077e+14	2.133222e+13	1.063348e+04	5.656877e+03	3.789020e+03	0	9.818820e-04
1.020000e+09	4.786502e+13	0.000000e+00	8.888888e-01	6.036267e+14	6.720539e+14	2.123704e+13	1.060432e+04	5.645482e+03	3.781387e+03	0	9.780271e-04
1.030000e+09	4.730663e+13	0.000000e+00	8.888888e-01	5.971604e+14	6.650210e+14	2.114250e+13	1.057547e+04	5.634195e+03	3.773827e+03	0	9.742090e-04
1.040000e+09	4.675783e+13	0.000000e+00	8.888888e-01	5.908039e+14	6.581065e+14	2.104860e+13	1.054693e+04	5.623015e+03	3.766338e+03	0	9.704271e-04
1.050000e+09	4.621840e+13	0.000000e+00	8.888888e-01	5.845549e+14	6.513077e+14	2.095533e+13	1.051869e+04	5.611938e+03	3.758919e+03	0	9.666808e-04
1.060000e+09	4.568812e+13	0.000000e+00	8.888888e-01	5.784108e+14	6.446218e+14	2.086269e+13	1.049076e+04	5.600965e+03	3.751570e+03	0	9.629696e-04
1.070000e+09	4.516680e+13	0.000000e+00	8.888888e-01	5.723694e+14	6.380465e+14	2.077068e+13	1.046311e+04	5.590094e+03	3.744288e+03	0	9.592929e-04
1.080000e+09	4.465422e+13	0.000000e+00	8.888888e-01	5.664282e+14	6.315790e+14	2.067928e+13	1.043575e+04	5.579322e+03	3.737073e+03	0	9.556503e-04
1.090000e+09	4.415019e+13	0.000000e+00	8.888888e-01	5.605851e+14	6.252172e+14	2.058850e+13	1.040867e+04	5.568648e+03	3.729923e+03	0	9.520411e-04
1.100000e+09	4.365452e+13	0.000000e+00	8.888888e-01	5.548378e+14	6.189587e+14	2.049833e+13	1.038188e+04	5.558072e+03	3.722839e+03	0	9.484648e-04
1.110000e+09	4.316703e+13	0.000000e+00	8.888888e-01	5.491843e+14	6.128011e+14	2.040877e+13	1.035535e+04	5.547591e+03	3.715819e+03	0	9.449210e-04
1.120000e+09	4.268752e+13	0.000000e+00	8.888888e-01	5.436225e+14	6.067421e+14	2.031980e+13	1.032910e+04	5.537204e+03	3.708862e+03	0	9.414092e-04
1.130000e+09	4.221583e+13	0.000000e+00	8.888888e-01	5.381503e+14	6.007799e+14	2.023143e+13	1.030311e+04	5.526910e+03	3.701967e+03	0	9.379289e-04
1.140000e+09	4.175179e+13	0.000000e+00	8.888888e-01	5.327659e+14	5.949122e+14	2.014365e+13	1.027738e+04	5.516707e+03	3.695133e+03	0	9.344796e-04
1.150000e+09	4.129522e+13	0.000000e+00	8.888888e-01	5.274673e+14	5.891370e+14	2.005646e+13	1.025191e+04	5.506594e+03	3.688359e+03	0	9.310609e-04
1.160000e+09	4.084598e+13	0.000000e+00	8.888888e-01	5.222526e+14	5.834522e+14	1.996985e+13	1.022669e+04	5.496570e+03	3.681645e+03	0	9.276723e-04
1.170000e+09	4.040389e+13	0.000000e+00	8.888888e-01	5.171201e+14	5.778561e+14	1.988381e+13	1.020172e+04	5.486633e+03	3.674989e+03	0	9.243133e-04
1.180000e+09	3.996881e+13	0.000000e+00	8.888888e-01	5.120681e+14	5.723466e+14	1.979835e+13	1.017699e+04	5.476783e+03	3.668391e+03	0	9.209835e-04
1.190000e+09	3.954058e+13	0.000000e+00	8.888888e-01	5.070948e+14	5.669220e+14	1.971345e+13	1.015251e+04	5.467017e+03	3.661850e+03	0	9.176826e-04
1.200000e+09	3.911907e+13	0.000000e+00	8.888888e-01	5.021985e+14	5.615805e+14	1.962912e+13	1.012826e+04	5.457335e+03	3.655365e+03	0	9.144100e-04
1.210000e+09	3.870413e+13	0.000000e+00	8.888888e-01	4.973777e+14	5.563204e+14	1.954535e+13	1.010424e+04	5.447736e+03	3.648935e+03	0	9.111655e-04
1.220000e+09	3.829563e+13	0.000000e+00	8.888888e-01	4.926308e+14	5.511400e+14	1.946213e+13	1.008046e+04	5.438218e+03	3.642560e+03	0	9.079485e-04
1.230000e+09	3.789342e+13	0.000000e+00	8.888888e-01	4.879563e+14	5.460375e+14	1.937947e+13	1.005690e+04	5.428780e+03	3.636239e+03	0	9.047586e-04
1.240000e+09	3.749738e+13	0.000000e+00	8.888888e-01	4.833526e+14	5.410117e+14	1.929735e+13	1.003356e+04	5.419422e+03	3.629970e+03	0	9.015956e-04
1.250000e+09	3.710739e+13	0.000000e+00	8.888888e-01	4.788183e+14	5.360605e+14	1.921577e+13	1.001045e+04	5.410141e+03	3.623754e+03	0	8.984590e-04
1.260000e+09	3.672331e+13	0.000000e+00	8.888888e-01	4.743519e+14	5.311828e+14	1.913473e+13	9.987547e+03	5.400938e+03	3.617589e+03	0	8.953484e-04
1.270000e+09	3.634503e+13	0.000000e+00	8.888888e-01	4.699523e+14	5.263770e+14	1.905423e+13	9.964859e+03	5.391810e+03	3.611476e+03	0	8.922636e-04
1.280000e+09	3.597243e+13	0.000000e+00	8.888888e-01	4.656178e+14	5.216416e+14	1.897425e+13	9.942381e+03	5.382757e+03	3.605412e+03	0	8.892040e-04
1.290000e+09	3.560540e+13	0.000000e+00	8.888888e-01	4.613474e+14	5.169753e+14	1.889480e+13	9.920110e+03	5.373779e+03	3.599398e+03	0	8.861694e-04
1.300000e+09	3.524382e+13	0.000000e+00	8.888888e-01	4.571396e+14	5.123766e+14	1.881587e+13	9.898043e+03	5.364873e+03	3.593433e+03	0	8.831594e-04
1.310000e+09	3.488758e+13	0.000000e+00	8.888888e-01	4.529932e+14	5.078443e+14	1.873746e+13	9.876176e+03	5.356039e+03	3.587516e+03	0	8.801738e-04
1.320000e+09	3.453658e+13	0.000000e+00	8.888888e-01	4.489071e+14	5.033769e+14	1.865956e+13	9.854507e+03	5.347276e+03	3.581646e+03	0	8.772121e-04
1.330000e+09	3.419072e+13	0.000000e+00	8.888888e-01	4.448800e+14	4.989734e+14	1.858217e+13	9.833032e+03	5.338583e+03	3.575824e+03	0	8.742740e-04
1.340000e+09	3.384989e+13	0.000000e+00	8.888888e-01	4.409107e+14	4.946324e+14	1.850529e+13	9.811750e+03	5.329959e+03	3.570047e+03	0	8.713592e-04
1.350000e+09	3.351399e+13	0.000000e+00	8.888888e-01	4.369983e+14	4.903526e+14	1.842891e+13	9.790657e+03	5.321403e+03	3.564316e+03	0	8.684674e-04
1.360000e+09	3.318294e+13	0.000000e+00	8.888888e-01	4.331415e+14	4.861330e+14	1.835302e+13	9.769751e+03	5.312914e+03	3.558631e+03	0	8.655983e-04
