#t		Qconv[W]	Ri[Rp]		R*[Rp]		Qc[W]		Qm[W]		Qr[W]		Tcmb[K]		Tl[K]		Tup[K]		RiFlag		Bs[T]
0.000000e+00	1.162838e+14	0.000000e+00	8.878504e-01	1.311229e+15	5.183953e+13	4.314585e+13	1.353910e+04	3.469684e+03	2.516521e+03	0	1.304243e-03
1.000000e+07	1.175044e+14	0.000000e+00	8.878504e-01	1.323244e+15	8.443489e+13	4.290679e+13	1.348995e+04	3.733431e+03	2.707814e+03	0	1.308790e-03
2.000000e+07	1.182392e+14	0.000000e+00	8.878504e-01	1.330294e+15	1.294420e+14	4.266952e+13	1.344034e+04	3.991667e+03	2.895109e+03	0	1.311513e-03
3.000000e+07	1.184878e+14	0.000000e+00	8.878504e-01	1.332376e+15	1.879069e+14	4.243402e+13	1.339046e+04	4.240708e+03	3.075736e+03	0	1.312431e-03
4.000000e+07	1.182735e+14	0.000000e+00	8.878504e-01	1.329731e+15	2.595694e+14	4.220028e+13	1.334051e+04	4.476781e+03	3.246956e+03	0	1.311639e-03
5.000000e+07	1.176427e+14	0.000000e+00	8.878504e-01	1.322834e+15	3.426611e+14	4.196828e+13	1.329066e+04	4.696370e+03	3.406222e+03	0	1.309303e-03
6.000000e+07	1.166600e+14	0.000000e+00	8.878504e-01	1.312346e+15	4.340279e+14	4.173802e+13	1.324107e+04	4.896568e+03	3.551423e+03	0	1.305648e-03
7.000000e+07	1.154003e+14	0.000000e+00	8.878504e-01	1.299032e+15	5.295736e+14	4.150946e+13	1.319187e+04	5.075351e+03	3.681093e+03	0	1.300931e-03
8.000000e+07	1.139399e+14	0.000000e+00	8.878504e-01	1.283674e+15	6.249030e+14	4.128261e+13	1.314317e+04	5.231737e+03	3.794517e+03	0	1.295420e-03
9.000000e+07	1.123491e+14	0.000000e+00	8.878504e-01	1.266990e+15	7.159710e+14	4.105744e+13	1.309504e+04	5.365774e+03	3.891733e+03	0	1.289363e-03
1.000000e+08	1.106869e+14	0.000000e+00	8.878504e-01	1.249582e+15	7.995712e+14	4.083395e+13	1.304753e+04	5.478410e+03	3.973426e+03	0	1.282973e-03
1.100000e+08	1.089988e+14	0.000000e+00	8.878504e-01	1.231915e+15	8.735729e+14	4.061211e+13	1.300068e+04	5.571262e+03	4.040771e+03	0	1.276417e-03
1.200000e+08	1.073171e+14	0.000000e+00	8.878504e-01	1.214320e+15	9.369185e+14	4.039192e+13	1.295448e+04	5.646370e+03	4.095246e+03	0	1.269818e-03
1.300000e+08	1.056627e+14	0.000000e+00	8.878504e-01	1.197010e+15	9.894590e+14	4.017336e+13	1.290895e+04	5.705959e+03	4.138465e+03	0	1.263260e-03
1.400000e+08	1.040481e+14	0.000000e+00	8.878504e-01	1.180112e+15	1.031707e+15	3.995641e+13	1.286406e+04	5.752258e+03	4.172045e+03	0	1.256792e-03
1.500000e+08	1.024791e+14	0.000000e+00	8.878504e-01	1.163686e+15	1.064593e+15	3.974107e+13	1.281980e+04	5.787369e+03	4.197511e+03	0	1.250443e-03
1.600000e+08	1.009576e+14	0.000000e+00	8.878504e-01	1.147750e+15	1.089252e+15	3.952733e+13	1.277616e+04	5.813194e+03	4.216242e+03	0	1.244223e-03
1.700000e+08	9.948290e+13	0.000000e+00	8.878504e-01	1.132297e+15	1.106876e+15	3.931515e+13	1.273311e+04	5.831397e+03	4.229444e+03	0	1.238135e-03
1.800000e+08	9.805286e+13	0.000000e+00	8.878504e-01	1.117306e+15	1.118607e+15	3.910454e+13	1.269064e+04	5.843400e+03	4.238149e+03	0	1.232174e-03
1.900000e+08	9.666478e+13	0.000000e+00	8.878504e-01	1.102748e+15	1.125486e+15	3.889549e+13	1.264873e+04	5.850396e+03	4.243224e+03	0	1.226332e-03
2.000000e+08	9.531576e+13	0.000000e+00	8.878504e-01	1.088594e+15	1.128423e+15	3.868797e+13	1.260736e+04	5.853374e+03	4.245384e+03	0	1.220601e-03
2.100000e+08	9.400302e+13	0.000000e+00	8.878504e-01	1.074816e+15	1.128194e+15	3.848198e+13	1.256652e+04	5.853143e+03	4.245216e+03	0	1.214971e-03
2.200000e+08	9.272396e+13	0.000000e+00	8.878504e-01	1.061386e+15	1.125450e+15	3.827750e+13	1.252620e+04	5.850359e+03	4.243197e+03	0	1.209435e-03
2.300000e+08	9.147627e+13	0.000000e+00	8.878504e-01	1.048281e+15	1.120722e+15	3.807452e+13	1.248638e+04	5.845555e+03	4.239712e+03	0	1.203986e-03
2.400000e+08	9.025794e+13	0.000000e+00	8.878504e-01	1.035480e+15	1.114449e+15	3.787303e+13	1.244705e+04	5.839156e+03	4.235071e+03	0	1.198617e-03
2.500000e+08	8.906718e+13	0.000000e+00	8.878504e-01	1.022966e+15	1.106980e+15	3.767301e+13	1.240820e+04	5.831504e+03	4.229522e+03	0	1.193323e-03
2.600000e+08	8.790246e+13	0.000000e+00	8.878504e-01	1.010721e+15	1.098600e+15	3.747446e+13	1.236981e+04	5.822875e+03	4.223263e+03	0	1.188098e-03
2.700000e+08	8.676245e+13	0.000000e+00	8.878504e-01	9.987330e+14	1.089533e+15	3.727736e+13	1.233189e+04	5.813486e+03	4.216453e+03	0	1.182940e-03
2.800000e+08	8.564597e+13	0.000000e+00	8.878504e-01	9.869894e+14	1.079959e+15	3.708170e+13	1.229441e+04	5.803511e+03	4.209218e+03	0	1.177844e-03
2.900000e+08	8.455200e+13	0.000000e+00	8.878504e-01	9.754797e+14	1.070021e+15	3.688747e+13	1.225737e+04	5.793090e+03	4.201660e+03	0	1.172807e-03
3.000000e+08	8.347964e+13	0.000000e+00	8.878504e-01	9.641944e+14	1.059832e+15	3.669465e+13	1.222076e+04	5.782334e+03	4.193859e+03	0	1.167828e-03
3.100000e+08	8.242806e+13	0.000000e+00	8.878504e-01	9.531254e+14	1.049481e+15	3.650324e+13	1.218457e+04	5.771331e+03	4.185879e+03	0	1.162903e-03
3.200000e+08	8.139654e+13	0.000000e+00	8.878504e-01	9.422649e+14	1.039037e+15	3.631322e+13	1.214880e+04	5.760152e+03	4.177770e+03	0	1.158032e-03
3.300000e+08	8.038442e+13	0.000000e+00	8.878504e-01	9.316062e+14	1.028556e+15	3.612459e+13	1.211344e+04	5.748852e+03	4.169575e+03	0	1.153212e-03
3.400000e+08	7.939108e+13	0.000000e+00	8.878504e-01	9.211429e+14	1.018082e+15	3.593732e+13	1.207847e+04	5.737476e+03	4.161324e+03	0	1.148442e-03
3.500000e+08	7.841596e+13	0.000000e+00	8.878504e-01	9.108693e+14	1.007646e+15	3.575141e+13	1.204389e+04	5.726059e+03	4.153044e+03	0	1.143721e-03
3.600000e+08	7.745854e+13	0.000000e+00	8.878504e-01	9.007800e+14	9.972769e+14	3.556685e+13	1.200970e+04	5.714631e+03	4.144755e+03	0	1.139047e-03
3.700000e+08	7.651833e+13	0.000000e+00	8.878504e-01	8.908698e+14	9.869930e+14	3.538362e+13	1.197588e+04	5.703213e+03	4.136474e+03	0	1.134420e-03
3.800000e+08	7.559487e+13	0.000000e+00	8.878504e-01	8.811340e+14	9.768102e+14	3.520173e+13	1.194244e+04	5.691824e+03	4.128213e+03	0	1.129838e-03
3.900000e+08	7.468771e+13	0.000000e+00	8.878504e-01	8.715681e+14	9.667400e+14	3.502114e+13	1.190936e+04	5.680476e+03	4.119983e+03	0	1.125300e-03
4.000000e+08	7.379645e+13	0.000000e+00	8.878504e-01	8.621678e+14	9.567910e+14	3.484186e+13	1.187664e+04	5.669183e+03	4.111791e+03	0	1.120806e-03
4.100000e+08	7.292069e+13	0.000000e+00	8.878504e-01	8.529289e+14	9.469695e+14	3.466388e+13	1.184427e+04	5.657951e+03	4.103645e+03	0	1.116355e-03
4.200000e+08	7.206004e+13	0.000000e+00	8.878504e-01	8.438476e+14	9.372800e+14	3.448717e+13	1.181224e+04	5.646788e+03	4.095549e+03	0	1.111945e-03
4.300000e+08	7.121414e+13	0.000000e+00	8.878504e-01	8.349200e+14	9.277250e+14	3.431174e+13	1.178056e+04	5.635699e+03	4.087507e+03	0	1.107577e-03
4.400000e+08	7.038265e+13	0.000000e+00	8.878504e-01	8.261425e+14	9.183063e+14	3.413757e+13	1.174921e+04	5.624689e+03	4.079521e+03	0	1.103250e-03
4.500000e+08	6.956522e+13	0.000000e+00	8.878504e-01	8.175116e+14	9.090250e+14	3.396466e+13	1.171818e+04	5.613759e+03	4.071594e+03	0	1.098962e-03
4.600000e+08	6.876153e+13	0.000000e+00	8.878504e-01	8.090240e+14	8.998806e+14	3.379298e+13	1.168748e+04	5.602913e+03	4.063727e+03	0	1.094714e-03
4.700000e+08	6.797126e+13	0.000000e+00	8.878504e-01	8.006764e+14	8.908732e+14	3.362254e+13	1.165710e+04	5.592152e+03	4.055922e+03	0	1.090504e-03
4.800000e+08	6.719411e+13	0.000000e+00	8.878504e-01	7.924655e+14	8.820018e+14	3.345331e+13	1.162703e+04	5.581477e+03	4.048180e+03	0	1.086332e-03
4.900000e+08	6.642978e+13	0.000000e+00	8.878504e-01	7.843884e+14	8.732648e+14	3.328530e+13	1.159727e+04	5.570888e+03	4.040500e+03	0	1.082197e-03
5.000000e+08	6.567799e+13	0.000000e+00	8.878504e-01	7.764421e+14	8.646604e+14	3.311849e+13	1.156781e+04	5.560386e+03	4.032882e+03	0	1.078099e-03
5.100000e+08	6.493846e+13	0.000000e+00	8.878504e-01	7.686237e+14	8.561873e+14	3.295287e+13	1.153865e+04	5.549970e+03	4.025328e+03	0	1.074037e-03
5.200000e+08	6.421091e+13	0.000000e+00	8.878504e-01	7.609304e+14	8.478435e+14	3.278844e+13	1.150978e+04	5.539642e+03	4.017837e+03	0	1.070011e-03
5.300000e+08	6.349509e+13	0.000000e+00	8.878504e-01	7.533595e+14	8.396273e+14	3.262517e+13	1.148120e+04	5.529399e+03	4.010408e+03	0	1.066020e-03
5.400000e+08	6.279075e+13	0.000000e+00	8.878504e-01	7.459083e+14	8.315358e+14	3.246307e+13	1.145290e+04	5.519242e+03	4.003041e+03	0	1.062064e-03
5.500000e+08	6.209763e+13	0.000000e+00	8.878504e-01	7.385743e+14	8.235675e+14	3.230212e+13	1.142488e+04	5.509170e+03	3.995736e+03	0	1.058141e-03
5.600000e+08	6.141549e+13	0.000000e+00	8.878504e-01	7.313549e+14	8.157198e+14	3.214232e+13	1.139714e+04	5.499182e+03	3.988492e+03	0	1.054252e-03
5.700000e+08	6.074411e+13	0.000000e+00	8.878504e-01	7.242479e+14	8.079911e+14	3.198365e+13	1.136966e+04	5.489278e+03	3.981308e+03	0	1.050397e-03
5.800000e+08	6.008325e+13	0.000000e+00	8.878504e-01	7.172507e+14	8.003786e+14	3.182611e+13	1.134246e+04	5.479456e+03	3.974185e+03	0	1.046574e-03
5.900000e+08	5.943269e+13	0.000000e+00	8.878504e-01	7.103611e+14	7.928807e+14	3.166968e+13	1.131551e+04	5.469716e+03	3.967121e+03	0	1.042783e-03
6.000000e+08	5.879222e+13	0.000000e+00	8.878504e-01	7.035769e+14	7.854947e+14	3.151436e+13	1.128882e+04	5.460056e+03	3.960115e+03	0	1.039023e-03
6.100000e+08	5.816162e+13	0.000000e+00	8.878504e-01	6.968958e+14	7.782185e+14	3.136014e+13	1.126239e+04	5.450477e+03	3.953167e+03	0	1.035295e-03
6.200000e+08	5.754070e+13	0.000000e+00	8.878504e-01	6.903159e+14	7.710503e+14	3.120701e+13	1.123621e+04	5.440977e+03	3.946277e+03	0	1.031598e-03
6.300000e+08	5.692925e+13	0.000000e+00	8.878504e-01	6.838349e+14	7.639879e+14	3.105496e+13	1.121027e+04	5.431554e+03	3.939443e+03	0	1.027931e-03
6.400000e+08	5.632708e+13	0.000000e+00	8.878504e-01	6.774509e+14	7.570294e+14	3.090398e+13	1.118457e+04	5.422209e+03	3.932665e+03	0	1.024293e-03
6.500000e+08	5.573400e+13	0.000000e+00	8.878504e-01	6.711619e+14	7.501725e+14	3.075407e+13	1.115912e+04	5.412940e+03	3.925942e+03	0	1.020686e-03
6.600000e+08	5.514983e+13	0.000000e+00	8.878504e-01	6.649660e+14	7.434153e+14	3.060521e+13	1.113390e+04	5.403746e+03	3.919273e+03	0	1.017107e-03
6.700000e+08	5.457438e+13	0.000000e+00	8.878504e-01	6.588613e+14	7.367561e+14	3.045740e+13	1.110891e+04	5.394626e+03	3.912659e+03	0	1.013557e-03
6.800000e+08	5.400749e+13	0.000000e+00	8.878504e-01	6.528461e+14	7.301929e+14	3.031063e+13	1.108415e+04	5.385579e+03	3.906097e+03	0	1.010035e-03
6.900000e+08	5.344898e+13	0.000000e+00	8.878504e-01	6.469186e+14	7.237235e+14	3.016488e+13	1.105962e+04	5.376605e+03	3.899589e+03	0	1.006542e-03
7.000000e+08	5.289868e+13	0.000000e+00	8.878504e-01	6.410769e+14	7.173468e+14	3.002016e+13	1.103531e+04	5.367702e+03	3.893131e+03	0	1.003075e-03
7.100000e+08	5.235644e+13	0.000000e+00	8.878504e-01	6.353195e+14	7.110606e+14	2.987645e+13	1.101122e+04	5.358870e+03	3.886726e+03	0	9.996363e-04
7.200000e+08	5.182210e+13	0.000000e+00	8.878504e-01	6.296447e+14	7.048631e+14	2.973375e+13	1.098734e+04	5.350107e+03	3.880370e+03	0	9.962239e-04
7.300000e+08	5.129549e+13	0.000000e+00	8.878504e-01	6.240509e+14	6.987524e+14	2.959204e+13	1.096368e+04	5.341413e+03	3.874064e+03	0	9.928380e-04
7.400000e+08	5.077648e+13	0.000000e+00	8.878504e-01	6.185365e+14	6.927276e+14	2.945132e+13	1.094022e+04	5.332787e+03	3.867808e+03	0	9.894781e-04
7.500000e+08	5.026491e+13	0.000000e+00	8.878504e-01	6.131001e+14	6.867864e+14	2.931158e+13	1.091698e+04	5.324228e+03	3.861600e+03	0	9.861439e-04
7.600000e+08	4.976064e+13	0.000000e+00	8.878504e-01	6.077400e+14	6.809276e+14	2.917282e+13	1.089393e+04	5.315735e+03	3.855440e+03	0	9.828350e-04
7.700000e+08	4.926353e+13	0.000000e+00	8.878504e-01	6.024549e+14	6.751494e+14	2.903502e+13	1.087109e+04	5.307308e+03	3.849328e+03	0	9.795512e-04
7.800000e+08	4.877345e+13	0.000000e+00	8.878504e-01	5.972433e+14	6.694505e+14	2.889818e+13	1.084844e+04	5.298945e+03	3.843262e+03	0	9.762921e-04
7.900000e+08	4.829025e+13	0.000000e+00	8.878504e-01	5.921039e+14	6.638292e+14	2.876229e+13	1.082599e+04	5.290645e+03	3.837243e+03	0	9.730574e-04
8.000000e+08	4.781382e+13	0.000000e+00	8.878504e-01	5.870353e+14	6.582843e+14	2.862734e+13	1.080374e+04	5.282409e+03	3.831269e+03	0	9.698468e-04
8.100000e+08	4.734402e+13	0.000000e+00	8.878504e-01	5.820362e+14	6.528144e+14	2.849333e+13	1.078167e+04	5.274234e+03	3.825340e+03	0	9.666599e-04
8.200000e+08	4.688074e+13	0.000000e+00	8.878504e-01	5.771053e+14	6.474178e+14	2.836024e+13	1.075979e+04	5.266121e+03	3.819456e+03	0	9.634964e-04
8.300000e+08	4.642384e+13	0.000000e+00	8.878504e-01	5.722413e+14	6.420935e+14	2.822808e+13	1.073810e+04	5.258069e+03	3.813616e+03	0	9.603561e-04
8.400000e+08	4.597321e+13	0.000000e+00	8.878504e-01	5.674429e+14	6.368401e+14	2.809683e+13	1.071658e+04	5.250076e+03	3.807819e+03	0	9.572387e-04
8.500000e+08	4.552873e+13	0.000000e+00	8.878504e-01	5.627091e+14	6.316562e+14	2.796648e+13	1.069525e+04	5.242143e+03	3.802065e+03	0	9.541438e-04
8.600000e+08	4.509030e+13	0.000000e+00	8.878504e-01	5.580386e+14	6.265406e+14	2.783703e+13	1.067410e+04	5.234268e+03	3.796353e+03	0	9.510712e-04
8.700000e+08	4.465780e+13	0.000000e+00	8.878504e-01	5.534303e+14	6.214921e+14	2.770848e+13	1.065312e+04	5.226450e+03	3.790683e+03	0	9.480206e-04
8.800000e+08	4.423113e+13	0.000000e+00	8.878504e-01	5.488831e+14	6.165095e+14	2.758080e+13	1.063231e+04	5.218690e+03	3.785054e+03	0	9.449916e-04
8.900000e+08	4.381017e+13	0.000000e+00	8.878504e-01	5.443958e+14	6.115917e+14	2.745401e+13	1.061167e+04	5.210985e+03	3.779466e+03	0	9.419842e-04
9.000000e+08	4.339483e+13	0.000000e+00	8.878504e-01	5.399673e+14	6.067374e+14	2.732808e+13	1.059121e+04	5.203337e+03	3.773919e+03	0	9.389979e-04
9.100000e+08	4.298500e+13	0.000000e+00	8.878504e-01	5.355967e+14	6.019455e+14	2.720302e+13	1.057090e+04	5.195743e+03	3.768411e+03	0	9.360325e-04
9.200000e+08	4.258059e+13	0.000000e+00	8.878504e-01	5.312829e+14	5.972151e+14	2.707882e+13	1.055077e+04	5.188204e+03	3.762943e+03	0	9.330878e-04
9.300000e+08	4.218150e+13	0.000000e+00	8.878504e-01	5.270249e+14	5.925449e+14	2.695546e+13	1.053079e+04	5.180718e+03	3.757514e+03	0	9.301635e-04
9.400000e+08	4.178763e+13	0.000000e+00	8.878504e-01	5.228218e+14	5.879339e+14	2.683295e+13	1.051097e+04	5.173285e+03	3.752123e+03	0	9.272594e-04
9.500000e+08	4.139890e+13	0.000000e+00	8.878504e-01	5.186725e+14	5.833812e+14	2.671127e+13	1.049131e+04	5.165905e+03	3.746770e+03	0	9.243751e-04
9.600000e+08	4.101521e+13	0.000000e+00	8.878504e-01	5.145761e+14	5.788857e+14	2.659042e+13	1.047181e+04	5.158577e+03	3.741455e+03	0	9.215105e-04
9.700000e+08	4.063648e+13	0.000000e+00	8.878504e-01	5.105318e+14	5.744465e+14	2.647040e+13	1.045246e+04	5.151299e+03	3.736177e+03	0	9.186654e-04
9.800000e+08	4.026262e+13	0.000000e+00	8.878504e-01	5.065386e+14	5.700623e+14	2.635119e+13	1.043326e+04	5.144072e+03	3.730935e+03	0	9.158394e-04
9.900000e+08	3.989355e+13	0.000000e+00	8.878504e-01	5.025956e+14	5.657326e+14	2.623280e+13	1.041421e+04	5.136896e+03	3.725730e+03	0	9.130324e-04
1.000000e+09	3.952918e+13	0.000000e+00	8.878504e-01	4.987020e+14	5.614563e+14	2.611520e+13	1.039531e+04	5.129768e+03	3.720561e+03	0	9.102441e-04
1.010000e+09	3.916943e+13	0.000000e+00	8.878504e-01	4.948569e+14	5.572325e+14	2.599841e+13	1.037656e+04	5.122690e+03	3.715427e+03	0	9.074744e-04
1.020000e+09	3.881422e+13	0.000000e+00	8.878504e-01	4.910596e+14	5.530604e+14	2.588240e+13	1.035795e+04	5.115660e+03	3.710328e+03	0	9.047229e-04
1.030000e+09	3.846349e+13	0.000000e+00	8.878504e-01	4.873091e+14	5.489390e+14	2.576718e+13	1.033948e+04	5.108677e+03	3.705264e+03	0	9.019896e-04
1.040000e+09	3.811714e+13	0.000000e+00	8.878504e-01	4.836048e+14	5.448675e+14	2.565274e+13	1.032115e+04	5.101742e+03	3.700234e+03	0	8.992741e-04
1.050000e+09	3.777511e+13	0.000000e+00	8.878504e-01	4.799459e+14	5.408452e+14	2.553907e+13	1.030296e+04	5.094854e+03	3.695238e+03	0	8.965762e-04
1.060000e+09	3.743732e+13	0.000000e+00	8.878504e-01	4.763315e+14	5.368710e+14	2.542617e+13	1.028491e+04	5.088012e+03	3.690275e+03	0	8.938958e-04
1.070000e+09	3.710371e+13	0.000000e+00	8.878504e-01	4.727611e+14	5.329445e+14	2.531403e+13	1.026700e+04	5.081215e+03	3.685345e+03	0	8.912327e-04
1.080000e+09	3.677421e+13	0.000000e+00	8.878504e-01	4.692337e+14	5.290646e+14	2.520265e+13	1.024922e+04	5.074463e+03	3.680449e+03	0	8.885866e-04
1.090000e+09	3.644874e+13	0.000000e+00	8.878504e-01	4.657488e+14	5.252307e+14	2.509201e+13	1.023157e+04	5.067756e+03	3.675584e+03	0	8.859573e-04
1.100000e+09	3.612724e+13	0.000000e+00	8.878504e-01	4.623056e+14	5.214420e+14	2.498211e+13	1.021405e+04	5.061094e+03	3.670752e+03	0	8.833447e-04
1.110000e+09	3.580964e+13	0.000000e+00	8.878504e-01	4.589035e+14	5.176978e+14	2.487296e+13	1.019666e+04	5.054475e+03	3.665951e+03	0	8.807486e-04
1.120000e+09	3.549589e+13	0.000000e+00	8.878504e-01	4.555417e+14	5.139973e+14	2.476453e+13	1.017940e+04	5.047899e+03	3.661182e+03	0	8.781688e-04
1.130000e+09	3.518591e+13	0.000000e+00	8.878504e-01	4.522197e+14	5.103398e+14	2.465683e+13	1.016226e+04	5.041366e+03	3.656443e+03	0	8.756050e-04
1.140000e+09	3.487965e+13	0.000000e+00	8.878504e-01	4.489368e+14	5.067249e+14	2.454985e+13	1.014525e+04	5.034875e+03	3.651736e+03	0	8.730572e-04
1.150000e+09	3.457705e+13	0.000000e+00	8.878504e-01	4.456924e+14	5.031516e+14	2.444358e+13	1.012837e+04	5.028426e+03	3.647058e+03	0	8.705251e-04
1.160000e+09	3.427805e+13	0.000000e+00	8.878504e-01	4.424858e+14	4.996193e+14	2.433803e+13	1.011160e+04	5.022018e+03	3.642411e+03	0	8.680085e-04
1.170000e+09	3.398258e+13	0.000000e+00	8.878504e-01	4.393165e+14	4.961275e+14	2.423317e+13	1.009496e+04	5.015652e+03	3.637793e+03	0	8.655074e-04
1.180000e+09	3.369061e+13	0.000000e+00	8.878504e-01	4.361838e+14	4.926755e+14	2.412902e+13	1.007843e+04	5.009325e+03	3.633205e+03	0	8.630214e-04
1.190000e+09	3.340206e+13	0.000000e+00	8.878504e-01	4.330872e+14	4.892627e+14	2.402555e+13	1.006202e+04	5.003039e+03	3.628645e+03	0	8.605505e-04
1.200000e+09	3.311688e+13	0.000000e+00	8.878504e-01	4.300262e+14	4.858883e+14	2.392277e+13	1.004573e+04	4.996793e+03	3.624115e+03	0	8.580945e-04
1.210000e+09	3.283503e+13	0.000000e+00	8.878504e-01	4.270001e+14	4.825519e+14	2.382068e+13	1.002955e+04	4.990585e+03	3.619613e+03	0	8.556532e-04
1.220000e+09	3.255644e+13	0.000000e+00	8.878504e-01	4.240085e+14	4.792528e+14	2.371926e+13	1.001349e+04	4.984417e+03	3.615139e+03	0	8.532264e-04
1.230000e+09	3.228108e+13	0.000000e+00	8.878504e-01	4.210507e+14	4.759906e+14	2.361851e+13	9.997535e+03	4.978286e+03	3.610693e+03	0	8.508140e-04
1.240000e+09	3.200888e+13	0.000000e+00	8.878504e-01	4.181263e+14	4.727647e+14	2.351843e+13	9.981694e+03	4.972194e+03	3.606274e+03	0	8.484159e-04
1.250000e+09	3.173980e+13	0.000000e+00	8.878504e-01	4.152348e+14	4.695743e+14	2.341901e+13	9.965963e+03	4.966140e+03	3.601883e+03	0	8.460318e-04
1.260000e+09	3.147379e+13	0.000000e+00	8.878504e-01	4.123756e+14	4.664192e+14	2.332024e+13	9.950340e+03	4.960122e+03	3.597519e+03	0	8.436617e-04
1.270000e+09	3.121081e+13	0.000000e+00	8.878504e-01	4.095482e+14	4.632986e+14	2.322212e+13	9.934825e+03	4.954142e+03	3.593181e+03	0	8.413053e-04
1.280000e+09	3.095080e+13	0.000000e+00	8.878504e-01	4.067523e+14	4.602121e+14	2.312465e+13	9.919416e+03	4.948198e+03	3.588870e+03	0	8.389626e-04
1.290000e+09	3.069373e+13	0.000000e+00	8.878504e-01	4.039872e+14	4.571592e+14	2.302782e+13	9.904112e+03	4.942290e+03	3.584585e+03	0	8.366333e-04
1.300000e+09	3.043954e+13	0.000000e+00	8.878504e-01	4.012526e+14	4.541393e+14	2.293163e+13	9.888912e+03	4.936418e+03	3.580326e+03	0	8.343174e-04
1.310000e+09	3.018819e+13	0.000000e+00	8.878504e-01	3.985479e+14	4.511521e+14	2.283607e+13	9.873815e+03	4.930581e+03	3.576093e+03	0	8.320147e-04
1.320000e+09	2.993965e+13	0.000000e+00	8.878504e-01	3.958728e+14	4.481970e+14	2.274113e+13	9.858818e+03	4.924779e+03	3.571885e+03	0	8.297251e-04
1.330000e+09	2.969387e+13	0.000000e+00	8.878504e-01	3.932268e+14	4.452735e+14	2.264681e+13	9.843923e+03	4.919012e+03	3.567702e+03	0	8.274483e-04
1.340000e+09	2.945080e+13	0.000000e+00	8.878504e-01	3.906094e+14	4.423811e+14	2.255311e+13	9.829127e+03	4.913279e+03	3.563544e+03	0	8.251844e-04
1.350000e+09	2.921041e+13	0.000000e+00	8.878504e-01	3.880203e+14	4.395196e+14	2.246002e+13	9.814429e+03	4.907581e+03	3.559410e+03	0	8.229331e-04
1.360000e+09	2.897266e+13	0.000000e+00	8.878504e-01	3.854590e+14	4.366882e+14	2.236754e+13	9.799828e+03	4.901915e+03	3.555302e+03	0	8.206943e-04
