#t		Qconv[W]	Ri[Rp]		R*[Rp]		Qc[W]		Qm[W]		Qr[W]		Tcmb[K]		Tl[K]		Tup[K]		RiFlag		Bs[T]
0.000000e+00	7.999322e+13	0.000000e+00	8.867928e-01	9.686762e+14	4.854124e+13	6.167802e+13	1.377607e+04	3.636220e+03	2.681853e+03	0	1.138828e-03
1.000000e+07	8.127802e+13	0.000000e+00	8.867928e-01	9.793232e+14	6.328101e+13	6.133628e+13	1.375338e+04	3.775723e+03	2.784742e+03	0	1.144893e-03
2.000000e+07	8.244232e+13	0.000000e+00	8.867928e-01	9.889239e+14	8.111664e+13	6.099709e+13	1.373045e+04	3.914373e+03	2.887002e+03	0	1.150334e-03
3.000000e+07	8.347834e+13	0.000000e+00	8.867928e-01	9.974113e+14	1.023117e+14	6.066044e+13	1.370729e+04	4.051558e+03	2.988181e+03	0	1.155132e-03
4.000000e+07	8.437991e+13	0.000000e+00	8.867928e-01	1.004733e+15	1.270527e+14	6.032631e+13	1.368394e+04	4.186624e+03	3.087797e+03	0	1.159276e-03
5.000000e+07	8.514279e+13	0.000000e+00	8.867928e-01	1.010852e+15	1.554260e+14	5.999466e+13	1.366041e+04	4.318888e+03	3.185347e+03	0	1.162759e-03
6.000000e+07	8.576491e+13	0.000000e+00	8.867928e-01	1.015752e+15	1.873976e+14	5.966549e+13	1.363674e+04	4.447661e+03	3.280322e+03	0	1.165584e-03
7.000000e+07	8.624660e+13	0.000000e+00	8.867928e-01	1.019436e+15	2.228006e+14	5.933877e+13	1.361296e+04	4.572264e+03	3.372221e+03	0	1.167762e-03
8.000000e+07	8.659057e+13	0.000000e+00	8.867928e-01	1.021929e+15	2.613317e+14	5.901447e+13	1.358909e+04	4.692051e+03	3.460569e+03	0	1.169313e-03
9.000000e+07	8.680182e+13	0.000000e+00	8.867928e-01	1.023273e+15	3.025575e+14	5.869259e+13	1.356516e+04	4.806435e+03	3.544932e+03	0	1.170263e-03
1.000000e+08	8.688740e+13	0.000000e+00	8.867928e-01	1.023530e+15	3.459325e+14	5.837310e+13	1.354120e+04	4.914903e+03	3.624931e+03	0	1.170647e-03
1.100000e+08	8.685608e+13	0.000000e+00	8.867928e-01	1.022777e+15	3.908256e+14	5.805598e+13	1.351724e+04	5.017038e+03	3.700260e+03	0	1.170507e-03
1.200000e+08	8.671792e+13	0.000000e+00	8.867928e-01	1.021101e+15	4.365530e+14	5.774121e+13	1.349329e+04	5.112525e+03	3.770685e+03	0	1.169886e-03
1.300000e+08	8.648380e+13	0.000000e+00	8.867928e-01	1.018596e+15	4.824156e+14	5.742877e+13	1.346938e+04	5.201165e+03	3.836061e+03	0	1.168832e-03
1.400000e+08	8.616494e+13	0.000000e+00	8.867928e-01	1.015360e+15	5.277333e+14	5.711865e+13	1.344553e+04	5.282868e+03	3.896320e+03	0	1.167394e-03
1.500000e+08	8.577255e+13	0.000000e+00	8.867928e-01	1.011490e+15	5.718783e+14	5.681081e+13	1.342176e+04	5.357654e+03	3.951478e+03	0	1.165619e-03
1.600000e+08	8.531738e+13	0.000000e+00	8.867928e-01	1.007080e+15	6.142987e+14	5.650525e+13	1.339808e+04	5.425641e+03	4.001621e+03	0	1.163553e-03
1.700000e+08	8.480952e+13	0.000000e+00	8.867928e-01	1.002216e+15	6.545362e+14	5.620195e+13	1.337450e+04	5.487033e+03	4.046899e+03	0	1.161240e-03
1.800000e+08	8.425820e+13	0.000000e+00	8.867928e-01	9.969787e+14	6.922352e+14	5.590088e+13	1.335103e+04	5.542104e+03	4.087516e+03	0	1.158718e-03
1.900000e+08	8.367165e+13	0.000000e+00	8.867928e-01	9.914396e+14	7.271427e+14	5.560203e+13	1.332769e+04	5.591183e+03	4.123714e+03	0	1.156023e-03
2.000000e+08	8.305711e+13	0.000000e+00	8.867928e-01	9.856611e+14	7.591039e+14	5.530537e+13	1.330447e+04	5.634640e+03	4.155765e+03	0	1.153186e-03
2.100000e+08	8.242082e+13	0.000000e+00	8.867928e-01	9.796974e+14	7.880518e+14	5.501090e+13	1.328139e+04	5.672868e+03	4.183960e+03	0	1.150234e-03
2.200000e+08	8.176807e+13	0.000000e+00	8.867928e-01	9.735942e+14	8.139954e+14	5.471859e+13	1.325845e+04	5.706272e+03	4.208596e+03	0	1.147189e-03
2.300000e+08	8.110330e+13	0.000000e+00	8.867928e-01	9.673901e+14	8.370049e+14	5.442843e+13	1.323566e+04	5.735258e+03	4.229975e+03	0	1.144072e-03
2.400000e+08	8.043021e+13	0.000000e+00	8.867928e-01	9.611169e+14	8.571977e+14	5.414040e+13	1.321300e+04	5.760225e+03	4.248389e+03	0	1.140898e-03
2.500000e+08	7.975181e+13	0.000000e+00	8.867928e-01	9.548009e+14	8.747263e+14	5.385447e+13	1.319050e+04	5.781554e+03	4.264120e+03	0	1.137681e-03
2.600000e+08	7.907058e+13	0.000000e+00	8.867928e-01	9.484633e+14	8.897663e+14	5.357064e+13	1.316814e+04	5.799610e+03	4.277437e+03	0	1.134433e-03
2.700000e+08	7.838849e+13	0.000000e+00	8.867928e-01	9.421214e+14	9.025058e+14	5.328888e+13	1.314593e+04	5.814732e+03	4.288590e+03	0	1.131161e-03
2.800000e+08	7.770715e+13	0.000000e+00	8.867928e-01	9.357888e+14	9.131382e+14	5.300918e+13	1.312387e+04	5.827236e+03	4.297812e+03	0	1.127875e-03
2.900000e+08	7.702783e+13	0.000000e+00	8.867928e-01	9.294767e+14	9.218572e+14	5.273152e+13	1.310195e+04	5.837410e+03	4.305316e+03	0	1.124578e-03
3.000000e+08	7.635152e+13	0.000000e+00	8.867928e-01	9.231936e+14	9.288486e+14	5.245588e+13	1.308019e+04	5.845519e+03	4.311297e+03	0	1.121277e-03
3.100000e+08	7.567904e+13	0.000000e+00	8.867928e-01	9.169464e+14	9.342915e+14	5.218225e+13	1.305857e+04	5.851802e+03	4.315930e+03	0	1.117976e-03
3.200000e+08	7.501098e+13	0.000000e+00	8.867928e-01	9.107405e+14	9.383530e+14	5.191062e+13	1.303710e+04	5.856472e+03	4.319375e+03	0	1.114676e-03
3.300000e+08	7.434784e+13	0.000000e+00	8.867928e-01	9.045800e+14	9.411877e+14	5.164096e+13	1.301577e+04	5.859724e+03	4.321773e+03	0	1.111382e-03
3.400000e+08	7.368999e+13	0.000000e+00	8.867928e-01	8.984682e+14	9.429386e+14	5.137325e+13	1.299458e+04	5.861728e+03	4.323252e+03	0	1.108094e-03
3.500000e+08	7.303771e+13	0.000000e+00	8.867928e-01	8.924073e+14	9.437348e+14	5.110749e+13	1.297354e+04	5.862639e+03	4.323923e+03	0	1.104815e-03
3.600000e+08	7.239120e+13	0.000000e+00	8.867928e-01	8.863992e+14	9.436930e+14	5.084366e+13	1.295264e+04	5.862591e+03	4.323888e+03	0	1.101545e-03
3.700000e+08	7.175064e+13	0.000000e+00	8.867928e-01	8.804453e+14	9.429185e+14	5.058174e+13	1.293188e+04	5.861705e+03	4.323234e+03	0	1.098287e-03
3.800000e+08	7.111612e+13	0.000000e+00	8.867928e-01	8.745464e+14	9.415050e+14	5.032171e+13	1.291126e+04	5.860087e+03	4.322041e+03	0	1.095040e-03
3.900000e+08	7.048773e+13	0.000000e+00	8.867928e-01	8.687032e+14	9.395362e+14	5.006356e+13	1.289078e+04	5.857830e+03	4.320377e+03	0	1.091805e-03
4.000000e+08	6.986550e+13	0.000000e+00	8.867928e-01	8.629161e+14	9.370865e+14	4.980727e+13	1.287043e+04	5.855018e+03	4.318302e+03	0	1.088583e-03
4.100000e+08	6.924946e+13	0.000000e+00	8.867928e-01	8.571851e+14	9.342213e+14	4.955284e+13	1.285022e+04	5.851721e+03	4.315871e+03	0	1.085374e-03
4.200000e+08	6.863961e+13	0.000000e+00	8.867928e-01	8.515104e+14	9.309980e+14	4.930024e+13	1.283015e+04	5.848003e+03	4.313129e+03	0	1.082178e-03
4.300000e+08	6.803595e+13	0.000000e+00	8.867928e-01	8.458918e+14	9.274679e+14	4.904945e+13	1.281020e+04	5.843922e+03	4.310119e+03	0	1.078996e-03
4.400000e+08	6.743845e+13	0.000000e+00	8.867928e-01	8.403291e+14	9.236759e+14	4.880048e+13	1.279039e+04	5.839524e+03	4.306875e+03	0	1.075828e-03
4.500000e+08	6.684708e+13	0.000000e+00	8.867928e-01	8.348220e+14	9.196613e+14	4.855329e+13	1.277071e+04	5.834854e+03	4.303431e+03	0	1.072674e-03
4.600000e+08	6.626180e+13	0.000000e+00	8.867928e-01	8.293701e+14	9.154575e+14	4.830787e+13	1.275115e+04	5.829949e+03	4.299813e+03	0	1.069535e-03
4.700000e+08	6.568256e+13	0.000000e+00	8.867928e-01	8.239730e+14	9.110954e+14	4.806422e+13	1.273172e+04	5.824842e+03	4.296046e+03	0	1.066409e-03
4.800000e+08	6.510931e+13	0.000000e+00	8.867928e-01	8.186302e+14	9.066016e+14	4.782231e+13	1.271242e+04	5.819561e+03	4.292152e+03	0	1.063298e-03
4.900000e+08	6.454200e+13	0.000000e+00	8.867928e-01	8.133413e+14	9.019981e+14	4.758213e+13	1.269325e+04	5.814133e+03	4.288148e+03	0	1.060200e-03
5.000000e+08	6.398057e+13	0.000000e+00	8.867928e-01	8.081057e+14	8.973054e+14	4.734367e+13	1.267420e+04	5.808578e+03	4.284051e+03	0	1.057117e-03
5.100000e+08	6.342496e+13	0.000000e+00	8.867928e-01	8.029228e+14	8.925411e+14	4.710692e+13	1.265527e+04	5.802917e+03	4.279876e+03	0	1.054048e-03
5.200000e+08	6.287511e+13	0.000000e+00	8.867928e-01	7.977921e+14	8.877201e+14	4.687185e+13	1.263646e+04	5.797166e+03	4.275635e+03	0	1.050994e-03
5.300000e+08	6.233095e+13	0.000000e+00	8.867928e-01	7.927130e+14	8.828557e+14	4.663846e+13	1.261777e+04	5.791341e+03	4.271338e+03	0	1.047953e-03
5.400000e+08	6.179242e+13	0.000000e+00	8.867928e-01	7.876850e+14	8.779593e+14	4.640673e+13	1.259920e+04	5.785454e+03	4.266996e+03	0	1.044926e-03
5.500000e+08	6.125946e+13	0.000000e+00	8.867928e-01	7.827074e+14	8.730411e+14	4.617665e+13	1.258075e+04	5.779517e+03	4.262617e+03	0	1.041913e-03
5.600000e+08	6.073199e+13	0.000000e+00	8.867928e-01	7.777797e+14	8.681094e+14	4.594821e+13	1.256241e+04	5.773539e+03	4.258209e+03	0	1.038914e-03
5.700000e+08	6.020995e+13	0.000000e+00	8.867928e-01	7.729013e+14	8.631724e+14	4.572139e+13	1.254419e+04	5.767530e+03	4.253776e+03	0	1.035929e-03
5.800000e+08	5.969328e+13	0.000000e+00	8.867928e-01	7.680715e+14	8.582357e+14	4.549618e+13	1.252609e+04	5.761496e+03	4.249327e+03	0	1.032957e-03
5.900000e+08	5.918190e+13	0.000000e+00	8.867928e-01	7.632897e+14	8.533055e+14	4.527256e+13	1.250809e+04	5.755446e+03	4.244864e+03	0	1.029999e-03
6.000000e+08	5.867576e+13	0.000000e+00	8.867928e-01	7.585555e+14	8.483864e+14	4.505053e+13	1.249021e+04	5.749383e+03	4.240393e+03	0	1.027054e-03
6.100000e+08	5.817479e+13	0.000000e+00	8.867928e-01	7.538681e+14	8.434830e+14	4.483007e+13	1.247244e+04	5.743315e+03	4.235917e+03	0	1.024123e-03
6.200000e+08	5.767891e+13	0.000000e+00	8.867928e-01	7.492270e+14	8.385987e+14	4.461117e+13	1.245478e+04	5.737244e+03	4.231440e+03	0	1.021205e-03
6.300000e+08	5.718808e+13	0.000000e+00	8.867928e-01	7.446316e+14	8.337363e+14	4.439381e+13	1.243722e+04	5.731176e+03	4.226964e+03	0	1.018300e-03
6.400000e+08	5.670221e+13	0.000000e+00	8.867928e-01	7.400814e+14	8.288985e+14	4.417798e+13	1.241978e+04	5.725113e+03	4.222492e+03	0	1.015408e-03
6.500000e+08	5.622125e+13	0.000000e+00	8.867928e-01	7.355757e+14	8.240880e+14	4.396368e+13	1.240244e+04	5.719058e+03	4.218027e+03	0	1.012529e-03
6.600000e+08	5.574514e+13	0.000000e+00	8.867928e-01	7.311140e+14	8.193062e+14	4.375088e+13	1.238521e+04	5.713014e+03	4.213569e+03	0	1.009662e-03
6.700000e+08	5.527382e+13	0.000000e+00	8.867928e-01	7.266958e+14	8.145548e+14	4.353958e+13	1.236808e+04	5.706984e+03	4.209121e+03	0	1.006809e-03
6.800000e+08	5.480721e+13	0.000000e+00	8.867928e-01	7.223204e+14	8.098354e+14	4.332976e+13	1.235105e+04	5.700968e+03	4.204685e+03	0	1.003968e-03
6.900000e+08	5.434526e+13	0.000000e+00	8.867928e-01	7.179874e+14	8.051493e+14	4.312142e+13	1.233413e+04	5.694970e+03	4.200261e+03	0	1.001139e-03
7.000000e+08	5.388792e+13	0.000000e+00	8.867928e-01	7.136961e+14	8.004967e+14	4.291453e+13	1.231730e+04	5.688989e+03	4.195850e+03	0	9.983226e-04
7.100000e+08	5.343511e+13	0.000000e+00	8.867928e-01	7.094462e+14	7.958793e+14	4.270910e+13	1.230058e+04	5.683029e+03	4.191454e+03	0	9.955186e-04
7.200000e+08	5.298679e+13	0.000000e+00	8.867928e-01	7.052369e+14	7.912968e+14	4.250510e+13	1.228396e+04	5.677089e+03	4.187073e+03	0	9.927266e-04
7.300000e+08	5.254289e+13	0.000000e+00	8.867928e-01	7.010679e+14	7.867502e+14	4.230252e+13	1.226743e+04	5.671171e+03	4.182708e+03	0	9.899466e-04
7.400000e+08	5.210336e+13	0.000000e+00	8.867928e-01	6.969386e+14	7.822397e+14	4.210136e+13	1.225101e+04	5.665275e+03	4.178360e+03	0	9.871785e-04
7.500000e+08	5.166813e+13	0.000000e+00	8.867928e-01	6.928485e+14	7.777658e+14	4.190161e+13	1.223468e+04	5.659403e+03	4.174029e+03	0	9.844222e-04
7.600000e+08	5.123717e+13	0.000000e+00	8.867928e-01	6.887971e+14	7.733283e+14	4.170324e+13	1.221844e+04	5.653554e+03	4.169715e+03	0	9.816775e-04
7.700000e+08	5.081040e+13	0.000000e+00	8.867928e-01	6.847839e+14	7.689277e+14	4.150625e+13	1.220230e+04	5.647730e+03	4.165419e+03	0	9.789443e-04
7.800000e+08	5.038778e+13	0.000000e+00	8.867928e-01	6.808084e+14	7.645637e+14	4.131064e+13	1.218626e+04	5.641930e+03	4.161142e+03	0	9.762226e-04
7.900000e+08	4.996926e+13	0.000000e+00	8.867928e-01	6.768702e+14	7.602364e+14	4.111638e+13	1.217030e+04	5.636155e+03	4.156883e+03	0	9.735123e-04
8.000000e+08	4.955477e+13	0.000000e+00	8.867928e-01	6.729687e+14	7.559456e+14	4.092347e+13	1.215444e+04	5.630406e+03	4.152642e+03	0	9.708131e-04
8.100000e+08	4.914428e+13	0.000000e+00	8.867928e-01	6.691036e+14	7.516914e+14	4.073189e+13	1.213867e+04	5.624682e+03	4.148420e+03	0	9.681250e-04
8.200000e+08	4.873772e+13	0.000000e+00	8.867928e-01	6.652743e+14	7.474739e+14	4.054165e+13	1.212299e+04	5.618983e+03	4.144218e+03	0	9.654479e-04
8.300000e+08	4.833505e+13	0.000000e+00	8.867928e-01	6.614805e+14	7.432925e+14	4.035271e+13	1.210740e+04	5.613311e+03	4.140034e+03	0	9.627818e-04
8.400000e+08	4.793622e+13	0.000000e+00	8.867928e-01	6.577216e+14	7.391467e+14	4.016508e+13	1.209190e+04	5.607664e+03	4.135870e+03	0	9.601264e-04
8.500000e+08	4.754119e+13	0.000000e+00	8.867928e-01	6.539972e+14	7.350371e+14	3.997875e+13	1.207649e+04	5.602044e+03	4.131724e+03	0	9.574817e-04
8.600000e+08	4.714989e+13	0.000000e+00	8.867928e-01	6.503069e+14	7.309628e+14	3.979370e+13	1.206116e+04	5.596449e+03	4.127598e+03	0	9.548475e-04
8.700000e+08	4.676229e+13	0.000000e+00	8.867928e-01	6.466504e+14	7.269238e+14	3.960993e+13	1.204593e+04	5.590880e+03	4.123491e+03	0	9.522239e-04
8.800000e+08	4.637834e+13	0.000000e+00	8.867928e-01	6.430270e+14	7.229198e+14	3.942742e+13	1.203077e+04	5.585338e+03	4.119403e+03	0	9.496106e-04
8.900000e+08	4.599800e+13	0.000000e+00	8.867928e-01	6.394366e+14	7.189502e+14	3.924616e+13	1.201570e+04	5.579821e+03	4.115334e+03	0	9.470075e-04
9.000000e+08	4.562121e+13	0.000000e+00	8.867928e-01	6.358786e+14	7.150154e+14	3.906615e+13	1.200072e+04	5.574330e+03	4.111284e+03	0	9.444147e-04
9.100000e+08	4.524794e+13	0.000000e+00	8.867928e-01	6.323526e+14	7.111144e+14	3.888737e+13	1.198581e+04	5.568865e+03	4.107254e+03	0	9.418319e-04
9.200000e+08	4.487814e+13	0.000000e+00	8.867928e-01	6.288583e+14	7.072472e+14	3.870981e+13	1.197099e+04	5.563426e+03	4.103242e+03	0	9.392591e-04
9.300000e+08	4.451176e+13	0.000000e+00	8.867928e-01	6.253952e+14	7.034134e+14	3.853347e+13	1.195626e+04	5.558012e+03	4.099249e+03	0	9.366961e-04
9.400000e+08	4.414878e+13	0.000000e+00	8.867928e-01	6.219631e+14	6.996126e+14	3.835834e+13	1.194160e+04	5.552624e+03	4.095275e+03	0	9.341430e-04
9.500000e+08	4.378913e+13	0.000000e+00	8.867928e-01	6.185614e+14	6.958447e+14	3.818440e+13	1.192702e+04	5.547261e+03	4.091320e+03	0	9.315995e-04
9.600000e+08	4.343279e+13	0.000000e+00	8.867928e-01	6.151899e+14	6.921091e+14	3.801164e+13	1.191253e+04	5.541923e+03	4.087383e+03	0	9.290656e-04
9.700000e+08	4.307971e+13	0.000000e+00	8.867928e-01	6.118482e+14	6.884056e+14	3.784007e+13	1.189811e+04	5.536610e+03	4.083465e+03	0	9.265412e-04
9.800000e+08	4.272985e+13	0.000000e+00	8.867928e-01	6.085359e+14	6.847340e+14	3.766966e+13	1.188377e+04	5.531323e+03	4.079565e+03	0	9.240262e-04
9.900000e+08	4.238318e+13	0.000000e+00	8.867928e-01	6.052527e+14	6.810937e+14	3.750041e+13	1.186951e+04	5.526060e+03	4.075683e+03	0	9.215204e-04
1.000000e+09	4.203965e+13	0.000000e+00	8.867928e-01	6.019982e+14	6.774846e+14	3.733230e+13	1.185532e+04	5.520822e+03	4.071820e+03	0	9.190239e-04
1.010000e+09	4.169923e+13	0.000000e+00	8.867928e-01	5.987721e+14	6.739061e+14	3.716534e+13	1.184121e+04	5.515609e+03	4.067975e+03	0	9.165366e-04
1.020000e+09	4.136187e+13	0.000000e+00	8.867928e-01	5.955740e+14	6.703579e+14	3.699951e+13	1.182718e+04	5.510419e+03	4.064148e+03	0	9.140582e-04
1.030000e+09	4.102755e+13	0.000000e+00	8.867928e-01	5.924037e+14	6.668401e+14	3.683480e+13	1.181322e+04	5.505255e+03	4.060338e+03	0	9.115888e-04
1.040000e+09	4.069623e+13	0.000000e+00	8.867928e-01	5.892607e+14	6.633520e+14	3.667121e+13	1.179933e+04	5.500114e+03	4.056547e+03	0	9.091283e-04
1.050000e+09	4.036786e+13	0.000000e+00	8.867928e-01	5.861448e+14	6.598932e+14	3.650872e+13	1.178552e+04	5.494997e+03	4.052773e+03	0	9.066765e-04
1.060000e+09	4.004242e+13	0.000000e+00	8.867928e-01	5.830556e+14	6.564637e+14	3.634732e+13	1.177178e+04	5.489904e+03	4.049017e+03	0	9.042334e-04
1.070000e+09	3.971987e+13	0.000000e+00	8.867928e-01	5.799929e+14	6.530628e+14	3.618701e+13	1.175812e+04	5.484834e+03	4.045278e+03	0	9.017989e-04
1.080000e+09	3.940017e+13	0.000000e+00	8.867928e-01	5.769562e+14	6.496905e+14	3.602778e+13	1.174452e+04	5.479788e+03	4.041556e+03	0	8.993730e-04
1.090000e+09	3.908330e+13	0.000000e+00	8.867928e-01	5.739454e+14	6.463464e+14	3.586962e+13	1.173100e+04	5.474765e+03	4.037851e+03	0	8.969554e-04
1.100000e+09	3.876921e+13	0.000000e+00	8.867928e-01	5.709601e+14	6.430303e+14	3.571253e+13	1.171755e+04	5.469765e+03	4.034164e+03	0	8.945462e-04
1.110000e+09	3.845788e+13	0.000000e+00	8.867928e-01	5.680001e+14	6.397416e+14	3.555649e+13	1.170416e+04	5.464789e+03	4.030493e+03	0	8.921453e-04
1.120000e+09	3.814927e+13	0.000000e+00	8.867928e-01	5.650649e+14	6.364800e+14	3.540149e+13	1.169085e+04	5.459835e+03	4.026839e+03	0	8.897525e-04
1.130000e+09	3.784336e+13	0.000000e+00	8.867928e-01	5.621544e+14	6.332456e+14	3.524753e+13	1.167760e+04	5.454903e+03	4.023202e+03	0	8.873678e-04
1.140000e+09	3.754010e+13	0.000000e+00	8.867928e-01	5.592683e+14	6.300376e+14	3.509460e+13	1.166443e+04	5.449994e+03	4.019582e+03	0	8.849912e-04
1.150000e+09	3.723947e+13	0.000000e+00	8.867928e-01	5.564062e+14	6.268562e+14	3.494269e+13	1.165132e+04	5.445108e+03	4.015978e+03	0	8.826225e-04
1.160000e+09	3.694145e+13	0.000000e+00	8.867928e-01	5.535680e+14	6.237008e+14	3.479179e+13	1.163827e+04	5.440243e+03	4.012390e+03	0	8.802616e-04
1.170000e+09	3.664599e+13	0.000000e+00	8.867928e-01	5.507533e+14	6.205711e+14	3.464190e+13	1.162530e+04	5.435401e+03	4.008819e+03	0	8.779085e-04
1.180000e+09	3.635307e+13	0.000000e+00	8.867928e-01	5.479619e+14	6.174670e+14	3.449300e+13	1.161239e+04	5.430580e+03	4.005263e+03	0	8.755632e-04
1.190000e+09	3.606266e+13	0.000000e+00	8.867928e-01	5.451934e+14	6.143881e+14	3.434510e+13	1.159954e+04	5.425781e+03	4.001724e+03	0	8.732254e-04
1.200000e+09	3.577473e+13	0.000000e+00	8.867928e-01	5.424477e+14	6.113342e+14	3.419818e+13	1.158676e+04	5.421004e+03	3.998200e+03	0	8.708952e-04
1.210000e+09	3.548925e+13	0.000000e+00	8.867928e-01	5.397246e+14	6.083051e+14	3.405223e+13	1.157405e+04	5.416248e+03	3.994692e+03	0	8.685725e-04
1.220000e+09	3.520620e+13	0.000000e+00	8.867928e-01	5.370236e+14	6.053000e+14	3.390725e+13	1.156139e+04	5.411513e+03	3.991200e+03	0	8.662572e-04
1.230000e+09	3.492555e+13	0.000000e+00	8.867928e-01	5.343447e+14	6.023194e+14	3.376322e+13	1.154881e+04	5.406799e+03	3.987724e+03	0	8.639492e-04
1.240000e+09	3.464727e+13	0.000000e+00	8.867928e-01	5.316875e+14	5.993626e+14	3.362015e+13	1.153628e+04	5.402106e+03	3.984262e+03	0	8.616485e-04
1.250000e+09	3.437133e+13	0.000000e+00	8.867928e-01	5.290518e+14	5.964293e+14	3.347803e+13	1.152382e+04	5.397434e+03	3.980816e+03	0	8.593549e-04
1.260000e+09	3.409771e+13	0.000000e+00	8.867928e-01	5.264373e+14	5.935195e+14	3.333684e+13	1.151141e+04	5.392782e+03	3.977386e+03	0	8.570685e-04
1.270000e+09	3.382638e+13	0.000000e+00	8.867928e-01	5.238439e+14	5.906327e+14	3.319658e+13	1.149907e+04	5.388151e+03	3.973970e+03	0	8.547891e-04
1.280000e+09	3.355731e+13	0.000000e+00	8.867928e-01	5.212714e+14	5.877688e+14	3.305724e+13	1.148679e+04	5.383540e+03	3.970569e+03	0	8.525166e-04
1.290000e+09	3.329049e+13	0.000000e+00	8.867928e-01	5.187193e+14	5.849275e+14	3.291882e+13	1.147457e+04	5.378950e+03	3.967184e+03	0	8.502511e-04
1.300000e+09	3.302588e+13	0.000000e+00	8.867928e-01	5.161877e+14	5.821087e+14	3.278131e+13	1.146241e+04	5.374379e+03	3.963813e+03	0	8.479923e-04
1.310000e+09	3.276346e+13	0.000000e+00	8.867928e-01	5.136761e+14	5.793118e+14	3.264470e+13	1.145031e+04	5.369828e+03	3.960456e+03	0	8.457404e-04
1.320000e+09	3.250321e+13	0.000000e+00	8.867928e-01	5.111845e+14	5.765369e+14	3.250899e+13	1.143827e+04	5.365297e+03	3.957115e+03	0	8.434951e-04
1.330000e+09	3.224510e+13	0.000000e+00	8.867928e-01	5.087125e+14	5.737838e+14	3.237416e+13	1.142628e+04	5.360786e+03	3.953787e+03	0	8.412564e-04
1.340000e+09	3.198911e+13	0.000000e+00	8.867928e-01	5.062601e+14	5.710519e+14	3.224021e+13	1.141436e+04	5.356294e+03	3.950474e+03	0	8.390243e-04
1.350000e+09	3.173522e+13	0.000000e+00	8.867928e-01	5.038269e+14	5.683414e+14	3.210714e+13	1.140249e+04	5.351821e+03	3.947176e+03	0	8.367986e-04
1.360000e+09	3.148340e+13	0.000000e+00	8.867928e-01	5.014127e+14	5.656519e+14	3.197493e+13	1.139067e+04	5.347368e+03	3.943891e+03	0	8.345794e-04
