#t		Qconv[W]	Ri[Rp]		R*[Rp]		Qc[W]		Qm[W]		Qr[W]		Tcmb[K]		Tl[K]		Tup[K]		RiFlag		Bs[T]
0.000000e+00	2.659465e+14	0.000000e+00	8.857147e-01	2.799498e+15	4.228424e+13	8.119088e+13	1.916300e+04	4.051963e+03	2.814672e+03	0	1.684602e-03
1.000000e+07	2.724273e+14	0.000000e+00	8.857147e-01	2.848102e+15	7.265405e+13	8.074103e+13	1.911954e+04	4.365472e+03	3.032449e+03	0	1.698177e-03
2.000000e+07	2.780714e+14	0.000000e+00	8.857147e-01	2.890186e+15	1.178054e+14	8.029453e+13	1.907533e+04	4.680168e+03	3.251050e+03	0	1.709824e-03
3.000000e+07	2.827915e+14	0.000000e+00	8.857147e-01	2.925077e+15	1.814444e+14	7.985138e+13	1.903047e+04	4.993480e+03	3.468690e+03	0	1.719444e-03
4.000000e+07	2.865227e+14	0.000000e+00	8.857147e-01	2.952277e+15	2.667977e+14	7.941153e+13	1.898506e+04	5.302371e+03	3.683260e+03	0	1.726974e-03
5.000000e+07	2.892309e+14	0.000000e+00	8.857147e-01	2.971523e+15	3.760116e+14	7.897497e+13	1.893924e+04	5.603446e+03	3.892400e+03	0	1.732398e-03
6.000000e+07	2.909194e+14	0.000000e+00	8.857147e-01	2.982849e+15	5.095813e+14	7.854165e+13	1.889312e+04	5.893130e+03	4.093627e+03	0	1.735762e-03
7.000000e+07	2.916318e+14	0.000000e+00	8.857147e-01	2.986596e+15	6.659584e+14	7.811157e+13	1.884682e+04	6.167908e+03	4.284500e+03	0	1.737178e-03
8.000000e+07	2.914494e+14	0.000000e+00	8.857147e-01	2.983400e+15	8.414748e+14	7.768468e+13	1.880046e+04	6.424592e+03	4.462804e+03	0	1.736816e-03
9.000000e+07	2.904836e+14	0.000000e+00	8.857147e-01	2.974128e+15	1.030647e+15	7.726097e+13	1.875416e+04	6.660580e+03	4.626731e+03	0	1.734895e-03
1.000000e+08	2.888641e+14	0.000000e+00	8.857147e-01	2.959791e+15	1.226815e+15	7.684040e+13	1.870800e+04	6.874043e+03	4.775012e+03	0	1.731665e-03
1.100000e+08	2.867268e+14	0.000000e+00	8.857147e-01	2.941445e+15	1.422972e+15	7.642295e+13	1.866206e+04	7.064033e+03	4.906988e+03	0	1.727383e-03
1.200000e+08	2.842017e+14	0.000000e+00	8.857147e-01	2.920103e+15	1.612581e+15	7.600860e+13	1.861640e+04	7.230477e+03	5.022607e+03	0	1.722298e-03
1.300000e+08	2.814047e+14	0.000000e+00	8.857147e-01	2.896664e+15	1.790218e+15	7.559732e+13	1.857107e+04	7.374083e+03	5.122362e+03	0	1.716629e-03
1.400000e+08	2.784325e+14	0.000000e+00	8.857147e-01	2.871879e+15	1.951933e+15	7.518908e+13	1.852611e+04	7.496179e+03	5.207175e+03	0	1.710564e-03
1.500000e+08	2.753611e+14	0.000000e+00	8.857147e-01	2.846340e+15	2.095338e+15	7.478386e+13	1.848153e+04	7.598531e+03	5.278273e+03	0	1.704251e-03
1.600000e+08	2.722471e+14	0.000000e+00	8.857147e-01	2.820486e+15	2.219459e+15	7.438163e+13	1.843735e+04	7.683152e+03	5.337055e+03	0	1.697802e-03
1.700000e+08	2.691306e+14	0.000000e+00	8.857147e-01	2.794628e+15	2.324473e+15	7.398237e+13	1.839357e+04	7.752148e+03	5.384982e+03	0	1.691299e-03
1.800000e+08	2.660381e+14	0.000000e+00	8.857147e-01	2.768972e+15	2.411385e+15	7.358605e+13	1.835019e+04	7.807589e+03	5.423494e+03	0	1.684796e-03
1.900000e+08	2.629863e+14	0.000000e+00	8.857147e-01	2.743646e+15	2.481723e+15	7.319265e+13	1.830720e+04	7.851426e+03	5.453945e+03	0	1.678329e-03
2.000000e+08	2.599845e+14	0.000000e+00	8.857147e-01	2.718723e+15	2.537291e+15	7.280215e+13	1.826461e+04	7.885436e+03	5.477570e+03	0	1.671919e-03
2.100000e+08	2.570371e+14	0.000000e+00	8.857147e-01	2.694237e+15	2.579971e+15	7.241451e+13	1.822241e+04	7.911200e+03	5.495467e+03	0	1.665577e-03
2.200000e+08	2.541455e+14	0.000000e+00	8.857147e-01	2.670198e+15	2.611594e+15	7.202973e+13	1.818058e+04	7.930095e+03	5.508592e+03	0	1.659307e-03
2.300000e+08	2.513089e+14	0.000000e+00	8.857147e-01	2.646601e+15	2.633861e+15	7.164777e+13	1.813913e+04	7.943302e+03	5.517767e+03	0	1.653111e-03
2.400000e+08	2.485257e+14	0.000000e+00	8.857147e-01	2.623431e+15	2.648297e+15	7.126861e+13	1.809804e+04	7.951823e+03	5.523685e+03	0	1.646985e-03
2.500000e+08	2.457936e+14	0.000000e+00	8.857147e-01	2.600672e+15	2.656242e+15	7.089222e+13	1.805731e+04	7.956498e+03	5.526933e+03	0	1.640928e-03
2.600000e+08	2.431101e+14	0.000000e+00	8.857147e-01	2.578304e+15	2.658846e+15	7.051859e+13	1.801693e+04	7.958028e+03	5.527996e+03	0	1.634934e-03
2.700000e+08	2.404728e+14	0.000000e+00	8.857147e-01	2.556307e+15	2.657088e+15	7.014770e+13	1.797690e+04	7.956995e+03	5.527278e+03	0	1.629001e-03
2.800000e+08	2.378795e+14	0.000000e+00	8.857147e-01	2.534664e+15	2.651786e+15	6.977951e+13	1.793721e+04	7.953877e+03	5.525112e+03	0	1.623124e-03
2.900000e+08	2.353279e+14	0.000000e+00	8.857147e-01	2.513359e+15	2.643623e+15	6.941401e+13	1.789785e+04	7.949068e+03	5.521771e+03	0	1.617300e-03
3.000000e+08	2.328164e+14	0.000000e+00	8.857147e-01	2.492376e+15	2.633164e+15	6.905117e+13	1.785883e+04	7.942891e+03	5.517481e+03	0	1.611525e-03
3.100000e+08	2.303430e+14	0.000000e+00	8.857147e-01	2.471702e+15	2.620875e+15	6.869097e+13	1.782013e+04	7.935610e+03	5.512423e+03	0	1.605798e-03
3.200000e+08	2.279065e+14	0.000000e+00	8.857147e-01	2.451326e+15	2.607136e+15	6.833340e+13	1.778175e+04	7.927442e+03	5.506749e+03	0	1.600116e-03
3.300000e+08	2.255053e+14	0.000000e+00	8.857147e-01	2.431236e+15	2.592259e+15	6.797843e+13	1.774368e+04	7.918562e+03	5.500581e+03	0	1.594477e-03
3.400000e+08	2.231384e+14	0.000000e+00	8.857147e-01	2.411424e+15	2.576499e+15	6.762603e+13	1.770593e+04	7.909115e+03	5.494019e+03	0	1.588879e-03
3.500000e+08	2.208046e+14	0.000000e+00	8.857147e-01	2.391882e+15	2.560059e+15	6.727619e+13	1.766848e+04	7.899218e+03	5.487144e+03	0	1.583320e-03
3.600000e+08	2.185031e+14	0.000000e+00	8.857147e-01	2.372600e+15	2.543110e+15	6.692889e+13	1.763134e+04	7.888967e+03	5.480023e+03	0	1.577800e-03
3.700000e+08	2.162328e+14	0.000000e+00	8.857147e-01	2.353573e+15	2.525789e+15	6.658410e+13	1.759449e+04	7.878440e+03	5.472710e+03	0	1.572316e-03
3.800000e+08	2.139931e+14	0.000000e+00	8.857147e-01	2.334794e+15	2.508205e+15	6.624181e+13	1.755794e+04	7.867700e+03	5.465250e+03	0	1.566869e-03
3.900000e+08	2.117833e+14	0.000000e+00	8.857147e-01	2.316258e+15	2.490446e+15	6.590199e+13	1.752168e+04	7.856800e+03	5.457678e+03	0	1.561456e-03
4.000000e+08	2.096025e+14	0.000000e+00	8.857147e-01	2.297959e+15	2.472586e+15	6.556463e+13	1.748571e+04	7.845781e+03	5.450024e+03	0	1.556078e-03
4.100000e+08	2.074503e+14	0.000000e+00	8.857147e-01	2.279892e+15	2.454682e+15	6.522970e+13	1.745002e+04	7.834679e+03	5.442312e+03	0	1.550734e-03
4.200000e+08	2.053259e+14	0.000000e+00	8.857147e-01	2.262052e+15	2.436782e+15	6.489718e+13	1.741461e+04	7.823521e+03	5.434561e+03	0	1.545423e-03
4.300000e+08	2.032290e+14	0.000000e+00	8.857147e-01	2.244435e+15	2.418923e+15	6.456706e+13	1.737948e+04	7.812331e+03	5.426788e+03	0	1.540144e-03
4.400000e+08	2.011588e+14	0.000000e+00	8.857147e-01	2.227036e+15	2.401136e+15	6.423931e+13	1.734462e+04	7.801126e+03	5.419005e+03	0	1.534896e-03
4.500000e+08	1.991150e+14	0.000000e+00	8.857147e-01	2.209852e+15	2.383444e+15	6.391392e+13	1.731003e+04	7.789923e+03	5.411223e+03	0	1.529680e-03
4.600000e+08	1.970970e+14	0.000000e+00	8.857147e-01	2.192879e+15	2.365866e+15	6.359087e+13	1.727571e+04	7.778734e+03	5.403450e+03	0	1.524495e-03
4.700000e+08	1.951043e+14	0.000000e+00	8.857147e-01	2.176112e+15	2.348419e+15	6.327013e+13	1.724165e+04	7.767568e+03	5.395694e+03	0	1.519340e-03
4.800000e+08	1.931366e+14	0.000000e+00	8.857147e-01	2.159549e+15	2.331112e+15	6.295169e+13	1.720784e+04	7.756434e+03	5.387960e+03	0	1.514215e-03
4.900000e+08	1.911934e+14	0.000000e+00	8.857147e-01	2.143185e+15	2.313955e+15	6.263553e+13	1.717430e+04	7.745339e+03	5.380253e+03	0	1.509119e-03
5.000000e+08	1.892742e+14	0.000000e+00	8.857147e-01	2.127018e+15	2.296957e+15	6.232163e+13	1.714101e+04	7.734288e+03	5.372576e+03	0	1.504053e-03
5.100000e+08	1.873787e+14	0.000000e+00	8.857147e-01	2.111044e+15	2.280121e+15	6.200997e+13	1.710797e+04	7.723285e+03	5.364933e+03	0	1.499015e-03
5.200000e+08	1.855064e+14	0.000000e+00	8.857147e-01	2.095260e+15	2.263452e+15	6.170054e+13	1.707518e+04	7.712333e+03	5.357325e+03	0	1.494006e-03
5.300000e+08	1.836570e+14	0.000000e+00	8.857147e-01	2.079663e+15	2.246952e+15	6.139331e+13	1.704263e+04	7.701436e+03	5.349756e+03	0	1.489024e-03
5.400000e+08	1.818301e+14	0.000000e+00	8.857147e-01	2.064250e+15	2.230621e+15	6.108827e+13	1.701032e+04	7.690595e+03	5.342225e+03	0	1.484071e-03
5.500000e+08	1.800253e+14	0.000000e+00	8.857147e-01	2.049017e+15	2.214464e+15	6.078540e+13	1.697826e+04	7.679813e+03	5.334735e+03	0	1.479144e-03
5.600000e+08	1.782423e+14	0.000000e+00	8.857147e-01	2.033962e+15	2.198478e+15	6.048469e+13	1.694642e+04	7.669089e+03	5.327286e+03	0	1.474245e-03
5.700000e+08	1.764807e+14	0.000000e+00	8.857147e-01	2.019083e+15	2.182663e+15	6.018611e+13	1.691483e+04	7.658426e+03	5.319879e+03	0	1.469372e-03
5.800000e+08	1.747402e+14	0.000000e+00	8.857147e-01	2.004375e+15	2.167020e+15	5.988965e+13	1.688346e+04	7.647823e+03	5.312514e+03	0	1.464525e-03
5.900000e+08	1.730204e+14	0.000000e+00	8.857147e-01	1.989837e+15	2.151546e+15	5.959529e+13	1.685232e+04	7.637282e+03	5.305192e+03	0	1.459705e-03
6.000000e+08	1.713210e+14	0.000000e+00	8.857147e-01	1.975467e+15	2.136241e+15	5.930301e+13	1.682141e+04	7.626803e+03	5.297912e+03	0	1.454910e-03
6.100000e+08	1.696417e+14	0.000000e+00	8.857147e-01	1.961260e+15	2.121103e+15	5.901281e+13	1.679071e+04	7.616385e+03	5.290676e+03	0	1.450141e-03
6.200000e+08	1.679822e+14	0.000000e+00	8.857147e-01	1.947216e+15	2.106131e+15	5.872465e+13	1.676024e+04	7.606029e+03	5.283482e+03	0	1.445397e-03
6.300000e+08	1.663421e+14	0.000000e+00	8.857147e-01	1.933330e+15	2.091324e+15	5.843852e+13	1.672999e+04	7.595735e+03	5.276331e+03	0	1.440677e-03
6.400000e+08	1.647212e+14	0.000000e+00	8.857147e-01	1.919602e+15	2.076677e+15	5.815442e+13	1.669995e+04	7.585502e+03	5.269222e+03	0	1.435982e-03
6.500000e+08	1.631191e+14	0.000000e+00	8.857147e-01	1.906028e+15	2.062192e+15	5.787232e+13	1.667013e+04	7.575330e+03	5.262157e+03	0	1.431312e-03
6.600000e+08	1.615356e+14	0.000000e+00	8.857147e-01	1.892606e+15	2.047866e+15	5.759220e+13	1.664051e+04	7.565219e+03	5.255133e+03	0	1.426665e-03
6.700000e+08	1.599704e+14	0.000000e+00	8.857147e-01	1.879334e+15	2.033695e+15	5.731405e+13	1.661111e+04	7.555168e+03	5.248152e+03	0	1.422042e-03
6.800000e+08	1.584232e+14	0.000000e+00	8.857147e-01	1.866210e+15	2.019678e+15	5.703785e+13	1.658190e+04	7.545178e+03	5.241212e+03	0	1.417443e-03
6.900000e+08	1.568938e+14	0.000000e+00	8.857147e-01	1.853231e+15	2.005815e+15	5.676359e+13	1.655291e+04	7.535247e+03	5.234313e+03	0	1.412867e-03
7.000000e+08	1.553818e+14	0.000000e+00	8.857147e-01	1.840395e+15	1.992101e+15	5.649126e+13	1.652411e+04	7.525375e+03	5.227456e+03	0	1.408314e-03
7.100000e+08	1.538870e+14	0.000000e+00	8.857147e-01	1.827701e+15	1.978536e+15	5.622083e+13	1.649551e+04	7.515563e+03	5.220640e+03	0	1.403783e-03
7.200000e+08	1.524091e+14	0.000000e+00	8.857147e-01	1.815145e+15	1.965116e+15	5.595229e+13	1.646711e+04	7.505808e+03	5.213864e+03	0	1.399275e-03
7.300000e+08	1.509479e+14	0.000000e+00	8.857147e-01	1.802726e+15	1.951841e+15	5.568563e+13	1.643891e+04	7.496112e+03	5.207128e+03	0	1.394789e-03
7.400000e+08	1.495032e+14	0.000000e+00	8.857147e-01	1.790442e+15	1.938709e+15	5.542083e+13	1.641089e+04	7.486472e+03	5.200432e+03	0	1.390324e-03
7.500000e+08	1.480746e+14	0.000000e+00	8.857147e-01	1.778291e+15	1.925716e+15	5.515787e+13	1.638307e+04	7.476890e+03	5.193776e+03	0	1.385882e-03
7.600000e+08	1.466620e+14	0.000000e+00	8.857147e-01	1.766271e+15	1.912862e+15	5.489675e+13	1.635544e+04	7.467364e+03	5.187159e+03	0	1.381461e-03
7.700000e+08	1.452651e+14	0.000000e+00	8.857147e-01	1.754380e+15	1.900145e+15	5.463744e+13	1.632799e+04	7.457894e+03	5.180581e+03	0	1.377061e-03
7.800000e+08	1.438837e+14	0.000000e+00	8.857147e-01	1.742616e+15	1.887561e+15	5.437994e+13	1.630073e+04	7.448479e+03	5.174041e+03	0	1.372682e-03
7.900000e+08	1.425176e+14	0.000000e+00	8.857147e-01	1.730978e+15	1.875110e+15	5.412423e+13	1.627364e+04	7.439119e+03	5.167539e+03	0	1.368324e-03
8.000000e+08	1.411665e+14	0.000000e+00	8.857147e-01	1.719463e+15	1.862791e+15	5.387028e+13	1.624674e+04	7.429814e+03	5.161075e+03	0	1.363986e-03
8.100000e+08	1.398302e+14	0.000000e+00	8.857147e-01	1.708070e+15	1.850600e+15	5.361810e+13	1.622002e+04	7.420562e+03	5.154648e+03	0	1.359668e-03
8.200000e+08	1.385085e+14	0.000000e+00	8.857147e-01	1.696797e+15	1.838536e+15	5.336767e+13	1.619348e+04	7.411363e+03	5.148259e+03	0	1.355371e-03
8.300000e+08	1.372012e+14	0.000000e+00	8.857147e-01	1.685642e+15	1.826597e+15	5.311896e+13	1.616711e+04	7.402218e+03	5.141906e+03	0	1.351093e-03
8.400000e+08	1.359080e+14	0.000000e+00	8.857147e-01	1.674604e+15	1.814782e+15	5.287197e+13	1.614091e+04	7.393125e+03	5.135589e+03	0	1.346835e-03
8.500000e+08	1.346289e+14	0.000000e+00	8.857147e-01	1.663681e+15	1.803089e+15	5.262669e+13	1.611488e+04	7.384084e+03	5.129309e+03	0	1.342596e-03
8.600000e+08	1.333635e+14	0.000000e+00	8.857147e-01	1.652872e+15	1.791517e+15	5.238310e+13	1.608902e+04	7.375094e+03	5.123064e+03	0	1.338377e-03
8.700000e+08	1.321118e+14	0.000000e+00	8.857147e-01	1.642174e+15	1.780062e+15	5.214118e+13	1.606334e+04	7.366156e+03	5.116855e+03	0	1.334176e-03
8.800000e+08	1.308734e+14	0.000000e+00	8.857147e-01	1.631587e+15	1.768725e+15	5.190093e+13	1.603781e+04	7.357267e+03	5.110681e+03	0	1.329994e-03
8.900000e+08	1.296482e+14	0.000000e+00	8.857147e-01	1.621108e+15	1.757503e+15	5.166233e+13	1.601245e+04	7.348429e+03	5.104542e+03	0	1.325831e-03
9.000000e+08	1.284360e+14	0.000000e+00	8.857147e-01	1.610736e+15	1.746395e+15	5.142537e+13	1.598726e+04	7.339641e+03	5.098437e+03	0	1.321686e-03
9.100000e+08	1.272367e+14	0.000000e+00	8.857147e-01	1.600470e+15	1.735398e+15	5.119003e+13	1.596222e+04	7.330901e+03	5.092366e+03	0	1.317559e-03
9.200000e+08	1.260500e+14	0.000000e+00	8.857147e-01	1.590309e+15	1.724512e+15	5.095630e+13	1.593734e+04	7.322211e+03	5.086329e+03	0	1.313450e-03
9.300000e+08	1.248758e+14	0.000000e+00	8.857147e-01	1.580250e+15	1.713736e+15	5.072417e+13	1.591263e+04	7.313568e+03	5.080326e+03	0	1.309359e-03
9.400000e+08	1.237139e+14	0.000000e+00	8.857147e-01	1.570293e+15	1.703067e+15	5.049363e+13	1.588806e+04	7.304974e+03	5.074355e+03	0	1.305285e-03
9.500000e+08	1.225641e+14	0.000000e+00	8.857147e-01	1.560436e+15	1.692505e+15	5.026466e+13	1.586365e+04	7.296426e+03	5.068418e+03	0	1.301229e-03
9.600000e+08	1.214263e+14	0.000000e+00	8.857147e-01	1.550677e+15	1.682047e+15	5.003726e+13	1.583940e+04	7.287926e+03	5.062513e+03	0	1.297190e-03
9.700000e+08	1.203002e+14	0.000000e+00	8.857147e-01	1.541016e+15	1.671692e+15	4.981140e+13	1.581529e+04	7.279472e+03	5.056641e+03	0	1.293168e-03
9.800000e+08	1.191859e+14	0.000000e+00	8.857147e-01	1.531450e+15	1.661440e+15	4.958708e+13	1.579134e+04	7.271065e+03	5.050801e+03	0	1.289162e-03
9.900000e+08	1.180830e+14	0.000000e+00	8.857147e-01	1.521980e+15	1.651288e+15	4.936428e+13	1.576753e+04	7.262703e+03	5.044992e+03	0	1.285173e-03
1.000000e+09	1.169914e+14	0.000000e+00	8.857147e-01	1.512603e+15	1.641235e+15	4.914300e+13	1.574388e+04	7.254386e+03	5.039215e+03	0	1.281201e-03
1.010000e+09	1.159110e+14	0.000000e+00	8.857147e-01	1.503318e+15	1.631281e+15	4.892321e+13	1.572036e+04	7.246114e+03	5.033469e+03	0	1.277245e-03
1.020000e+09	1.148416e+14	0.000000e+00	8.857147e-01	1.494124e+15	1.621423e+15	4.870492e+13	1.569699e+04	7.237887e+03	5.027754e+03	0	1.273305e-03
1.030000e+09	1.137830e+14	0.000000e+00	8.857147e-01	1.485021e+15	1.611660e+15	4.848810e+13	1.567377e+04	7.229704e+03	5.022070e+03	0	1.269381e-03
1.040000e+09	1.127352e+14	0.000000e+00	8.857147e-01	1.476005e+15	1.601992e+15	4.827275e+13	1.565068e+04	7.221565e+03	5.016416e+03	0	1.265472e-03
1.050000e+09	1.116980e+14	0.000000e+00	8.857147e-01	1.467077e+15	1.592416e+15	4.805885e+13	1.562774e+04	7.213469e+03	5.010792e+03	0	1.261579e-03
1.060000e+09	1.106712e+14	0.000000e+00	8.857147e-01	1.458236e+15	1.582933e+15	4.784640e+13	1.560493e+04	7.205416e+03	5.005198e+03	0	1.257701e-03
1.070000e+09	1.096547e+14	0.000000e+00	8.857147e-01	1.449479e+15	1.573540e+15	4.763537e+13	1.558226e+04	7.197405e+03	4.999634e+03	0	1.253839e-03
1.080000e+09	1.086484e+14	0.000000e+00	8.857147e-01	1.440807e+15	1.564236e+15	4.742577e+13	1.555972e+04	7.189437e+03	4.994099e+03	0	1.249992e-03
1.090000e+09	1.076521e+14	0.000000e+00	8.857147e-01	1.432217e+15	1.555020e+15	4.721757e+13	1.553733e+04	7.181511e+03	4.988593e+03	0	1.246159e-03
1.100000e+09	1.066657e+14	0.000000e+00	8.857147e-01	1.423710e+15	1.545892e+15	4.701078e+13	1.551506e+04	7.173626e+03	4.983115e+03	0	1.242341e-03
1.110000e+09	1.056891e+14	0.000000e+00	8.857147e-01	1.415283e+15	1.536849e+15	4.680537e+13	1.549292e+04	7.165782e+03	4.977667e+03	0	1.238538e-03
1.120000e+09	1.047220e+14	0.000000e+00	8.857147e-01	1.406936e+15	1.527891e+15	4.660133e+13	1.547092e+04	7.157979e+03	4.972246e+03	0	1.234749e-03
1.130000e+09	1.037646e+14	0.000000e+00	8.857147e-01	1.398668e+15	1.519017e+15	4.639867e+13	1.544905e+04	7.150216e+03	4.966854e+03	0	1.230974e-03
1.140000e+09	1.028164e+14	0.000000e+00	8.857147e-01	1.390477e+15	1.510226e+15	4.619735e+13	1.542730e+04	7.142494e+03	4.961490e+03	0	1.227214e-03
1.150000e+09	1.018776e+14	0.000000e+00	8.857147e-01	1.382363e+15	1.501516e+15	4.599738e+13	1.540568e+04	7.134811e+03	4.956153e+03	0	1.223467e-03
1.160000e+09	1.009479e+14	0.000000e+00	8.857147e-01	1.374325e+15	1.492888e+15	4.579875e+13	1.538419e+04	7.127168e+03	4.950844e+03	0	1.219734e-03
1.170000e+09	1.000272e+14	0.000000e+00	8.857147e-01	1.366362e+15	1.484338e+15	4.560143e+13	1.536282e+04	7.119563e+03	4.945561e+03	0	1.216015e-03
1.180000e+09	9.911550e+13	0.000000e+00	8.857147e-01	1.358473e+15	1.475867e+15	4.540544e+13	1.534158e+04	7.111998e+03	4.940306e+03	0	1.212309e-03
1.190000e+09	9.821254e+13	0.000000e+00	8.857147e-01	1.350657e+15	1.467474e+15	4.521074e+13	1.532046e+04	7.104471e+03	4.935077e+03	0	1.208616e-03
1.200000e+09	9.731827e+13	0.000000e+00	8.857147e-01	1.342913e+15	1.459158e+15	4.501733e+13	1.529946e+04	7.096982e+03	4.929875e+03	0	1.204936e-03
1.210000e+09	9.643258e+13	0.000000e+00	8.857147e-01	1.335240e+15	1.450917e+15	4.482521e+13	1.527858e+04	7.089531e+03	4.924699e+03	0	1.201270e-03
1.220000e+09	9.555535e+13	0.000000e+00	8.857147e-01	1.327637e+15	1.442751e+15	4.463436e+13	1.525782e+04	7.082117e+03	4.919550e+03	0	1.197616e-03
1.230000e+09	9.468648e+13	0.000000e+00	8.857147e-01	1.320103e+15	1.434660e+15	4.444478e+13	1.523717e+04	7.074741e+03	4.914426e+03	0	1.193975e-03
1.240000e+09	9.382587e+13	0.000000e+00	8.857147e-01	1.312638e+15	1.426641e+15	4.425645e+13	1.521665e+04	7.067401e+03	4.909327e+03	0	1.190347e-03
1.250000e+09	9.297341e+13	0.000000e+00	8.857147e-01	1.305241e+15	1.418694e+15	4.406936e+13	1.519624e+04	7.060098e+03	4.904254e+03	0	1.186731e-03
1.260000e+09	9.212899e+13	0.000000e+00	8.857147e-01	1.297911e+15	1.410818e+15	4.388350e+13	1.517594e+04	7.052831e+03	4.899206e+03	0	1.183127e-03
1.270000e+09	9.129252e+13	0.000000e+00	8.857147e-01	1.290646e+15	1.403013e+15	4.369887e+13	1.515576e+04	7.045600e+03	4.894183e+03	0	1.179536e-03
1.280000e+09	9.046390e+13	0.000000e+00	8.857147e-01	1.283447e+15	1.395276e+15	4.351545e+13	1.513569e+04	7.038405e+03	4.889185e+03	0	1.175956e-03
1.290000e+09	8.964304e+13	0.000000e+00	8.857147e-01	1.276313e+15	1.387609e+15	4.333324e+13	1.511573e+04	7.031245e+03	4.884212e+03	0	1.172388e-03
1.300000e+09	8.882982e+13	0.000000e+00	8.857147e-01	1.269241e+15	1.380010e+15	4.315222e+13	1.509589e+04	7.024120e+03	4.879262e+03	0	1.168832e-03
1.310000e+09	8.802417e+13	0.000000e+00	8.857147e-01	1.262233e+15	1.372477e+15	4.297239e+13	1.507615e+04	7.017030e+03	4.874337e+03	0	1.165288e-03
1.320000e+09	8.722599e+13	0.000000e+00	8.857147e-01	1.255287e+15	1.365010e+15	4.279374e+13	1.505652e+04	7.009975e+03	4.869436e+03	0	1.161755e-03
1.330000e+09	8.643518e+13	0.000000e+00	8.857147e-01	1.248402e+15	1.357610e+15	4.261626e+13	1.503700e+04	7.002954e+03	4.864559e+03	0	1.158234e-03
1.340000e+09	8.565166e+13	0.000000e+00	8.857147e-01	1.241578e+15	1.350274e+15	4.243994e+13	1.501759e+04	6.995967e+03	4.859706e+03	0	1.154723e-03
1.350000e+09	8.487534e+13	0.000000e+00	8.857147e-01	1.234814e+15	1.343001e+15	4.226476e+13	1.499828e+04	6.989013e+03	4.854875e+03	0	1.151224e-03
1.360000e+09	8.410612e+13	0.000000e+00	8.857147e-01	1.228109e+15	1.335792e+15	4.209073e+13	1.497908e+04	6.982093e+03	4.850068e+03	0	1.147736e-03
