#t		Qconv[W]	Ri[Rp]		R*[Rp]		Qc[W]		Qm[W]		Qr[W]		Tcmb[K]		Tl[K]		Tup[K]		RiFlag		Bs[T]
0.000000e+00	2.458877e+14	0.000000e+00	8.857145e-01	2.794911e+15	3.896367e+13	8.866143e+13	1.976959e+04	4.139018e+03	2.866240e+03	0	1.638048e-03
1.000000e+07	2.526895e+14	0.000000e+00	8.857145e-01	2.844318e+15	6.418436e+13	8.817018e+13	1.973185e+04	4.427413e+03	3.065952e+03	0	1.653015e-03
2.000000e+07	2.588369e+14	0.000000e+00	8.857145e-01	2.888767e+15	1.008075e+14	8.768261e+13	1.969344e+04	4.717664e+03	3.266948e+03	0	1.666313e-03
3.000000e+07	2.642516e+14	0.000000e+00	8.857145e-01	2.927670e+15	1.517007e+14	8.719867e+13	1.965443e+04	5.007958e+03	3.467975e+03	0	1.677852e-03
4.000000e+07	2.688665e+14	0.000000e+00	8.857145e-01	2.960528e+15	2.195764e+14	8.671835e+13	1.961490e+04	5.296139e+03	3.667538e+03	0	1.687563e-03
5.000000e+07	2.726323e+14	0.000000e+00	8.857145e-01	2.986971e+15	3.066325e+14	8.624162e+13	1.957493e+04	5.579743e+03	3.863932e+03	0	1.695405e-03
6.000000e+07	2.755228e+14	0.000000e+00	8.857145e-01	3.006807e+15	4.141633e+14	8.576844e+13	1.953460e+04	5.856092e+03	4.055302e+03	0	1.701376e-03
7.000000e+07	2.775389e+14	0.000000e+00	8.857145e-01	3.020048e+15	5.422166e+14	8.529878e+13	1.949400e+04	6.122415e+03	4.239728e+03	0	1.705516e-03
8.000000e+07	2.787107e+14	0.000000e+00	8.857145e-01	3.026924e+15	6.893758e+14	8.483261e+13	1.945322e+04	6.376011e+03	4.415342e+03	0	1.707912e-03
9.000000e+07	2.790953e+14	0.000000e+00	8.857145e-01	3.027869e+15	8.527378e+14	8.436991e+13	1.941235e+04	6.614425e+03	4.580441e+03	0	1.708698e-03
1.000000e+08	2.787727e+14	0.000000e+00	8.857145e-01	3.023488e+15	1.028115e+15	8.391065e+13	1.937147e+04	6.835606e+03	4.733608e+03	0	1.708039e-03
1.100000e+08	2.778384e+14	0.000000e+00	8.857145e-01	3.014505e+15	1.210440e+15	8.345479e+13	1.933065e+04	7.038044e+03	4.873795e+03	0	1.706129e-03
1.200000e+08	2.763953e+14	0.000000e+00	8.857145e-01	3.001698e+15	1.394288e+15	8.300231e+13	1.928994e+04	7.220839e+03	5.000379e+03	0	1.703170e-03
1.300000e+08	2.745460e+14	0.000000e+00	8.857145e-01	2.985841e+15	1.574421e+15	8.255319e+13	1.924942e+04	7.383716e+03	5.113170e+03	0	1.699363e-03
1.400000e+08	2.723862e+14	0.000000e+00	8.857145e-01	2.967656e+15	1.746250e+15	8.210738e+13	1.920910e+04	7.526984e+03	5.212382e+03	0	1.694895e-03
1.500000e+08	2.700002e+14	0.000000e+00	8.857145e-01	2.947779e+15	1.906138e+15	8.166488e+13	1.916903e+04	7.651446e+03	5.298571e+03	0	1.689931e-03
1.600000e+08	2.674586e+14	0.000000e+00	8.857145e-01	2.926745e+15	2.051549e+15	8.122564e+13	1.912923e+04	7.758283e+03	5.372555e+03	0	1.684612e-03
1.700000e+08	2.648183e+14	0.000000e+00	8.857145e-01	2.904980e+15	2.181029e+15	8.078964e+13	1.908971e+04	7.848935e+03	5.435331e+03	0	1.679050e-03
1.800000e+08	2.621226e+14	0.000000e+00	8.857145e-01	2.882813e+15	2.294075e+15	8.035686e+13	1.905049e+04	7.924981e+03	5.487992e+03	0	1.673334e-03
1.900000e+08	2.594040e+14	0.000000e+00	8.857145e-01	2.860487e+15	2.390952e+15	7.992726e+13	1.901156e+04	7.988045e+03	5.531664e+03	0	1.667529e-03
2.000000e+08	2.566853e+14	0.000000e+00	8.857145e-01	2.838175e+15	2.472484e+15	7.950083e+13	1.897293e+04	8.039721e+03	5.567449e+03	0	1.661683e-03
2.100000e+08	2.539822e+14	0.000000e+00	8.857145e-01	2.815995e+15	2.539858e+15	7.907753e+13	1.893461e+04	8.081513e+03	5.596389e+03	0	1.655829e-03
2.200000e+08	2.513050e+14	0.000000e+00	8.857145e-01	2.794023e+15	2.594460e+15	7.865734e+13	1.889658e+04	8.114807e+03	5.619445e+03	0	1.649990e-03
2.300000e+08	2.486598e+14	0.000000e+00	8.857145e-01	2.772307e+15	2.637751e+15	7.824023e+13	1.885885e+04	8.140850e+03	5.637480e+03	0	1.644181e-03
2.400000e+08	2.460501e+14	0.000000e+00	8.857145e-01	2.750873e+15	2.671169e+15	7.782618e+13	1.882142e+04	8.160747e+03	5.651258e+03	0	1.638409e-03
2.500000e+08	2.434776e+14	0.000000e+00	8.857145e-01	2.729732e+15	2.696077e+15	7.741517e+13	1.878427e+04	8.175461e+03	5.661448e+03	0	1.632679e-03
2.600000e+08	2.409427e+14	0.000000e+00	8.857145e-01	2.708887e+15	2.713719e+15	7.700716e+13	1.874741e+04	8.185825e+03	5.668624e+03	0	1.626993e-03
2.700000e+08	2.384449e+14	0.000000e+00	8.857145e-01	2.688336e+15	2.725212e+15	7.660213e+13	1.871082e+04	8.192550e+03	5.673282e+03	0	1.621351e-03
2.800000e+08	2.359835e+14	0.000000e+00	8.857145e-01	2.668072e+15	2.731536e+15	7.620007e+13	1.867452e+04	8.196242e+03	5.675839e+03	0	1.615753e-03
2.900000e+08	2.335574e+14	0.000000e+00	8.857145e-01	2.648087e+15	2.733544e+15	7.580094e+13	1.863848e+04	8.197413e+03	5.676649e+03	0	1.610197e-03
3.000000e+08	2.311656e+14	0.000000e+00	8.857145e-01	2.628372e+15	2.731964e+15	7.540471e+13	1.860272e+04	8.196492e+03	5.676011e+03	0	1.604681e-03
3.100000e+08	2.288067e+14	0.000000e+00	8.857145e-01	2.608918e+15	2.727421e+15	7.501138e+13	1.856722e+04	8.193839e+03	5.674175e+03	0	1.599205e-03
3.200000e+08	2.264798e+14	0.000000e+00	8.857145e-01	2.589718e+15	2.720435e+15	7.462090e+13	1.853199e+04	8.189757e+03	5.671348e+03	0	1.593765e-03
3.300000e+08	2.241839e+14	0.000000e+00	8.857145e-01	2.570762e+15	2.711453e+15	7.423327e+13	1.849701e+04	8.184496e+03	5.667704e+03	0	1.588361e-03
3.400000e+08	2.219178e+14	0.000000e+00	8.857145e-01	2.552044e+15	2.700844e+15	7.384845e+13	1.846229e+04	8.178265e+03	5.663390e+03	0	1.582991e-03
3.500000e+08	2.196808e+14	0.000000e+00	8.857145e-01	2.533557e+15	2.688914e+15	7.346642e+13	1.842782e+04	8.171239e+03	5.658524e+03	0	1.577654e-03
3.600000e+08	2.174720e+14	0.000000e+00	8.857145e-01	2.515294e+15	2.675924e+15	7.308716e+13	1.839360e+04	8.163563e+03	5.653208e+03	0	1.572349e-03
3.700000e+08	2.152907e+14	0.000000e+00	8.857145e-01	2.497250e+15	2.662084e+15	7.271065e+13	1.835963e+04	8.155355e+03	5.647524e+03	0	1.567074e-03
3.800000e+08	2.131362e+14	0.000000e+00	8.857145e-01	2.479419e+15	2.647573e+15	7.233686e+13	1.832590e+04	8.146716e+03	5.641542e+03	0	1.561829e-03
3.900000e+08	2.110078e+14	0.000000e+00	8.857145e-01	2.461797e+15	2.632535e+15	7.196578e+13	1.829241e+04	8.137729e+03	5.635319e+03	0	1.556613e-03
4.000000e+08	2.089050e+14	0.000000e+00	8.857145e-01	2.444378e+15	2.617095e+15	7.159737e+13	1.825916e+04	8.128462e+03	5.628901e+03	0	1.551425e-03
4.100000e+08	2.068272e+14	0.000000e+00	8.857145e-01	2.427159e+15	2.601349e+15	7.123162e+13	1.822614e+04	8.118972e+03	5.622330e+03	0	1.546264e-03
4.200000e+08	2.047740e+14	0.000000e+00	8.857145e-01	2.410136e+15	2.585383e+15	7.086851e+13	1.819335e+04	8.109307e+03	5.615636e+03	0	1.541130e-03
4.300000e+08	2.027448e+14	0.000000e+00	8.857145e-01	2.393305e+15	2.569261e+15	7.050801e+13	1.816080e+04	8.099505e+03	5.608849e+03	0	1.536023e-03
4.400000e+08	2.007392e+14	0.000000e+00	8.857145e-01	2.376662e+15	2.553043e+15	7.015011e+13	1.812847e+04	8.089599e+03	5.601989e+03	0	1.530941e-03
4.500000e+08	1.987568e+14	0.000000e+00	8.857145e-01	2.360204e+15	2.536771e+15	6.979478e+13	1.809636e+04	8.079616e+03	5.595076e+03	0	1.525885e-03
4.600000e+08	1.967971e+14	0.000000e+00	8.857145e-01	2.343929e+15	2.520487e+15	6.944200e+13	1.806448e+04	8.069579e+03	5.588126e+03	0	1.520853e-03
4.700000e+08	1.948599e+14	0.000000e+00	8.857145e-01	2.327832e+15	2.504219e+15	6.909175e+13	1.803281e+04	8.059507e+03	5.581150e+03	0	1.515846e-03
4.800000e+08	1.929446e+14	0.000000e+00	8.857145e-01	2.311911e+15	2.487994e+15	6.874401e+13	1.800137e+04	8.049413e+03	5.574161e+03	0	1.510864e-03
4.900000e+08	1.910510e+14	0.000000e+00	8.857145e-01	2.296164e+15	2.471832e+15	6.839875e+13	1.797013e+04	8.039312e+03	5.567166e+03	0	1.505905e-03
5.000000e+08	1.891787e+14	0.000000e+00	8.857145e-01	2.280587e+15	2.455748e+15	6.805597e+13	1.793911e+04	8.029214e+03	5.560173e+03	0	1.500969e-03
5.100000e+08	1.873273e+14	0.000000e+00	8.857145e-01	2.265178e+15	2.439759e+15	6.771564e+13	1.790830e+04	8.019128e+03	5.553188e+03	0	1.496057e-03
5.200000e+08	1.854966e+14	0.000000e+00	8.857145e-01	2.249934e+15	2.423875e+15	6.737773e+13	1.787770e+04	8.009061e+03	5.546217e+03	0	1.491167e-03
5.300000e+08	1.836862e+14	0.000000e+00	8.857145e-01	2.234854e+15	2.408103e+15	6.704224e+13	1.784731e+04	7.999019e+03	5.539263e+03	0	1.486300e-03
5.400000e+08	1.818959e+14	0.000000e+00	8.857145e-01	2.219933e+15	2.392451e+15	6.670913e+13	1.781711e+04	7.989007e+03	5.532329e+03	0	1.481456e-03
5.500000e+08	1.801252e+14	0.000000e+00	8.857145e-01	2.205171e+15	2.376925e+15	6.637840e+13	1.778712e+04	7.979028e+03	5.525420e+03	0	1.476633e-03
5.600000e+08	1.783740e+14	0.000000e+00	8.857145e-01	2.190564e+15	2.361528e+15	6.605001e+13	1.775733e+04	7.969087e+03	5.518536e+03	0	1.471832e-03
5.700000e+08	1.766419e+14	0.000000e+00	8.857145e-01	2.176111e+15	2.346265e+15	6.572396e+13	1.772773e+04	7.959187e+03	5.511679e+03	0	1.467053e-03
5.800000e+08	1.749287e+14	0.000000e+00	8.857145e-01	2.161809e+15	2.331137e+15	6.540022e+13	1.769833e+04	7.949328e+03	5.504852e+03	0	1.462294e-03
5.900000e+08	1.732341e+14	0.000000e+00	8.857145e-01	2.147657e+15	2.316145e+15	6.507878e+13	1.766912e+04	7.939513e+03	5.498056e+03	0	1.457557e-03
6.000000e+08	1.715578e+14	0.000000e+00	8.857145e-01	2.133651e+15	2.301293e+15	6.475961e+13	1.764010e+04	7.929744e+03	5.491291e+03	0	1.452840e-03
6.100000e+08	1.698995e+14	0.000000e+00	8.857145e-01	2.119790e+15	2.286579e+15	6.444270e+13	1.761127e+04	7.920022e+03	5.484558e+03	0	1.448144e-03
6.200000e+08	1.682590e+14	0.000000e+00	8.857145e-01	2.106072e+15	2.272002e+15	6.412803e+13	1.758263e+04	7.910346e+03	5.477858e+03	0	1.443468e-03
6.300000e+08	1.666361e+14	0.000000e+00	8.857145e-01	2.092495e+15	2.257565e+15	6.381558e+13	1.755417e+04	7.900719e+03	5.471191e+03	0	1.438812e-03
6.400000e+08	1.650304e+14	0.000000e+00	8.857145e-01	2.079057e+15	2.243266e+15	6.350533e+13	1.752590e+04	7.891141e+03	5.464558e+03	0	1.434176e-03
6.500000e+08	1.634418e+14	0.000000e+00	8.857145e-01	2.065756e+15	2.229104e+15	6.319727e+13	1.749781e+04	7.881611e+03	5.457959e+03	0	1.429559e-03
6.600000e+08	1.618700e+14	0.000000e+00	8.857145e-01	2.052590e+15	2.215079e+15	6.289138e+13	1.746989e+04	7.872131e+03	5.451394e+03	0	1.424962e-03
6.700000e+08	1.603148e+14	0.000000e+00	8.857145e-01	2.039557e+15	2.201189e+15	6.258763e+13	1.744216e+04	7.862700e+03	5.444863e+03	0	1.420383e-03
6.800000e+08	1.587759e+14	0.000000e+00	8.857145e-01	2.026655e+15	2.187435e+15	6.228602e+13	1.741460e+04	7.853318e+03	5.438366e+03	0	1.415824e-03
6.900000e+08	1.572531e+14	0.000000e+00	8.857145e-01	2.013883e+15	2.173813e+15	6.198653e+13	1.738721e+04	7.843986e+03	5.431903e+03	0	1.411283e-03
7.000000e+08	1.557462e+14	0.000000e+00	8.857145e-01	2.001240e+15	2.160324e+15	6.168914e+13	1.736000e+04	7.834702e+03	5.425475e+03	0	1.406761e-03
7.100000e+08	1.542550e+14	0.000000e+00	8.857145e-01	1.988722e+15	2.146965e+15	6.139382e+13	1.733295e+04	7.825468e+03	5.419080e+03	0	1.402257e-03
7.200000e+08	1.527793e+14	0.000000e+00	8.857145e-01	1.976328e+15	2.133736e+15	6.110058e+13	1.730608e+04	7.816282e+03	5.412719e+03	0	1.397771e-03
7.300000e+08	1.513188e+14	0.000000e+00	8.857145e-01	1.964058e+15	2.120634e+15	6.080938e+13	1.727937e+04	7.807145e+03	5.406392e+03	0	1.393302e-03
7.400000e+08	1.498733e+14	0.000000e+00	8.857145e-01	1.951908e+15	2.107660e+15	6.052021e+13	1.725283e+04	7.798056e+03	5.400098e+03	0	1.388852e-03
7.500000e+08	1.484427e+14	0.000000e+00	8.857145e-01	1.939878e+15	2.094810e+15	6.023307e+13	1.722645e+04	7.789016e+03	5.393837e+03	0	1.384418e-03
7.600000e+08	1.470267e+14	0.000000e+00	8.857145e-01	1.927966e+15	2.082085e+15	5.994792e+13	1.720024e+04	7.780023e+03	5.387610e+03	0	1.380002e-03
7.700000e+08	1.456251e+14	0.000000e+00	8.857145e-01	1.916171e+15	2.069482e+15	5.966475e+13	1.717418e+04	7.771078e+03	5.381415e+03	0	1.375603e-03
7.800000e+08	1.442378e+14	0.000000e+00	8.857145e-01	1.904490e+15	2.056998e+15	5.938356e+13	1.714829e+04	7.762180e+03	5.375253e+03	0	1.371221e-03
7.900000e+08	1.428645e+14	0.000000e+00	8.857145e-01	1.892922e+15	2.044635e+15	5.910431e+13	1.712255e+04	7.753328e+03	5.369124e+03	0	1.366855e-03
8.000000e+08	1.415051e+14	0.000000e+00	8.857145e-01	1.881466e+15	2.032390e+15	5.882700e+13	1.709696e+04	7.744523e+03	5.363027e+03	0	1.362506e-03
8.100000e+08	1.401594e+14	0.000000e+00	8.857145e-01	1.870121e+15	2.020261e+15	5.855162e+13	1.707154e+04	7.735765e+03	5.356961e+03	0	1.358173e-03
8.200000e+08	1.388272e+14	0.000000e+00	8.857145e-01	1.858885e+15	2.008247e+15	5.827814e+13	1.704626e+04	7.727052e+03	5.350928e+03	0	1.353856e-03
8.300000e+08	1.375083e+14	0.000000e+00	8.857145e-01	1.847756e+15	1.996346e+15	5.800655e+13	1.702114e+04	7.718384e+03	5.344925e+03	0	1.349555e-03
8.400000e+08	1.362025e+14	0.000000e+00	8.857145e-01	1.836733e+15	1.984558e+15	5.773684e+13	1.699617e+04	7.709762e+03	5.338955e+03	0	1.345270e-03
8.500000e+08	1.349097e+14	0.000000e+00	8.857145e-01	1.825815e+15	1.972881e+15	5.746898e+13	1.697134e+04	7.701184e+03	5.333015e+03	0	1.341000e-03
8.600000e+08	1.336297e+14	0.000000e+00	8.857145e-01	1.815000e+15	1.961313e+15	5.720298e+13	1.694666e+04	7.692651e+03	5.327105e+03	0	1.336746e-03
8.700000e+08	1.323624e+14	0.000000e+00	8.857145e-01	1.804288e+15	1.949852e+15	5.693880e+13	1.692213e+04	7.684162e+03	5.321227e+03	0	1.332506e-03
8.800000e+08	1.311075e+14	0.000000e+00	8.857145e-01	1.793676e+15	1.938500e+15	5.667645e+13	1.689775e+04	7.675716e+03	5.315378e+03	0	1.328282e-03
8.900000e+08	1.298649e+14	0.000000e+00	8.857145e-01	1.783163e+15	1.927252e+15	5.641589e+13	1.687350e+04	7.667314e+03	5.309560e+03	0	1.324072e-03
9.000000e+08	1.286345e+14	0.000000e+00	8.857145e-01	1.772749e+15	1.916108e+15	5.615713e+13	1.684940e+04	7.658955e+03	5.303771e+03	0	1.319877e-03
9.100000e+08	1.274160e+14	0.000000e+00	8.857145e-01	1.762432e+15	1.905067e+15	5.590013e+13	1.682544e+04	7.650638e+03	5.298012e+03	0	1.315697e-03
9.200000e+08	1.262094e+14	0.000000e+00	8.857145e-01	1.752211e+15	1.894128e+15	5.564490e+13	1.680162e+04	7.642364e+03	5.292282e+03	0	1.311530e-03
9.300000e+08	1.250145e+14	0.000000e+00	8.857145e-01	1.742084e+15	1.883288e+15	5.539141e+13	1.677793e+04	7.634131e+03	5.286581e+03	0	1.307378e-03
9.400000e+08	1.238311e+14	0.000000e+00	8.857145e-01	1.732051e+15	1.872549e+15	5.513966e+13	1.675439e+04	7.625940e+03	5.280909e+03	0	1.303240e-03
9.500000e+08	1.226592e+14	0.000000e+00	8.857145e-01	1.722110e+15	1.861907e+15	5.488962e+13	1.673097e+04	7.617791e+03	5.275265e+03	0	1.299115e-03
9.600000e+08	1.214984e+14	0.000000e+00	8.857145e-01	1.712260e+15	1.851361e+15	5.464129e+13	1.670770e+04	7.609682e+03	5.269650e+03	0	1.295005e-03
9.700000e+08	1.203488e+14	0.000000e+00	8.857145e-01	1.702500e+15	1.840911e+15	5.439465e+13	1.668455e+04	7.601614e+03	5.264063e+03	0	1.290907e-03
9.800000e+08	1.192101e+14	0.000000e+00	8.857145e-01	1.692829e+15	1.830555e+15	5.414969e+13	1.666154e+04	7.593586e+03	5.258504e+03	0	1.286823e-03
9.900000e+08	1.180823e+14	0.000000e+00	8.857145e-01	1.683245e+15	1.820293e+15	5.390639e+13	1.663865e+04	7.585598e+03	5.252972e+03	0	1.282752e-03
1.000000e+09	1.169651e+14	0.000000e+00	8.857145e-01	1.673748e+15	1.810123e+15	5.366475e+13	1.661590e+04	7.577650e+03	5.247468e+03	0	1.278694e-03
1.010000e+09	1.158585e+14	0.000000e+00	8.857145e-01	1.664337e+15	1.800043e+15	5.342474e+13	1.659327e+04	7.569741e+03	5.241991e+03	0	1.274648e-03
1.020000e+09	1.147624e+14	0.000000e+00	8.857145e-01	1.655010e+15	1.790053e+15	5.318636e+13	1.657078e+04	7.561871e+03	5.236541e+03	0	1.270616e-03
1.030000e+09	1.136765e+14	0.000000e+00	8.857145e-01	1.645767e+15	1.780152e+15	5.294960e+13	1.654840e+04	7.554040e+03	5.231118e+03	0	1.266596e-03
1.040000e+09	1.126008e+14	0.000000e+00	8.857145e-01	1.636607e+15	1.770339e+15	5.271443e+13	1.652616e+04	7.546247e+03	5.225721e+03	0	1.262588e-03
1.050000e+09	1.115352e+14	0.000000e+00	8.857145e-01	1.627527e+15	1.760612e+15	5.248085e+13	1.650403e+04	7.538492e+03	5.220351e+03	0	1.258592e-03
1.060000e+09	1.104794e+14	0.000000e+00	8.857145e-01	1.618529e+15	1.750971e+15	5.224885e+13	1.648203e+04	7.530775e+03	5.215007e+03	0	1.254608e-03
1.070000e+09	1.094335e+14	0.000000e+00	8.857145e-01	1.609610e+15	1.741414e+15	5.201841e+13	1.646015e+04	7.523095e+03	5.209689e+03	0	1.250637e-03
1.080000e+09	1.083972e+14	0.000000e+00	8.857145e-01	1.600769e+15	1.731941e+15	5.178952e+13	1.643839e+04	7.515452e+03	5.204396e+03	0	1.246677e-03
1.090000e+09	1.073705e+14	0.000000e+00	8.857145e-01	1.592007e+15	1.722551e+15	5.156216e+13	1.641675e+04	7.507847e+03	5.199130e+03	0	1.242728e-03
1.100000e+09	1.063533e+14	0.000000e+00	8.857145e-01	1.583321e+15	1.713242e+15	5.133634e+13	1.639523e+04	7.500277e+03	5.193888e+03	0	1.238791e-03
1.110000e+09	1.053454e+14	0.000000e+00	8.857145e-01	1.574711e+15	1.704014e+15	5.111203e+13	1.637382e+04	7.492744e+03	5.188671e+03	0	1.234865e-03
1.120000e+09	1.043467e+14	0.000000e+00	8.857145e-01	1.566175e+15	1.694865e+15	5.088922e+13	1.635253e+04	7.485248e+03	5.183480e+03	0	1.230951e-03
1.130000e+09	1.033571e+14	0.000000e+00	8.857145e-01	1.557714e+15	1.685795e+15	5.066791e+13	1.633136e+04	7.477786e+03	5.178313e+03	0	1.227047e-03
1.140000e+09	1.023765e+14	0.000000e+00	8.857145e-01	1.549326e+15	1.676803e+15	5.044807e+13	1.631030e+04	7.470361e+03	5.173171e+03	0	1.223154e-03
1.150000e+09	1.014047e+14	0.000000e+00	8.857145e-01	1.541011e+15	1.667888e+15	5.022970e+13	1.628935e+04	7.462970e+03	5.168053e+03	0	1.219272e-03
1.160000e+09	1.004418e+14	0.000000e+00	8.857145e-01	1.532767e+15	1.659049e+15	5.001279e+13	1.626852e+04	7.455614e+03	5.162959e+03	0	1.215400e-03
1.170000e+09	9.948757e+13	0.000000e+00	8.857145e-01	1.524593e+15	1.650286e+15	4.979732e+13	1.624779e+04	7.448293e+03	5.157889e+03	0	1.211539e-03
1.180000e+09	9.854190e+13	0.000000e+00	8.857145e-01	1.516490e+15	1.641596e+15	4.958329e+13	1.622718e+04	7.441006e+03	5.152843e+03	0	1.207688e-03
1.190000e+09	9.760470e+13	0.000000e+00	8.857145e-01	1.508455e+15	1.632980e+15	4.937067e+13	1.620668e+04	7.433754e+03	5.147821e+03	0	1.203847e-03
1.200000e+09	9.667587e+13	0.000000e+00	8.857145e-01	1.500488e+15	1.624436e+15	4.915948e+13	1.618628e+04	7.426535e+03	5.142822e+03	0	1.200016e-03
1.210000e+09	9.575532e+13	0.000000e+00	8.857145e-01	1.492590e+15	1.615964e+15	4.894968e+13	1.616600e+04	7.419350e+03	5.137846e+03	0	1.196195e-03
1.220000e+09	9.484295e+13	0.000000e+00	8.857145e-01	1.484757e+15	1.607564e+15	4.874127e+13	1.614582e+04	7.412198e+03	5.132893e+03	0	1.192384e-03
1.230000e+09	9.393866e+13	0.000000e+00	8.857145e-01	1.476991e+15	1.599233e+15	4.853424e+13	1.612574e+04	7.405079e+03	5.127964e+03	0	1.188582e-03
1.240000e+09	9.304236e+13	0.000000e+00	8.857145e-01	1.469290e+15	1.590972e+15	4.832858e+13	1.610577e+04	7.397993e+03	5.123056e+03	0	1.184790e-03
1.250000e+09	9.215396e+13	0.000000e+00	8.857145e-01	1.461653e+15	1.582780e+15	4.812427e+13	1.608590e+04	7.390939e+03	5.118172e+03	0	1.181007e-03
1.260000e+09	9.127335e+13	0.000000e+00	8.857145e-01	1.454080e+15	1.574654e+15	4.792131e+13	1.606614e+04	7.383918e+03	5.113310e+03	0	1.177233e-03
1.270000e+09	9.040047e+13	0.000000e+00	8.857145e-01	1.446569e+15	1.566597e+15	4.771969e+13	1.604648e+04	7.376929e+03	5.108470e+03	0	1.173468e-03
1.280000e+09	8.953521e+13	0.000000e+00	8.857145e-01	1.439121e+15	1.558605e+15	4.751940e+13	1.602692e+04	7.369971e+03	5.103652e+03	0	1.169712e-03
1.290000e+09	8.867748e+13	0.000000e+00	8.857145e-01	1.431735e+15	1.550679e+15	4.732042e+13	1.600746e+04	7.363045e+03	5.098856e+03	0	1.165965e-03
1.300000e+09	8.782721e+13	0.000000e+00	8.857145e-01	1.424409e+15	1.542818e+15	4.712275e+13	1.598810e+04	7.356151e+03	5.094081e+03	0	1.162226e-03
1.310000e+09	8.698430e+13	0.000000e+00	8.857145e-01	1.417144e+15	1.535021e+15	4.692638e+13	1.596884e+04	7.349288e+03	5.089329e+03	0	1.158496e-03
1.320000e+09	8.614867e+13	0.000000e+00	8.857145e-01	1.409938e+15	1.527287e+15	4.673129e+13	1.594968e+04	7.342455e+03	5.084597e+03	0	1.154775e-03
1.330000e+09	8.532024e+13	0.000000e+00	8.857145e-01	1.402791e+15	1.519616e+15	4.653747e+13	1.593062e+04	7.335653e+03	5.079887e+03	0	1.151061e-03
1.340000e+09	8.449893e+13	0.000000e+00	8.857145e-01	1.395702e+15	1.512007e+15	4.634493e+13	1.591165e+04	7.328882e+03	5.075198e+03	0	1.147356e-03
1.350000e+09	8.368465e+13	0.000000e+00	8.857145e-01	1.388671e+15	1.504460e+15	4.615363e+13	1.589277e+04	7.322141e+03	5.070530e+03	0	1.143658e-03
1.360000e+09	8.287733e+13	0.000000e+00	8.857145e-01	1.381696e+15	1.496973e+15	4.596359e+13	1.587400e+04	7.315430e+03	5.065882e+03	0	1.139969e-03
