#t		Qconv[W]	Ri[Rp]		R*[Rp]		Qc[W]		Qm[W]		Qr[W]		Tcmb[K]		Tl[K]		Tup[K]		RiFlag		Bs[T]
0.000000e+00	2.317669e+14	0.000000e+00	8.857141e-01	2.910685e+15	3.620911e+13	9.630224e+13	2.050869e+04	4.224451e+03	2.910490e+03	0	1.602888e-03
1.000000e+07	2.391818e+14	0.000000e+00	8.857141e-01	2.963191e+15	5.855108e+13	9.576866e+13	2.047442e+04	4.502555e+03	3.102094e+03	0	1.619803e-03
2.000000e+07	2.460241e+14	0.000000e+00	8.857141e-01	3.011452e+15	9.070770e+13	9.523906e+13	2.043954e+04	4.783000e+03	3.295310e+03	0	1.635104e-03
3.000000e+07	2.522180e+14	0.000000e+00	8.857141e-01	3.054910e+15	1.352038e+14	9.471343e+13	2.040408e+04	5.064348e+03	3.489148e+03	0	1.648712e-03
4.000000e+07	2.576945e+14	0.000000e+00	8.857141e-01	3.093064e+15	1.945491e+14	9.419171e+13	2.036812e+04	5.344870e+03	3.682417e+03	0	1.660559e-03
5.000000e+07	2.623961e+14	0.000000e+00	8.857141e-01	3.125493e+15	2.709773e+14	9.367389e+13	2.033171e+04	5.622564e+03	3.873738e+03	0	1.670598e-03
6.000000e+07	2.662823e+14	0.000000e+00	8.857141e-01	3.151904e+15	3.661440e+14	9.315993e+13	2.029492e+04	5.895205e+03	4.061578e+03	0	1.678805e-03
7.000000e+07	2.693333e+14	0.000000e+00	8.857141e-01	3.172156e+15	4.808240e+14	9.264980e+13	2.025782e+04	6.160423e+03	4.244303e+03	0	1.685192e-03
8.000000e+07	2.715533e+14	0.000000e+00	8.857141e-01	3.186284e+15	6.146660e+14	9.214346e+13	2.022048e+04	6.415815e+03	4.420259e+03	0	1.689810e-03
9.000000e+07	2.729713e+14	0.000000e+00	8.857141e-01	3.194503e+15	7.660599e+14	9.164088e+13	2.018297e+04	6.659071e+03	4.587854e+03	0	1.692746e-03
1.000000e+08	2.736389e+14	0.000000e+00	8.857141e-01	3.197201e+15	9.321637e+14	9.114204e+13	2.014537e+04	6.888113e+03	4.745655e+03	0	1.694125e-03
1.100000e+08	2.736273e+14	0.000000e+00	8.857141e-01	3.194901e+15	1.109097e+15	9.064690e+13	2.010774e+04	7.101216e+03	4.892475e+03	0	1.694101e-03
1.200000e+08	2.730206e+14	0.000000e+00	8.857141e-01	3.188228e+15	1.292283e+15	9.015542e+13	2.007013e+04	7.297105e+03	5.027435e+03	0	1.692848e-03
1.300000e+08	2.719099e+14	0.000000e+00	8.857141e-01	3.177853e+15	1.476870e+15	8.966759e+13	2.003260e+04	7.475010e+03	5.150005e+03	0	1.690549e-03
1.400000e+08	2.703866e+14	0.000000e+00	8.857141e-01	3.164451e+15	1.658168e+15	8.918337e+13	1.999520e+04	7.634675e+03	5.260008e+03	0	1.687386e-03
1.500000e+08	2.685374e+14	0.000000e+00	8.857141e-01	3.148663e+15	1.832015e+15	8.870273e+13	1.995795e+04	7.776325e+03	5.357600e+03	0	1.683530e-03
1.600000e+08	2.664401e+14	0.000000e+00	8.857141e-01	3.131061e+15	1.995039e+15	8.822564e+13	1.992088e+04	7.900602e+03	5.443222e+03	0	1.679136e-03
1.700000e+08	2.641618e+14	0.000000e+00	8.857141e-01	3.112140e+15	2.144791e+15	8.775206e+13	1.988403e+04	8.008474e+03	5.517542e+03	0	1.674336e-03
1.800000e+08	2.617575e+14	0.000000e+00	8.857141e-01	3.092306e+15	2.279743e+15	8.728198e+13	1.984739e+04	8.101143e+03	5.581387e+03	0	1.669241e-03
1.900000e+08	2.592715e+14	0.000000e+00	8.857141e-01	3.071885e+15	2.399213e+15	8.681536e+13	1.981099e+04	8.179952e+03	5.635684e+03	0	1.663940e-03
2.000000e+08	2.567375e+14	0.000000e+00	8.857141e-01	3.051125e+15	2.503223e+15	8.635218e+13	1.977483e+04	8.246305e+03	5.681398e+03	0	1.658501e-03
2.100000e+08	2.541810e+14	0.000000e+00	8.857141e-01	3.030214e+15	2.592330e+15	8.589240e+13	1.973892e+04	8.301598e+03	5.719494e+03	0	1.652978e-03
2.200000e+08	2.516204e+14	0.000000e+00	8.857141e-01	3.009287e+15	2.667469e+15	8.543600e+13	1.970325e+04	8.347178e+03	5.750896e+03	0	1.647409e-03
2.300000e+08	2.490684e+14	0.000000e+00	8.857141e-01	2.988438e+15	2.729806e+15	8.498295e+13	1.966782e+04	8.384300e+03	5.776472e+03	0	1.641820e-03
2.400000e+08	2.465339e+14	0.000000e+00	8.857141e-01	2.967732e+15	2.780621e+15	8.453322e+13	1.963264e+04	8.414116e+03	5.797015e+03	0	1.636232e-03
2.500000e+08	2.440225e+14	0.000000e+00	8.857141e-01	2.947210e+15	2.821223e+15	8.408678e+13	1.959770e+04	8.437661e+03	5.813236e+03	0	1.630657e-03
2.600000e+08	2.415378e+14	0.000000e+00	8.857141e-01	2.926899e+15	2.852879e+15	8.364361e+13	1.956301e+04	8.455851e+03	5.825768e+03	0	1.625104e-03
2.700000e+08	2.390818e+14	0.000000e+00	8.857141e-01	2.906813e+15	2.876780e+15	8.320368e+13	1.952855e+04	8.469490e+03	5.835165e+03	0	1.619577e-03
2.800000e+08	2.366553e+14	0.000000e+00	8.857141e-01	2.886958e+15	2.894018e+15	8.276696e+13	1.949433e+04	8.479276e+03	5.841907e+03	0	1.614079e-03
2.900000e+08	2.342587e+14	0.000000e+00	8.857141e-01	2.867336e+15	2.905569e+15	8.233343e+13	1.946034e+04	8.485811e+03	5.846409e+03	0	1.608612e-03
3.000000e+08	2.318917e+14	0.000000e+00	8.857141e-01	2.847945e+15	2.912297e+15	8.190307e+13	1.942659e+04	8.489608e+03	5.849026e+03	0	1.603176e-03
3.100000e+08	2.295540e+14	0.000000e+00	8.857141e-01	2.828783e+15	2.914958e+15	8.147583e+13	1.939306e+04	8.491108e+03	5.850059e+03	0	1.597770e-03
3.200000e+08	2.272448e+14	0.000000e+00	8.857141e-01	2.809844e+15	2.914202e+15	8.105171e+13	1.935975e+04	8.490683e+03	5.849766e+03	0	1.592395e-03
3.300000e+08	2.249635e+14	0.000000e+00	8.857141e-01	2.791123e+15	2.910593e+15	8.063066e+13	1.932667e+04	8.488647e+03	5.848363e+03	0	1.587048e-03
3.400000e+08	2.227094e+14	0.000000e+00	8.857141e-01	2.772616e+15	2.904606e+15	8.021268e+13	1.929381e+04	8.485267e+03	5.846035e+03	0	1.581730e-03
3.500000e+08	2.204819e+14	0.000000e+00	8.857141e-01	2.754316e+15	2.896650e+15	7.979773e+13	1.926116e+04	8.480766e+03	5.842934e+03	0	1.576439e-03
3.600000e+08	2.182803e+14	0.000000e+00	8.857141e-01	2.736219e+15	2.887066e+15	7.938579e+13	1.922874e+04	8.475334e+03	5.839191e+03	0	1.571174e-03
3.700000e+08	2.161039e+14	0.000000e+00	8.857141e-01	2.718321e+15	2.876144e+15	7.897683e+13	1.919652e+04	8.469128e+03	5.834915e+03	0	1.565934e-03
3.800000e+08	2.139522e+14	0.000000e+00	8.857141e-01	2.700617e+15	2.864129e+15	7.857083e+13	1.916451e+04	8.462281e+03	5.830198e+03	0	1.560720e-03
3.900000e+08	2.118246e+14	0.000000e+00	8.857141e-01	2.683102e+15	2.851225e+15	7.816776e+13	1.913272e+04	8.454904e+03	5.825116e+03	0	1.555529e-03
4.000000e+08	2.097206e+14	0.000000e+00	8.857141e-01	2.665773e+15	2.837602e+15	7.776761e+13	1.910112e+04	8.447091e+03	5.819733e+03	0	1.550362e-03
4.100000e+08	2.076398e+14	0.000000e+00	8.857141e-01	2.648626e+15	2.823405e+15	7.737034e+13	1.906973e+04	8.438920e+03	5.814103e+03	0	1.545217e-03
4.200000e+08	2.055817e+14	0.000000e+00	8.857141e-01	2.631657e+15	2.808754e+15	7.697594e+13	1.903855e+04	8.430456e+03	5.808272e+03	0	1.540095e-03
4.300000e+08	2.035458e+14	0.000000e+00	8.857141e-01	2.614864e+15	2.793748e+15	7.658437e+13	1.900756e+04	8.421755e+03	5.802277e+03	0	1.534994e-03
4.400000e+08	2.015318e+14	0.000000e+00	8.857141e-01	2.598244e+15	2.778471e+15	7.619562e+13	1.897677e+04	8.412862e+03	5.796151e+03	0	1.529915e-03
4.500000e+08	1.995393e+14	0.000000e+00	8.857141e-01	2.581793e+15	2.762992e+15	7.580967e+13	1.894617e+04	8.403817e+03	5.789918e+03	0	1.524856e-03
4.600000e+08	1.975679e+14	0.000000e+00	8.857141e-01	2.565509e+15	2.747370e+15	7.542648e+13	1.891577e+04	8.394650e+03	5.783603e+03	0	1.519818e-03
4.700000e+08	1.956174e+14	0.000000e+00	8.857141e-01	2.549389e+15	2.731652e+15	7.504605e+13	1.888556e+04	8.385391e+03	5.777224e+03	0	1.514800e-03
4.800000e+08	1.936872e+14	0.000000e+00	8.857141e-01	2.533430e+15	2.715879e+15	7.466834e+13	1.885554e+04	8.376060e+03	5.770795e+03	0	1.509801e-03
4.900000e+08	1.917773e+14	0.000000e+00	8.857141e-01	2.517631e+15	2.700086e+15	7.429334e+13	1.882571e+04	8.366678e+03	5.764331e+03	0	1.504822e-03
5.000000e+08	1.898872e+14	0.000000e+00	8.857141e-01	2.501989e+15	2.684297e+15	7.392101e+13	1.879606e+04	8.357259e+03	5.757842e+03	0	1.499862e-03
5.100000e+08	1.880167e+14	0.000000e+00	8.857141e-01	2.486502e+15	2.668536e+15	7.355135e+13	1.876660e+04	8.347818e+03	5.751338e+03	0	1.494921e-03
5.200000e+08	1.861654e+14	0.000000e+00	8.857141e-01	2.471166e+15	2.652823e+15	7.318432e+13	1.873731e+04	8.338366e+03	5.744826e+03	0	1.489998e-03
5.300000e+08	1.843331e+14	0.000000e+00	8.857141e-01	2.455982e+15	2.637173e+15	7.281991e+13	1.870821e+04	8.328912e+03	5.738312e+03	0	1.485094e-03
5.400000e+08	1.825196e+14	0.000000e+00	8.857141e-01	2.440945e+15	2.621599e+15	7.245810e+13	1.867929e+04	8.319464e+03	5.731803e+03	0	1.480207e-03
5.500000e+08	1.807245e+14	0.000000e+00	8.857141e-01	2.426055e+15	2.606111e+15	7.209886e+13	1.865054e+04	8.310028e+03	5.725302e+03	0	1.475339e-03
5.600000e+08	1.789477e+14	0.000000e+00	8.857141e-01	2.411309e+15	2.590719e+15	7.174218e+13	1.862197e+04	8.300610e+03	5.718813e+03	0	1.470488e-03
5.700000e+08	1.771888e+14	0.000000e+00	8.857141e-01	2.396705e+15	2.575426e+15	7.138803e+13	1.859357e+04	8.291214e+03	5.712340e+03	0	1.465654e-03
5.800000e+08	1.754477e+14	0.000000e+00	8.857141e-01	2.382242e+15	2.560242e+15	7.103639e+13	1.856535e+04	8.281845e+03	5.705885e+03	0	1.460838e-03
5.900000e+08	1.737240e+14	0.000000e+00	8.857141e-01	2.367917e+15	2.545168e+15	7.068724e+13	1.853729e+04	8.272505e+03	5.699450e+03	0	1.456038e-03
6.000000e+08	1.720176e+14	0.000000e+00	8.857141e-01	2.353729e+15	2.530210e+15	7.034057e+13	1.850940e+04	8.263197e+03	5.693037e+03	0	1.451255e-03
6.100000e+08	1.703282e+14	0.000000e+00	8.857141e-01	2.339676e+15	2.515368e+15	6.999635e+13	1.848168e+04	8.253924e+03	5.686648e+03	0	1.446488e-03
6.200000e+08	1.686556e+14	0.000000e+00	8.857141e-01	2.325756e+15	2.500648e+15	6.965456e+13	1.845413e+04	8.244686e+03	5.680283e+03	0	1.441738e-03
6.300000e+08	1.669995e+14	0.000000e+00	8.857141e-01	2.311967e+15	2.486049e+15	6.931518e+13	1.842673e+04	8.235486e+03	5.673945e+03	0	1.437004e-03
6.400000e+08	1.653599e+14	0.000000e+00	8.857141e-01	2.298309e+15	2.471569e+15	6.897820e+13	1.839950e+04	8.226324e+03	5.667632e+03	0	1.432285e-03
6.500000e+08	1.637363e+14	0.000000e+00	8.857141e-01	2.284778e+15	2.457214e+15	6.864359e+13	1.837244e+04	8.217202e+03	5.661348e+03	0	1.427582e-03
6.600000e+08	1.621288e+14	0.000000e+00	8.857141e-01	2.271375e+15	2.442981e+15	6.831133e+13	1.834552e+04	8.208119e+03	5.655090e+03	0	1.422895e-03
6.700000e+08	1.605369e+14	0.000000e+00	8.857141e-01	2.258096e+15	2.428871e+15	6.798141e+13	1.831877e+04	8.199078e+03	5.648861e+03	0	1.418222e-03
6.800000e+08	1.589605e+14	0.000000e+00	8.857141e-01	2.244940e+15	2.414883e+15	6.765381e+13	1.829217e+04	8.190078e+03	5.642661e+03	0	1.413565e-03
6.900000e+08	1.573995e+14	0.000000e+00	8.857141e-01	2.231906e+15	2.401016e+15	6.732851e+13	1.826573e+04	8.181120e+03	5.636489e+03	0	1.408923e-03
7.000000e+08	1.558537e+14	0.000000e+00	8.857141e-01	2.218993e+15	2.387272e+15	6.700549e+13	1.823944e+04	8.172203e+03	5.630345e+03	0	1.404295e-03
7.100000e+08	1.543227e+14	0.000000e+00	8.857141e-01	2.206198e+15	2.373648e+15	6.668472e+13	1.821331e+04	8.163329e+03	5.624231e+03	0	1.399682e-03
7.200000e+08	1.528065e+14	0.000000e+00	8.857141e-01	2.193520e+15	2.360145e+15	6.636620e+13	1.818732e+04	8.154496e+03	5.618146e+03	0	1.395083e-03
7.300000e+08	1.513049e+14	0.000000e+00	8.857141e-01	2.180959e+15	2.346760e+15	6.604991e+13	1.816148e+04	8.145706e+03	5.612089e+03	0	1.390498e-03
7.400000e+08	1.498176e+14	0.000000e+00	8.857141e-01	2.168511e+15	2.333493e+15	6.573583e+13	1.813579e+04	8.136957e+03	5.606062e+03	0	1.385927e-03
7.500000e+08	1.483445e+14	0.000000e+00	8.857141e-01	2.156177e+15	2.320343e+15	6.542393e+13	1.811025e+04	8.128250e+03	5.600063e+03	0	1.381370e-03
7.600000e+08	1.468855e+14	0.000000e+00	8.857141e-01	2.143955e+15	2.307310e+15	6.511421e+13	1.808485e+04	8.119585e+03	5.594094e+03	0	1.376826e-03
7.700000e+08	1.454403e+14	0.000000e+00	8.857141e-01	2.131842e+15	2.294390e+15	6.480664e+13	1.805960e+04	8.110962e+03	5.588153e+03	0	1.372295e-03
7.800000e+08	1.440088e+14	0.000000e+00	8.857141e-01	2.119839e+15	2.281584e+15	6.450121e+13	1.803448e+04	8.102380e+03	5.582240e+03	0	1.367778e-03
7.900000e+08	1.425907e+14	0.000000e+00	8.857141e-01	2.107943e+15	2.268892e+15	6.419790e+13	1.800951e+04	8.093840e+03	5.576356e+03	0	1.363274e-03
8.000000e+08	1.411860e+14	0.000000e+00	8.857141e-01	2.096153e+15	2.256311e+15	6.389670e+13	1.798468e+04	8.085340e+03	5.570500e+03	0	1.358783e-03
8.100000e+08	1.397945e+14	0.000000e+00	8.857141e-01	2.084468e+15	2.243840e+15	6.359758e+13	1.795999e+04	8.076882e+03	5.564672e+03	0	1.354304e-03
8.200000e+08	1.384160e+14	0.000000e+00	8.857141e-01	2.072887e+15	2.231477e+15	6.330053e+13	1.793543e+04	8.068464e+03	5.558873e+03	0	1.349837e-03
8.300000e+08	1.370503e+14	0.000000e+00	8.857141e-01	2.061409e+15	2.219223e+15	6.300553e+13	1.791101e+04	8.060086e+03	5.553101e+03	0	1.345383e-03
8.400000e+08	1.356973e+14	0.000000e+00	8.857141e-01	2.050032e+15	2.207075e+15	6.271258e+13	1.788673e+04	8.051748e+03	5.547357e+03	0	1.340941e-03
8.500000e+08	1.343569e+14	0.000000e+00	8.857141e-01	2.038755e+15	2.195034e+15	6.242164e+13	1.786258e+04	8.043451e+03	5.541640e+03	0	1.336511e-03
8.600000e+08	1.330288e+14	0.000000e+00	8.857141e-01	2.027576e+15	2.183096e+15	6.213271e+13	1.783856e+04	8.035192e+03	5.535950e+03	0	1.332093e-03
8.700000e+08	1.317130e+14	0.000000e+00	8.857141e-01	2.016496e+15	2.171261e+15	6.184577e+13	1.781468e+04	8.026974e+03	5.530288e+03	0	1.327687e-03
8.800000e+08	1.304092e+14	0.000000e+00	8.857141e-01	2.005512e+15	2.159528e+15	6.156080e+13	1.779092e+04	8.018794e+03	5.524652e+03	0	1.323291e-03
8.900000e+08	1.291174e+14	0.000000e+00	8.857141e-01	1.994623e+15	2.147897e+15	6.127779e+13	1.776729e+04	8.010653e+03	5.519043e+03	0	1.318908e-03
9.000000e+08	1.278374e+14	0.000000e+00	8.857141e-01	1.983829e+15	2.136364e+15	6.099673e+13	1.774379e+04	8.002550e+03	5.513461e+03	0	1.314535e-03
9.100000e+08	1.265691e+14	0.000000e+00	8.857141e-01	1.973127e+15	2.124930e+15	6.071759e+13	1.772042e+04	7.994486e+03	5.507905e+03	0	1.310173e-03
9.200000e+08	1.253122e+14	0.000000e+00	8.857141e-01	1.962518e+15	2.113594e+15	6.044036e+13	1.769718e+04	7.986459e+03	5.502375e+03	0	1.305822e-03
9.300000e+08	1.240668e+14	0.000000e+00	8.857141e-01	1.952000e+15	2.102355e+15	6.016503e+13	1.767405e+04	7.978470e+03	5.496871e+03	0	1.301481e-03
9.400000e+08	1.228326e+14	0.000000e+00	8.857141e-01	1.941572e+15	2.091211e+15	5.989158e+13	1.765106e+04	7.970519e+03	5.491392e+03	0	1.297151e-03
9.500000e+08	1.216095e+14	0.000000e+00	8.857141e-01	1.931233e+15	2.080161e+15	5.961999e+13	1.762818e+04	7.962605e+03	5.485940e+03	0	1.292831e-03
9.600000e+08	1.203974e+14	0.000000e+00	8.857141e-01	1.920981e+15	2.069204e+15	5.935026e+13	1.760543e+04	7.954727e+03	5.480512e+03	0	1.288522e-03
9.700000e+08	1.191961e+14	0.000000e+00	8.857141e-01	1.910817e+15	2.058339e+15	5.908236e+13	1.758280e+04	7.946886e+03	5.475110e+03	0	1.284222e-03
9.800000e+08	1.180055e+14	0.000000e+00	8.857141e-01	1.900738e+15	2.047565e+15	5.881629e+13	1.756028e+04	7.939082e+03	5.469733e+03	0	1.279932e-03
9.900000e+08	1.168256e+14	0.000000e+00	8.857141e-01	1.890745e+15	2.036882e+15	5.855203e+13	1.753789e+04	7.931313e+03	5.464381e+03	0	1.275652e-03
1.000000e+09	1.156561e+14	0.000000e+00	8.857141e-01	1.880835e+15	2.026288e+15	5.828956e+13	1.751561e+04	7.923580e+03	5.459053e+03	0	1.271381e-03
1.010000e+09	1.144970e+14	0.000000e+00	8.857141e-01	1.871008e+15	2.015781e+15	5.802887e+13	1.749345e+04	7.915883e+03	5.453750e+03	0	1.267119e-03
1.020000e+09	1.133481e+14	0.000000e+00	8.857141e-01	1.861263e+15	2.005361e+15	5.776995e+13	1.747141e+04	7.908221e+03	5.448471e+03	0	1.262867e-03
1.030000e+09	1.122093e+14	0.000000e+00	8.857141e-01	1.851600e+15	1.995028e+15	5.751277e+13	1.744948e+04	7.900593e+03	5.443216e+03	0	1.258623e-03
1.040000e+09	1.110805e+14	0.000000e+00	8.857141e-01	1.842016e+15	1.984780e+15	5.725734e+13	1.742766e+04	7.893001e+03	5.437985e+03	0	1.254388e-03
1.050000e+09	1.099616e+14	0.000000e+00	8.857141e-01	1.832512e+15	1.974616e+15	5.700363e+13	1.740596e+04	7.885443e+03	5.432778e+03	0	1.250162e-03
1.060000e+09	1.088525e+14	0.000000e+00	8.857141e-01	1.823086e+15	1.964535e+15	5.675163e+13	1.738436e+04	7.877919e+03	5.427595e+03	0	1.245945e-03
1.070000e+09	1.077530e+14	0.000000e+00	8.857141e-01	1.813738e+15	1.954537e+15	5.650133e+13	1.736288e+04	7.870430e+03	5.422434e+03	0	1.241736e-03
1.080000e+09	1.066631e+14	0.000000e+00	8.857141e-01	1.804466e+15	1.944620e+15	5.625272e+13	1.734151e+04	7.862973e+03	5.417297e+03	0	1.237535e-03
1.090000e+09	1.055826e+14	0.000000e+00	8.857141e-01	1.795271e+15	1.934783e+15	5.600577e+13	1.732025e+04	7.855551e+03	5.412184e+03	0	1.233342e-03
1.100000e+09	1.045114e+14	0.000000e+00	8.857141e-01	1.786150e+15	1.925027e+15	5.576049e+13	1.729910e+04	7.848161e+03	5.407093e+03	0	1.229157e-03
1.110000e+09	1.034495e+14	0.000000e+00	8.857141e-01	1.777103e+15	1.915349e+15	5.551685e+13	1.727805e+04	7.840805e+03	5.402024e+03	0	1.224980e-03
1.120000e+09	1.023967e+14	0.000000e+00	8.857141e-01	1.768130e+15	1.905749e+15	5.527484e+13	1.725711e+04	7.833481e+03	5.396978e+03	0	1.220810e-03
1.130000e+09	1.013529e+14	0.000000e+00	8.857141e-01	1.759229e+15	1.896226e+15	5.503445e+13	1.723628e+04	7.826190e+03	5.391955e+03	0	1.216648e-03
1.140000e+09	1.003180e+14	0.000000e+00	8.857141e-01	1.750400e+15	1.886779e+15	5.479567e+13	1.721555e+04	7.818931e+03	5.386954e+03	0	1.212492e-03
1.150000e+09	9.929195e+13	0.000000e+00	8.857141e-01	1.741642e+15	1.877408e+15	5.455848e+13	1.719492e+04	7.811704e+03	5.381975e+03	0	1.208344e-03
1.160000e+09	9.827461e+13	0.000000e+00	8.857141e-01	1.732954e+15	1.868110e+15	5.432287e+13	1.717440e+04	7.804509e+03	5.377018e+03	0	1.204203e-03
1.170000e+09	9.726589e+13	0.000000e+00	8.857141e-01	1.724335e+15	1.858888e+15	5.408884e+13	1.715398e+04	7.797345e+03	5.372082e+03	0	1.200069e-03
1.180000e+09	9.626569e+13	0.000000e+00	8.857141e-01	1.715786e+15	1.849738e+15	5.385636e+13	1.713366e+04	7.790213e+03	5.367168e+03	0	1.195941e-03
1.190000e+09	9.527392e+13	0.000000e+00	8.857141e-01	1.707304e+15	1.840660e+15	5.362542e+13	1.711344e+04	7.783112e+03	5.362276e+03	0	1.191820e-03
1.200000e+09	9.429050e+13	0.000000e+00	8.857141e-01	1.698889e+15	1.831654e+15	5.339602e+13	1.709332e+04	7.776042e+03	5.357405e+03	0	1.187705e-03
1.210000e+09	9.331532e+13	0.000000e+00	8.857141e-01	1.690540e+15	1.822719e+15	5.316814e+13	1.707330e+04	7.769002e+03	5.352555e+03	0	1.183597e-03
1.220000e+09	9.234829e+13	0.000000e+00	8.857141e-01	1.682258e+15	1.813853e+15	5.294177e+13	1.705338e+04	7.761993e+03	5.347726e+03	0	1.179494e-03
1.230000e+09	9.138933e+13	0.000000e+00	8.857141e-01	1.674040e+15	1.805056e+15	5.271690e+13	1.703355e+04	7.755014e+03	5.342918e+03	0	1.175397e-03
1.240000e+09	9.043835e+13	0.000000e+00	8.857141e-01	1.665887e+15	1.796328e+15	5.249352e+13	1.701383e+04	7.748065e+03	5.338130e+03	0	1.171306e-03
1.250000e+09	8.949526e+13	0.000000e+00	8.857141e-01	1.657798e+15	1.787668e+15	5.227160e+13	1.699419e+04	7.741146e+03	5.333363e+03	0	1.167220e-03
1.260000e+09	8.855998e+13	0.000000e+00	8.857141e-01	1.649771e+15	1.779074e+15	5.205116e+13	1.697466e+04	7.734257e+03	5.328617e+03	0	1.163140e-03
1.270000e+09	8.763242e+13	0.000000e+00	8.857141e-01	1.641807e+15	1.770548e+15	5.183216e+13	1.695522e+04	7.727397e+03	5.323890e+03	0	1.159065e-03
1.280000e+09	8.671250e+13	0.000000e+00	8.857141e-01	1.633904e+15	1.762086e+15	5.161461e+13	1.693587e+04	7.720566e+03	5.319184e+03	0	1.154995e-03
1.290000e+09	8.580013e+13	0.000000e+00	8.857141e-01	1.626063e+15	1.753690e+15	5.139848e+13	1.691661e+04	7.713764e+03	5.314498e+03	0	1.150929e-03
1.300000e+09	8.489523e+13	0.000000e+00	8.857141e-01	1.618282e+15	1.745358e+15	5.118377e+13	1.689745e+04	7.706991e+03	5.309832e+03	0	1.146869e-03
1.310000e+09	8.399773e+13	0.000000e+00	8.857141e-01	1.610561e+15	1.737089e+15	5.097048e+13	1.687838e+04	7.700247e+03	5.305185e+03	0	1.142813e-03
1.320000e+09	8.310755e+13	0.000000e+00	8.857141e-01	1.602898e+15	1.728884e+15	5.075857e+13	1.685940e+04	7.693531e+03	5.300558e+03	0	1.138762e-03
1.330000e+09	8.222460e+13	0.000000e+00	8.857141e-01	1.595295e+15	1.720741e+15	5.054806e+13	1.684051e+04	7.686843e+03	5.295950e+03	0	1.134715e-03
1.340000e+09	8.134881e+13	0.000000e+00	8.857141e-01	1.587749e+15	1.712659e+15	5.033892e+13	1.682170e+04	7.680183e+03	5.291362e+03	0	1.130672e-03
1.350000e+09	8.048010e+13	0.000000e+00	8.857141e-01	1.580260e+15	1.704639e+15	5.013114e+13	1.680299e+04	7.673551e+03	5.286793e+03	0	1.126632e-03
1.360000e+09	7.961841e+13	0.000000e+00	8.857141e-01	1.572829e+15	1.696678e+15	4.992472e+13	1.678437e+04	7.666947e+03	5.282242e+03	0	1.122597e-03
