#t		Qconv[W]	Ri[Rp]		R*[Rp]		Qc[W]		Qm[W]		Qr[W]		Tcmb[K]		Tl[K]		Tup[K]		RiFlag		Bs[T]
0.000000e+00	2.117333e+14	0.000000e+00	8.857140e-01	2.855909e+15	3.475671e+13	9.924745e+13	2.068369e+04	4.254932e+03	2.930285e+03	0	1.554683e-03
1.000000e+07	2.190298e+14	0.000000e+00	8.857140e-01	2.907069e+15	5.505485e+13	9.869755e+13	2.065170e+04	4.520343e+03	3.113068e+03	0	1.572340e-03
2.000000e+07	2.258329e+14	0.000000e+00	8.857140e-01	2.954596e+15	8.389340e+13	9.815176e+13	2.061913e+04	4.788143e+03	3.297496e+03	0	1.588453e-03
3.000000e+07	2.320747e+14	0.000000e+00	8.857140e-01	2.997999e+15	1.234296e+14	9.761004e+13	2.058603e+04	5.057126e+03	3.482740e+03	0	1.602955e-03
4.000000e+07	2.376918e+14	0.000000e+00	8.857140e-01	3.036816e+15	1.758483e+14	9.707238e+13	2.055244e+04	5.325840e+03	3.667798e+03	0	1.615784e-03
5.000000e+07	2.426289e+14	0.000000e+00	8.857140e-01	3.070648e+15	2.431677e+14	9.653872e+13	2.051842e+04	5.592600e+03	3.851509e+03	0	1.626895e-03
6.000000e+07	2.468427e+14	0.000000e+00	8.857140e-01	3.099184e+15	3.270080e+14	9.600904e+13	2.048403e+04	5.855513e+03	4.032572e+03	0	1.636259e-03
7.000000e+07	2.503063e+14	0.000000e+00	8.857140e-01	3.122231e+15	4.283476e+14	9.548330e+13	2.044931e+04	6.112542e+03	4.209583e+03	0	1.643877e-03
8.000000e+07	2.530113e+14	0.000000e+00	8.857140e-01	3.139731e+15	5.473060e+14	9.496148e+13	2.041433e+04	6.361578e+03	4.381089e+03	0	1.649777e-03
9.000000e+07	2.549699e+14	0.000000e+00	8.857140e-01	3.151777e+15	6.829961e+14	9.444353e+13	2.037916e+04	6.600541e+03	4.545658e+03	0	1.654023e-03
1.000000e+08	2.562145e+14	0.000000e+00	8.857140e-01	3.158610e+15	8.334819e+14	9.392943e+13	2.034386e+04	6.827491e+03	4.701954e+03	0	1.656710e-03
1.100000e+08	2.567955e+14	0.000000e+00	8.857140e-01	3.160600e+15	9.958663e+14	9.341915e+13	2.030848e+04	7.040729e+03	4.848807e+03	0	1.657961e-03
1.200000e+08	2.567776e+14	0.000000e+00	8.857140e-01	3.158224e+15	1.166500e+15	9.291265e+13	2.027308e+04	7.238891e+03	4.985277e+03	0	1.657923e-03
1.300000e+08	2.562353e+14	0.000000e+00	8.857140e-01	3.152026e+15	1.341284e+15	9.240989e+13	2.023770e+04	7.421012e+03	5.110700e+03	0	1.656755e-03
1.400000e+08	2.552472e+14	0.000000e+00	8.857140e-01	3.142582e+15	1.516020e+15	9.191086e+13	2.020239e+04	7.586558e+03	5.224707e+03	0	1.654623e-03
1.500000e+08	2.538914e+14	0.000000e+00	8.857140e-01	3.130465e+15	1.686738e+15	9.141552e+13	2.016719e+04	7.735420e+03	5.327226e+03	0	1.651688e-03
1.600000e+08	2.522415e+14	0.000000e+00	8.857140e-01	3.116213e+15	1.849975e+15	9.092384e+13	2.013212e+04	7.867885e+03	5.418452e+03	0	1.648102e-03
1.700000e+08	2.503638e+14	0.000000e+00	8.857140e-01	3.100310e+15	2.002955e+15	9.043578e+13	2.009722e+04	7.984572e+03	5.498812e+03	0	1.644003e-03
1.800000e+08	2.483156e+14	0.000000e+00	8.857140e-01	3.083174e+15	2.143670e+15	8.995133e+13	2.006249e+04	8.086363e+03	5.568913e+03	0	1.639507e-03
1.900000e+08	2.461445e+14	0.000000e+00	8.857140e-01	3.065156e+15	2.270880e+15	8.947044e+13	2.002795e+04	8.174327e+03	5.629492e+03	0	1.634715e-03
2.000000e+08	2.438894e+14	0.000000e+00	8.857140e-01	3.046538e+15	2.384033e+15	8.899309e+13	1.999362e+04	8.249645e+03	5.681362e+03	0	1.629707e-03
2.100000e+08	2.415805e+14	0.000000e+00	8.857140e-01	3.027541e+15	2.483160e+15	8.851925e+13	1.995949e+04	8.313547e+03	5.725370e+03	0	1.624548e-03
2.200000e+08	2.392411e+14	0.000000e+00	8.857140e-01	3.008335e+15	2.568732e+15	8.804889e+13	1.992558e+04	8.367257e+03	5.762359e+03	0	1.619287e-03
2.300000e+08	2.368886e+14	0.000000e+00	8.857140e-01	2.989047e+15	2.641547e+15	8.758198e+13	1.989188e+04	8.411960e+03	5.793145e+03	0	1.613962e-03
2.400000e+08	2.345354e+14	0.000000e+00	8.857140e-01	2.969768e+15	2.702599e+15	8.711849e+13	1.985839e+04	8.448766e+03	5.818493e+03	0	1.608600e-03
2.500000e+08	2.321907e+14	0.000000e+00	8.857140e-01	2.950565e+15	2.752990e+15	8.665840e+13	1.982512e+04	8.478700e+03	5.839108e+03	0	1.603222e-03
2.600000e+08	2.298607e+14	0.000000e+00	8.857140e-01	2.931481e+15	2.793854e+15	8.620168e+13	1.979207e+04	8.502690e+03	5.855629e+03	0	1.597841e-03
2.700000e+08	2.275493e+14	0.000000e+00	8.857140e-01	2.912548e+15	2.826307e+15	8.574830e+13	1.975923e+04	8.521562e+03	5.868626e+03	0	1.592467e-03
2.800000e+08	2.252595e+14	0.000000e+00	8.857140e-01	2.893785e+15	2.851403e+15	8.529822e+13	1.972660e+04	8.536052e+03	5.878605e+03	0	1.587107e-03
2.900000e+08	2.229927e+14	0.000000e+00	8.857140e-01	2.875203e+15	2.870121e+15	8.485144e+13	1.969418e+04	8.546798e+03	5.886006e+03	0	1.581766e-03
3.000000e+08	2.207498e+14	0.000000e+00	8.857140e-01	2.856809e+15	2.883343e+15	8.440790e+13	1.966197e+04	8.554360e+03	5.891213e+03	0	1.576445e-03
3.100000e+08	2.185313e+14	0.000000e+00	8.857140e-01	2.838605e+15	2.891861e+15	8.396760e+13	1.962997e+04	8.559218e+03	5.894559e+03	0	1.571146e-03
3.200000e+08	2.163371e+14	0.000000e+00	8.857140e-01	2.820592e+15	2.896372e+15	8.353051e+13	1.959816e+04	8.561787e+03	5.896328e+03	0	1.565870e-03
3.300000e+08	2.141671e+14	0.000000e+00	8.857140e-01	2.802768e+15	2.897487e+15	8.309659e+13	1.956656e+04	8.562421e+03	5.896765e+03	0	1.560617e-03
3.400000e+08	2.120210e+14	0.000000e+00	8.857140e-01	2.785131e+15	2.895734e+15	8.266582e+13	1.953516e+04	8.561423e+03	5.896078e+03	0	1.555386e-03
3.500000e+08	2.098985e+14	0.000000e+00	8.857140e-01	2.767678e+15	2.891567e+15	8.223818e+13	1.950396e+04	8.559051e+03	5.894444e+03	0	1.550179e-03
3.600000e+08	2.077990e+14	0.000000e+00	8.857140e-01	2.750405e+15	2.885381e+15	8.181364e+13	1.947295e+04	8.555523e+03	5.892014e+03	0	1.544993e-03
3.700000e+08	2.057222e+14	0.000000e+00	8.857140e-01	2.733311e+15	2.877504e+15	8.139218e+13	1.944213e+04	8.551024e+03	5.888916e+03	0	1.539829e-03
3.800000e+08	2.036677e+14	0.000000e+00	8.857140e-01	2.716390e+15	2.868225e+15	8.097376e+13	1.941151e+04	8.545712e+03	5.885258e+03	0	1.534685e-03
3.900000e+08	2.016350e+14	0.000000e+00	8.857140e-01	2.699641e+15	2.857783e+15	8.055837e+13	1.938108e+04	8.539720e+03	5.881131e+03	0	1.529563e-03
4.000000e+08	1.996237e+14	0.000000e+00	8.857140e-01	2.683059e+15	2.846382e+15	8.014597e+13	1.935083e+04	8.533159e+03	5.876613e+03	0	1.524460e-03
4.100000e+08	1.976335e+14	0.000000e+00	8.857140e-01	2.666643e+15	2.834195e+15	7.973656e+13	1.932077e+04	8.526126e+03	5.871769e+03	0	1.519377e-03
4.200000e+08	1.956639e+14	0.000000e+00	8.857140e-01	2.650389e+15	2.821367e+15	7.933009e+13	1.929089e+04	8.518700e+03	5.866655e+03	0	1.514313e-03
4.300000e+08	1.937146e+14	0.000000e+00	8.857140e-01	2.634295e+15	2.808023e+15	7.892655e+13	1.926119e+04	8.510948e+03	5.861317e+03	0	1.509267e-03
4.400000e+08	1.917853e+14	0.000000e+00	8.857140e-01	2.618358e+15	2.794265e+15	7.852591e+13	1.923167e+04	8.502929e+03	5.855794e+03	0	1.504240e-03
4.500000e+08	1.898757e+14	0.000000e+00	8.857140e-01	2.602575e+15	2.780179e+15	7.812815e+13	1.920233e+04	8.494690e+03	5.850120e+03	0	1.499231e-03
4.600000e+08	1.879855e+14	0.000000e+00	8.857140e-01	2.586945e+15	2.765840e+15	7.773325e+13	1.917317e+04	8.486271e+03	5.844322e+03	0	1.494239e-03
4.700000e+08	1.861142e+14	0.000000e+00	8.857140e-01	2.571465e+15	2.751308e+15	7.734118e+13	1.914418e+04	8.477708e+03	5.838425e+03	0	1.489265e-03
4.800000e+08	1.842618e+14	0.000000e+00	8.857140e-01	2.556133e+15	2.736637e+15	7.695192e+13	1.911537e+04	8.469030e+03	5.832448e+03	0	1.484307e-03
4.900000e+08	1.824279e+14	0.000000e+00	8.857140e-01	2.540946e+15	2.721869e+15	7.656545e+13	1.908673e+04	8.460260e+03	5.826408e+03	0	1.479366e-03
5.000000e+08	1.806122e+14	0.000000e+00	8.857140e-01	2.525903e+15	2.707038e+15	7.618174e+13	1.905825e+04	8.451420e+03	5.820320e+03	0	1.474442e-03
5.100000e+08	1.788144e+14	0.000000e+00	8.857140e-01	2.511002e+15	2.692179e+15	7.580077e+13	1.902995e+04	8.442526e+03	5.814196e+03	0	1.469534e-03
5.200000e+08	1.770345e+14	0.000000e+00	8.857140e-01	2.496241e+15	2.677313e+15	7.542252e+13	1.900181e+04	8.433595e+03	5.808045e+03	0	1.464641e-03
5.300000e+08	1.752720e+14	0.000000e+00	8.857140e-01	2.481617e+15	2.662465e+15	7.504696e+13	1.897384e+04	8.424638e+03	5.801876e+03	0	1.459765e-03
5.400000e+08	1.735267e+14	0.000000e+00	8.857140e-01	2.467130e+15	2.647648e+15	7.467409e+13	1.894603e+04	8.415666e+03	5.795697e+03	0	1.454903e-03
5.500000e+08	1.717985e+14	0.000000e+00	8.857140e-01	2.452777e+15	2.632883e+15	7.430386e+13	1.891838e+04	8.406687e+03	5.789514e+03	0	1.450057e-03
5.600000e+08	1.700871e+14	0.000000e+00	8.857140e-01	2.438557e+15	2.618177e+15	7.393627e+13	1.889090e+04	8.397710e+03	5.783331e+03	0	1.445226e-03
5.700000e+08	1.683923e+14	0.000000e+00	8.857140e-01	2.424468e+15	2.603543e+15	7.357129e+13	1.886357e+04	8.388740e+03	5.777154e+03	0	1.440410e-03
5.800000e+08	1.667139e+14	0.000000e+00	8.857140e-01	2.410509e+15	2.588988e+15	7.320890e+13	1.883640e+04	8.379783e+03	5.770985e+03	0	1.435608e-03
5.900000e+08	1.650516e+14	0.000000e+00	8.857140e-01	2.396677e+15	2.574519e+15	7.284907e+13	1.880938e+04	8.370843e+03	5.764829e+03	0	1.430821e-03
6.000000e+08	1.634052e+14	0.000000e+00	8.857140e-01	2.382971e+15	2.560143e+15	7.249179e+13	1.878252e+04	8.361924e+03	5.758686e+03	0	1.426047e-03
6.100000e+08	1.617746e+14	0.000000e+00	8.857140e-01	2.369389e+15	2.545862e+15	7.213705e+13	1.875582e+04	8.353029e+03	5.752561e+03	0	1.421288e-03
6.200000e+08	1.601596e+14	0.000000e+00	8.857140e-01	2.355931e+15	2.531681e+15	7.178480e+13	1.872927e+04	8.344161e+03	5.746454e+03	0	1.416543e-03
6.300000e+08	1.585599e+14	0.000000e+00	8.857140e-01	2.342594e+15	2.517603e+15	7.143505e+13	1.870286e+04	8.335322e+03	5.740367e+03	0	1.411811e-03
6.400000e+08	1.569754e+14	0.000000e+00	8.857140e-01	2.329377e+15	2.503630e+15	7.108776e+13	1.867661e+04	8.326514e+03	5.734301e+03	0	1.407092e-03
6.500000e+08	1.554058e+14	0.000000e+00	8.857140e-01	2.316279e+15	2.489763e+15	7.074291e+13	1.865050e+04	8.317739e+03	5.728257e+03	0	1.402387e-03
6.600000e+08	1.538511e+14	0.000000e+00	8.857140e-01	2.303297e+15	2.476005e+15	7.040050e+13	1.862454e+04	8.308997e+03	5.722236e+03	0	1.397694e-03
6.700000e+08	1.523109e+14	0.000000e+00	8.857140e-01	2.290432e+15	2.462356e+15	7.006049e+13	1.859873e+04	8.300289e+03	5.716240e+03	0	1.393014e-03
6.800000e+08	1.507851e+14	0.000000e+00	8.857140e-01	2.277681e+15	2.448814e+15	6.972287e+13	1.857306e+04	8.291617e+03	5.710267e+03	0	1.388347e-03
6.900000e+08	1.492737e+14	0.000000e+00	8.857140e-01	2.265042e+15	2.435384e+15	6.938762e+13	1.854753e+04	8.282981e+03	5.704320e+03	0	1.383693e-03
7.000000e+08	1.477762e+14	0.000000e+00	8.857140e-01	2.252515e+15	2.422063e+15	6.905471e+13	1.852214e+04	8.274382e+03	5.698398e+03	0	1.379050e-03
7.100000e+08	1.462927e+14	0.000000e+00	8.857140e-01	2.240099e+15	2.408850e+15	6.872414e+13	1.849690e+04	8.265820e+03	5.692501e+03	0	1.374420e-03
7.200000e+08	1.448229e+14	0.000000e+00	8.857140e-01	2.227791e+15	2.395747e+15	6.839588e+13	1.847179e+04	8.257295e+03	5.686630e+03	0	1.369802e-03
7.300000e+08	1.433667e+14	0.000000e+00	8.857140e-01	2.215591e+15	2.382753e+15	6.806991e+13	1.844682e+04	8.248807e+03	5.680785e+03	0	1.365195e-03
7.400000e+08	1.419238e+14	0.000000e+00	8.857140e-01	2.203497e+15	2.369866e+15	6.774622e+13	1.842199e+04	8.240358e+03	5.674966e+03	0	1.360600e-03
7.500000e+08	1.404942e+14	0.000000e+00	8.857140e-01	2.191508e+15	2.357087e+15	6.742479e+13	1.839729e+04	8.231946e+03	5.669173e+03	0	1.356016e-03
7.600000e+08	1.390777e+14	0.000000e+00	8.857140e-01	2.179623e+15	2.344414e+15	6.710559e+13	1.837272e+04	8.223572e+03	5.663406e+03	0	1.351443e-03
7.700000e+08	1.376741e+14	0.000000e+00	8.857140e-01	2.167841e+15	2.331848e+15	6.678862e+13	1.834829e+04	8.215236e+03	5.657665e+03	0	1.346882e-03
7.800000e+08	1.362833e+14	0.000000e+00	8.857140e-01	2.156160e+15	2.319387e+15	6.647385e+13	1.832399e+04	8.206937e+03	5.651950e+03	0	1.342331e-03
7.900000e+08	1.349051e+14	0.000000e+00	8.857140e-01	2.144580e+15	2.307030e+15	6.616126e+13	1.829983e+04	8.198677e+03	5.646261e+03	0	1.337790e-03
8.000000e+08	1.335394e+14	0.000000e+00	8.857140e-01	2.133098e+15	2.294775e+15	6.585085e+13	1.827579e+04	8.190453e+03	5.640598e+03	0	1.333261e-03
8.100000e+08	1.321859e+14	0.000000e+00	8.857140e-01	2.121715e+15	2.282623e+15	6.554258e+13	1.825188e+04	8.182268e+03	5.634961e+03	0	1.328741e-03
8.200000e+08	1.308447e+14	0.000000e+00	8.857140e-01	2.110428e+15	2.270573e+15	6.523645e+13	1.822809e+04	8.174119e+03	5.629349e+03	0	1.324232e-03
8.300000e+08	1.295155e+14	0.000000e+00	8.857140e-01	2.099237e+15	2.258623e+15	6.493243e+13	1.820444e+04	8.166008e+03	5.623763e+03	0	1.319732e-03
8.400000e+08	1.281981e+14	0.000000e+00	8.857140e-01	2.088141e+15	2.246772e+15	6.463052e+13	1.818091e+04	8.157934e+03	5.618203e+03	0	1.315243e-03
8.500000e+08	1.268925e+14	0.000000e+00	8.857140e-01	2.077138e+15	2.235019e+15	6.433068e+13	1.815750e+04	8.149896e+03	5.612667e+03	0	1.310763e-03
8.600000e+08	1.255986e+14	0.000000e+00	8.857140e-01	2.066228e+15	2.223364e+15	6.403292e+13	1.813422e+04	8.141895e+03	5.607157e+03	0	1.306292e-03
8.700000e+08	1.243161e+14	0.000000e+00	8.857140e-01	2.055409e+15	2.211805e+15	6.373720e+13	1.811105e+04	8.133930e+03	5.601672e+03	0	1.301830e-03
8.800000e+08	1.230449e+14	0.000000e+00	8.857140e-01	2.044680e+15	2.200342e+15	6.344352e+13	1.808801e+04	8.126002e+03	5.596212e+03	0	1.297378e-03
8.900000e+08	1.217850e+14	0.000000e+00	8.857140e-01	2.034041e+15	2.188972e+15	6.315185e+13	1.806509e+04	8.118109e+03	5.590776e+03	0	1.292935e-03
9.000000e+08	1.205361e+14	0.000000e+00	8.857140e-01	2.023490e+15	2.177696e+15	6.286219e+13	1.804229e+04	8.110252e+03	5.585365e+03	0	1.288500e-03
9.100000e+08	1.192982e+14	0.000000e+00	8.857140e-01	2.013027e+15	2.166513e+15	6.257451e+13	1.801961e+04	8.102430e+03	5.579978e+03	0	1.284074e-03
9.200000e+08	1.180712e+14	0.000000e+00	8.857140e-01	2.002650e+15	2.155421e+15	6.228880e+13	1.799704e+04	8.094644e+03	5.574616e+03	0	1.279656e-03
9.300000e+08	1.168548e+14	0.000000e+00	8.857140e-01	1.992358e+15	2.144420e+15	6.200505e+13	1.797459e+04	8.086892e+03	5.569278e+03	0	1.275247e-03
9.400000e+08	1.156490e+14	0.000000e+00	8.857140e-01	1.982151e+15	2.133508e+15	6.172324e+13	1.795226e+04	8.079176e+03	5.563963e+03	0	1.270845e-03
9.500000e+08	1.144537e+14	0.000000e+00	8.857140e-01	1.972027e+15	2.122685e+15	6.144335e+13	1.793003e+04	8.071493e+03	5.558673e+03	0	1.266452e-03
9.600000e+08	1.132687e+14	0.000000e+00	8.857140e-01	1.961986e+15	2.111948e+15	6.116537e+13	1.790793e+04	8.063845e+03	5.553406e+03	0	1.262066e-03
9.700000e+08	1.120940e+14	0.000000e+00	8.857140e-01	1.952027e+15	2.101299e+15	6.088928e+13	1.788593e+04	8.056231e+03	5.548162e+03	0	1.257687e-03
9.800000e+08	1.109293e+14	0.000000e+00	8.857140e-01	1.942148e+15	2.090736e+15	6.061507e+13	1.786405e+04	8.048651e+03	5.542942e+03	0	1.253317e-03
9.900000e+08	1.097747e+14	0.000000e+00	8.857140e-01	1.932349e+15	2.080256e+15	6.034272e+13	1.784228e+04	8.041105e+03	5.537745e+03	0	1.248953e-03
1.000000e+09	1.086299e+14	0.000000e+00	8.857140e-01	1.922630e+15	2.069861e+15	6.007223e+13	1.782061e+04	8.033591e+03	5.532571e+03	0	1.244596e-03
1.010000e+09	1.074950e+14	0.000000e+00	8.857140e-01	1.912988e+15	2.059549e+15	5.980356e+13	1.779906e+04	8.026111e+03	5.527419e+03	0	1.240246e-03
1.020000e+09	1.063696e+14	0.000000e+00	8.857140e-01	1.903424e+15	2.049319e+15	5.953672e+13	1.777761e+04	8.018664e+03	5.522290e+03	0	1.235903e-03
1.030000e+09	1.052539e+14	0.000000e+00	8.857140e-01	1.893936e+15	2.039170e+15	5.927169e+13	1.775627e+04	8.011249e+03	5.517184e+03	0	1.231567e-03
1.040000e+09	1.041476e+14	0.000000e+00	8.857140e-01	1.884524e+15	2.029102e+15	5.900844e+13	1.773504e+04	8.003867e+03	5.512100e+03	0	1.227237e-03
1.050000e+09	1.030506e+14	0.000000e+00	8.857140e-01	1.875186e+15	2.019114e+15	5.874697e+13	1.771391e+04	7.996517e+03	5.507038e+03	0	1.222913e-03
1.060000e+09	1.019629e+14	0.000000e+00	8.857140e-01	1.865923e+15	2.009203e+15	5.848727e+13	1.769289e+04	7.989199e+03	5.501998e+03	0	1.218595e-03
1.070000e+09	1.008843e+14	0.000000e+00	8.857140e-01	1.856733e+15	1.999371e+15	5.822931e+13	1.767197e+04	7.981913e+03	5.496980e+03	0	1.214283e-03
1.080000e+09	9.981480e+13	0.000000e+00	8.857140e-01	1.847615e+15	1.989615e+15	5.797309e+13	1.765115e+04	7.974658e+03	5.491984e+03	0	1.209977e-03
1.090000e+09	9.875421e+13	0.000000e+00	8.857140e-01	1.838569e+15	1.979937e+15	5.771860e+13	1.763043e+04	7.967434e+03	5.487009e+03	0	1.205676e-03
1.100000e+09	9.770246e+13	0.000000e+00	8.857140e-01	1.829594e+15	1.970332e+15	5.746581e+13	1.760982e+04	7.960242e+03	5.482056e+03	0	1.201380e-03
1.110000e+09	9.665947e+13	0.000000e+00	8.857140e-01	1.820689e+15	1.960804e+15	5.721472e+13	1.758931e+04	7.953080e+03	5.477124e+03	0	1.197090e-03
1.120000e+09	9.562512e+13	0.000000e+00	8.857140e-01	1.811854e+15	1.951348e+15	5.696531e+13	1.756889e+04	7.945949e+03	5.472213e+03	0	1.192805e-03
1.130000e+09	9.459934e+13	0.000000e+00	8.857140e-01	1.803087e+15	1.941965e+15	5.671757e+13	1.754858e+04	7.938849e+03	5.467323e+03	0	1.188524e-03
1.140000e+09	9.358202e+13	0.000000e+00	8.857140e-01	1.794388e+15	1.932655e+15	5.647148e+13	1.752836e+04	7.931778e+03	5.462454e+03	0	1.184248e-03
1.150000e+09	9.257308e+13	0.000000e+00	8.857140e-01	1.785756e+15	1.923416e+15	5.622704e+13	1.750824e+04	7.924738e+03	5.457605e+03	0	1.179977e-03
1.160000e+09	9.157242e+13	0.000000e+00	8.857140e-01	1.777191e+15	1.914250e+15	5.598423e+13	1.748822e+04	7.917727e+03	5.452777e+03	0	1.175710e-03
1.170000e+09	9.057996e+13	0.000000e+00	8.857140e-01	1.768692e+15	1.905152e+15	5.574303e+13	1.746829e+04	7.910746e+03	5.447970e+03	0	1.171447e-03
1.180000e+09	8.959560e+13	0.000000e+00	8.857140e-01	1.760258e+15	1.896123e+15	5.550344e+13	1.744846e+04	7.903795e+03	5.443182e+03	0	1.167188e-03
1.190000e+09	8.861927e+13	0.000000e+00	8.857140e-01	1.751888e+15	1.887164e+15	5.526545e+13	1.742873e+04	7.896873e+03	5.438415e+03	0	1.162933e-03
1.200000e+09	8.765087e+13	0.000000e+00	8.857140e-01	1.743582e+15	1.878271e+15	5.502903e+13	1.740908e+04	7.889979e+03	5.433668e+03	0	1.158681e-03
1.210000e+09	8.669033e+13	0.000000e+00	8.857140e-01	1.735339e+15	1.869447e+15	5.479418e+13	1.738953e+04	7.883115e+03	5.428940e+03	0	1.154433e-03
1.220000e+09	8.573755e+13	0.000000e+00	8.857140e-01	1.727159e+15	1.860689e+15	5.456089e+13	1.737007e+04	7.876279e+03	5.424232e+03	0	1.150188e-03
1.230000e+09	8.479246e+13	0.000000e+00	8.857140e-01	1.719041e+15	1.851997e+15	5.432914e+13	1.735071e+04	7.869471e+03	5.419544e+03	0	1.145947e-03
1.240000e+09	8.385498e+13	0.000000e+00	8.857140e-01	1.710984e+15	1.843370e+15	5.409892e+13	1.733143e+04	7.862692e+03	5.414875e+03	0	1.141708e-03
1.250000e+09	8.292502e+13	0.000000e+00	8.857140e-01	1.702987e+15	1.834807e+15	5.387023e+13	1.731225e+04	7.855940e+03	5.410226e+03	0	1.137471e-03
1.260000e+09	8.200251e+13	0.000000e+00	8.857140e-01	1.695050e+15	1.826308e+15	5.364304e+13	1.729315e+04	7.849217e+03	5.405595e+03	0	1.133238e-03
1.270000e+09	8.108736e+13	0.000000e+00	8.857140e-01	1.687173e+15	1.817872e+15	5.341734e+13	1.727414e+04	7.842521e+03	5.400984e+03	0	1.129006e-03
1.280000e+09	8.017951e+13	0.000000e+00	8.857140e-01	1.679354e+15	1.809500e+15	5.319313e+13	1.725523e+04	7.835852e+03	5.396392e+03	0	1.124777e-03
1.290000e+09	7.927888e+13	0.000000e+00	8.857140e-01	1.671594e+15	1.801189e+15	5.297040e+13	1.723639e+04	7.829211e+03	5.391818e+03	0	1.120550e-03
1.300000e+09	7.838539e+13	0.000000e+00	8.857140e-01	1.663891e+15	1.792940e+15	5.274913e+13	1.721765e+04	7.822597e+03	5.387263e+03	0	1.116324e-03
1.310000e+09	7.749896e+13	0.000000e+00	8.857140e-01	1.656245e+15	1.784750e+15	5.252930e+13	1.719899e+04	7.816010e+03	5.382727e+03	0	1.112100e-03
1.320000e+09	7.661953e+13	0.000000e+00	8.857140e-01	1.648656e+15	1.776622e+15	5.231092e+13	1.718042e+04	7.809450e+03	5.378209e+03	0	1.107878e-03
1.330000e+09	7.574702e+13	0.000000e+00	8.857140e-01	1.641122e+15	1.768552e+15	5.209397e+13	1.716193e+04	7.802916e+03	5.373709e+03	0	1.103656e-03
1.340000e+09	7.488136e+13	0.000000e+00	8.857140e-01	1.633644e+15	1.760542e+15	5.187843e+13	1.714353e+04	7.796408e+03	5.369227e+03	0	1.099436e-03
1.350000e+09	7.402248e+13	0.000000e+00	8.857140e-01	1.626220e+15	1.752590e+15	5.166430e+13	1.712521e+04	7.789927e+03	5.364764e+03	0	1.095216e-03
1.360000e+09	7.317031e+13	0.000000e+00	8.857140e-01	1.618851e+15	1.744696e+15	5.145156e+13	1.710697e+04	7.783472e+03	5.360318e+03	0	1.090997e-03
