#t		Qconv[W]	Ri[Rp]		R*[Rp]		Qc[W]		Qm[W]		Qr[W]		Tcmb[K]		Tl[K]		Tup[K]		RiFlag		Bs[T]
0.000000e+00	1.330401e+13	0.000000e+00	4.088049e-01	4.247691e+14	7.599579e+13	1.897823e+14	8.981080e+03	3.990293e+03	2.323733e+03	0	9.819228e-04
1.000000e+07	1.233366e+13	0.000000e+00	4.088049e-01	3.942796e+14	7.962541e+13	1.887308e+14	8.836615e+03	4.019044e+03	2.340476e+03	0	9.574451e-04
2.000000e+07	1.147210e+13	0.000000e+00	4.088049e-01	3.672024e+14	8.313427e+13	1.876871e+14	8.702269e+03	4.045912e+03	2.356123e+03	0	9.346109e-04
3.000000e+07	1.070298e+13	0.000000e+00	4.088049e-01	3.430252e+14	8.652676e+13	1.866512e+14	8.576937e+03	4.071088e+03	2.370784e+03	0	9.132396e-04
4.000000e+07	1.001299e+13	0.000000e+00	4.088049e-01	3.213307e+14	8.980701e+13	1.856231e+14	8.459676e+03	4.094734e+03	2.384554e+03	0	8.931774e-04
5.000000e+07	9.391175e+12	0.000000e+00	4.088049e-01	3.017758e+14	9.297901e+13	1.846026e+14	8.349676e+03	4.116988e+03	2.397514e+03	0	8.742919e-04
6.000000e+07	8.828476e+12	0.000000e+00	4.088049e-01	2.840762e+14	9.604647e+13	1.835898e+14	8.246235e+03	4.137972e+03	2.409734e+03	0	8.564692e-04
7.000000e+07	8.317316e+12	0.000000e+00	4.088049e-01	2.679943e+14	9.901292e+13	1.825844e+14	8.148743e+03	4.157791e+03	2.421276e+03	0	8.396099e-04
8.000000e+07	7.851327e+12	0.000000e+00	4.088049e-01	2.533305e+14	1.018817e+14	1.815866e+14	8.056668e+03	4.176538e+03	2.432193e+03	0	8.236275e-04
9.000000e+07	7.425121e+12	0.000000e+00	4.088049e-01	2.399157e+14	1.046560e+14	1.805962e+14	7.969541e+03	4.194294e+03	2.442533e+03	0	8.084460e-04
1.000000e+08	7.034108e+12	0.000000e+00	4.088049e-01	2.276062e+14	1.073388e+14	1.796131e+14	7.886948e+03	4.211131e+03	2.452338e+03	0	7.939982e-04
1.100000e+08	6.674363e+12	0.000000e+00	4.088049e-01	2.162786e+14	1.099329e+14	1.786373e+14	7.808522e+03	4.227114e+03	2.461646e+03	0	7.802248e-04
1.200000e+08	6.342505e+12	0.000000e+00	4.088049e-01	2.058269e+14	1.124411e+14	1.776688e+14	7.733937e+03	4.242301e+03	2.470490e+03	0	7.670731e-04
1.300000e+08	6.035610e+12	0.000000e+00	4.088049e-01	1.961595e+14	1.148658e+14	1.767074e+14	7.662900e+03	4.256744e+03	2.478900e+03	0	7.544959e-04
1.400000e+08	5.751140e+12	0.000000e+00	4.088049e-01	1.871966e+14	1.172096e+14	1.757532e+14	7.595149e+03	4.270489e+03	2.486905e+03	0	7.424510e-04
1.500000e+08	5.486880e+12	0.000000e+00	4.088049e-01	1.788688e+14	1.194749e+14	1.748060e+14	7.530449e+03	4.283579e+03	2.494527e+03	0	7.309006e-04
1.600000e+08	5.240887e+12	0.000000e+00	4.088049e-01	1.711151e+14	1.216637e+14	1.738658e+14	7.468587e+03	4.296052e+03	2.501791e+03	0	7.198103e-04
1.700000e+08	5.011455e+12	0.000000e+00	4.088049e-01	1.638819e+14	1.237783e+14	1.729325e+14	7.409370e+03	4.307944e+03	2.508717e+03	0	7.091494e-04
1.800000e+08	4.797077e+12	0.000000e+00	4.088049e-01	1.571220e+14	1.258208e+14	1.720061e+14	7.352623e+03	4.319287e+03	2.515322e+03	0	6.988898e-04
1.900000e+08	4.596420e+12	0.000000e+00	4.088049e-01	1.507934e+14	1.277931e+14	1.710866e+14	7.298186e+03	4.330110e+03	2.521625e+03	0	6.890061e-04
2.000000e+08	4.408297e+12	0.000000e+00	4.088049e-01	1.448590e+14	1.296971e+14	1.701738e+14	7.245914e+03	4.340441e+03	2.527641e+03	0	6.794750e-04
2.100000e+08	4.231653e+12	0.000000e+00	4.088049e-01	1.392856e+14	1.315347e+14	1.692677e+14	7.195675e+03	4.350305e+03	2.533385e+03	0	6.702752e-04
2.200000e+08	4.065542e+12	0.000000e+00	4.088049e-01	1.340435e+14	1.333077e+14	1.683682e+14	7.147345e+03	4.359724e+03	2.538871e+03	0	6.613875e-04
2.300000e+08	3.909119e+12	0.000000e+00	4.088049e-01	1.291061e+14	1.350177e+14	1.674754e+14	7.100813e+03	4.368722e+03	2.544110e+03	0	6.527940e-04
2.400000e+08	3.761622e+12	0.000000e+00	4.088049e-01	1.244495e+14	1.366665e+14	1.665891e+14	7.055976e+03	4.377316e+03	2.549115e+03	0	6.444782e-04
2.500000e+08	3.622367e+12	0.000000e+00	4.088049e-01	1.200522e+14	1.382556e+14	1.657093e+14	7.012739e+03	4.385527e+03	2.553897e+03	0	6.364251e-04
2.600000e+08	3.490733e+12	0.000000e+00	4.088049e-01	1.158948e+14	1.397867e+14	1.648360e+14	6.971013e+03	4.393371e+03	2.558465e+03	0	6.286207e-04
2.700000e+08	3.366160e+12	0.000000e+00	4.088049e-01	1.119597e+14	1.412611e+14	1.639690e+14	6.930716e+03	4.400866e+03	2.562829e+03	0	6.210522e-04
2.800000e+08	3.248141e+12	0.000000e+00	4.088049e-01	1.082308e+14	1.426805e+14	1.631084e+14	6.891774e+03	4.408025e+03	2.566998e+03	0	6.137075e-04
2.900000e+08	3.136212e+12	0.000000e+00	4.088049e-01	1.046936e+14	1.440462e+14	1.622540e+14	6.854116e+03	4.414864e+03	2.570981e+03	0	6.065757e-04
3.000000e+08	3.029953e+12	0.000000e+00	4.088049e-01	1.013350e+14	1.453597e+14	1.614059e+14	6.817677e+03	4.421396e+03	2.574785e+03	0	5.996463e-04
3.100000e+08	2.928979e+12	0.000000e+00	4.088049e-01	9.814273e+13	1.466223e+14	1.605640e+14	6.782395e+03	4.427633e+03	2.578417e+03	0	5.929098e-04
3.200000e+08	2.832939e+12	0.000000e+00	4.088049e-01	9.510588e+13	1.478352e+14	1.597281e+14	6.748215e+03	4.433587e+03	2.581885e+03	0	5.863572e-04
3.300000e+08	2.741510e+12	0.000000e+00	4.088049e-01	9.221427e+13	1.489999e+14	1.588984e+14	6.715083e+03	4.439271e+03	2.585194e+03	0	5.799801e-04
3.400000e+08	2.654397e+12	0.000000e+00	4.088049e-01	8.945862e+13	1.501175e+14	1.580747e+14	6.682948e+03	4.444694e+03	2.588352e+03	0	5.737708e-04
3.500000e+08	2.571328e+12	0.000000e+00	4.088049e-01	8.683037e+13	1.511894e+14	1.572569e+14	6.651766e+03	4.449866e+03	2.591365e+03	0	5.677219e-04
3.600000e+08	2.492054e+12	0.000000e+00	4.088049e-01	8.432168e+13	1.522166e+14	1.564451e+14	6.621492e+03	4.454798e+03	2.594236e+03	0	5.618266e-04
3.700000e+08	2.416342e+12	0.000000e+00	4.088049e-01	8.192527e+13	1.532003e+14	1.556392e+14	6.592086e+03	4.459498e+03	2.596973e+03	0	5.560783e-04
3.800000e+08	2.343981e+12	0.000000e+00	4.088049e-01	7.963446e+13	1.541417e+14	1.548391e+14	6.563508e+03	4.463974e+03	2.599580e+03	0	5.504711e-04
3.900000e+08	2.274774e+12	0.000000e+00	4.088049e-01	7.744304e+13	1.550420e+14	1.540448e+14	6.535722e+03	4.468236e+03	2.602062e+03	0	5.449993e-04
4.000000e+08	2.208538e+12	0.000000e+00	4.088049e-01	7.534529e+13	1.559021e+14	1.532562e+14	6.508696e+03	4.472291e+03	2.604423e+03	0	5.396574e-04
4.100000e+08	2.145103e+12	0.000000e+00	4.088049e-01	7.333587e+13	1.567231e+14	1.524733e+14	6.482395e+03	4.476146e+03	2.606668e+03	0	5.344403e-04
4.200000e+08	2.084314e+12	0.000000e+00	4.088049e-01	7.140984e+13	1.575061e+14	1.516960e+14	6.456791e+03	4.479808e+03	2.608801e+03	0	5.293434e-04
4.300000e+08	2.026023e+12	0.000000e+00	4.088049e-01	6.956263e+13	1.582520e+14	1.509244e+14	6.431854e+03	4.483284e+03	2.610825e+03	0	5.243621e-04
4.400000e+08	1.970096e+12	0.000000e+00	4.088049e-01	6.778994e+13	1.589619e+14	1.501583e+14	6.407557e+03	4.486582e+03	2.612746e+03	0	5.194921e-04
4.500000e+08	1.916405e+12	0.000000e+00	4.088049e-01	6.608779e+13	1.596367e+14	1.493977e+14	6.383875e+03	4.489706e+03	2.614565e+03	0	5.147293e-04
4.600000e+08	1.864832e+12	0.000000e+00	4.088049e-01	6.445247e+13	1.602774e+14	1.486426e+14	6.360783e+03	4.492663e+03	2.616287e+03	0	5.100700e-04
4.700000e+08	1.815268e+12	0.000000e+00	4.088049e-01	6.288051e+13	1.608848e+14	1.478928e+14	6.338259e+03	4.495458e+03	2.617915e+03	0	5.055103e-04
4.800000e+08	1.767608e+12	0.000000e+00	4.088049e-01	6.136866e+13	1.614599e+14	1.471485e+14	6.316280e+03	4.498098e+03	2.619452e+03	0	5.010470e-04
4.900000e+08	1.721757e+12	0.000000e+00	4.088049e-01	5.991388e+13	1.620036e+14	1.464095e+14	6.294826e+03	4.500586e+03	2.620901e+03	0	4.966767e-04
5.000000e+08	1.677625e+12	0.000000e+00	4.088049e-01	5.851333e+13	1.625166e+14	1.456757e+14	6.273877e+03	4.502929e+03	2.622266e+03	0	4.923963e-04
5.100000e+08	1.635126e+12	0.000000e+00	4.088049e-01	5.716435e+13	1.629999e+14	1.449472e+14	6.253415e+03	4.505131e+03	2.623548e+03	0	4.882027e-04
5.200000e+08	1.594181e+12	0.000000e+00	4.088049e-01	5.586442e+13	1.634541e+14	1.442239e+14	6.233421e+03	4.507196e+03	2.624751e+03	0	4.840932e-04
5.300000e+08	1.554715e+12	0.000000e+00	4.088049e-01	5.461121e+13	1.638803e+14	1.435058e+14	6.213879e+03	4.509130e+03	2.625876e+03	0	4.800651e-04
5.400000e+08	1.516659e+12	0.000000e+00	4.088049e-01	5.340249e+13	1.642790e+14	1.427928e+14	6.194773e+03	4.510936e+03	2.626928e+03	0	4.761156e-04
5.500000e+08	1.479946e+12	0.000000e+00	4.088049e-01	5.223619e+13	1.646511e+14	1.420848e+14	6.176087e+03	4.512618e+03	2.627908e+03	0	4.722425e-04
5.600000e+08	1.444514e+12	0.000000e+00	4.088049e-01	5.111035e+13	1.649973e+14	1.413819e+14	6.157806e+03	4.514181e+03	2.628818e+03	0	4.684433e-04
5.700000e+08	1.410304e+12	0.000000e+00	4.088049e-01	5.002312e+13	1.653183e+14	1.406840e+14	6.139917e+03	4.515627e+03	2.629660e+03	0	4.647158e-04
5.800000e+08	1.377262e+12	0.000000e+00	4.088049e-01	4.897276e+13	1.656148e+14	1.399910e+14	6.122407e+03	4.516962e+03	2.630438e+03	0	4.610577e-04
5.900000e+08	1.345334e+12	0.000000e+00	4.088049e-01	4.795764e+13	1.658876e+14	1.393030e+14	6.105261e+03	4.518188e+03	2.631152e+03	0	4.574671e-04
6.000000e+08	1.314473e+12	0.000000e+00	4.088049e-01	4.697618e+13	1.661372e+14	1.386198e+14	6.088469e+03	4.519309e+03	2.631804e+03	0	4.539420e-04
6.100000e+08	1.284631e+12	0.000000e+00	4.088049e-01	4.602694e+13	1.663644e+14	1.379414e+14	6.072019e+03	4.520328e+03	2.632398e+03	0	4.504804e-04
6.200000e+08	1.255764e+12	0.000000e+00	4.088049e-01	4.510852e+13	1.665698e+14	1.372679e+14	6.055899e+03	4.521248e+03	2.632934e+03	0	4.470806e-04
6.300000e+08	1.227830e+12	0.000000e+00	4.088049e-01	4.421961e+13	1.667540e+14	1.365990e+14	6.040100e+03	4.522073e+03	2.633414e+03	0	4.437407e-04
6.400000e+08	1.200791e+12	0.000000e+00	4.088049e-01	4.335896e+13	1.669176e+14	1.359350e+14	6.024609e+03	4.522805e+03	2.633840e+03	0	4.404592e-04
6.500000e+08	1.174608e+12	0.000000e+00	4.088049e-01	4.252540e+13	1.670612e+14	1.352755e+14	6.009419e+03	4.523447e+03	2.634214e+03	0	4.372343e-04
6.600000e+08	1.149247e+12	0.000000e+00	4.088049e-01	4.171781e+13	1.671854e+14	1.346208e+14	5.994519e+03	4.524002e+03	2.634537e+03	0	4.340645e-04
6.700000e+08	1.124673e+12	0.000000e+00	4.088049e-01	4.093512e+13	1.672908e+14	1.339706e+14	5.979900e+03	4.524472e+03	2.634811e+03	0	4.309484e-04
6.800000e+08	1.100855e+12	0.000000e+00	4.088049e-01	4.017633e+13	1.673779e+14	1.333250e+14	5.965554e+03	4.524861e+03	2.635037e+03	0	4.278845e-04
6.900000e+08	1.077763e+12	0.000000e+00	4.088049e-01	3.944048e+13	1.674472e+14	1.326839e+14	5.951473e+03	4.525170e+03	2.635217e+03	0	4.248715e-04
7.000000e+08	1.055367e+12	0.000000e+00	4.088049e-01	3.872666e+13	1.674992e+14	1.320473e+14	5.937648e+03	4.525402e+03	2.635353e+03	0	4.219079e-04
7.100000e+08	1.033639e+12	0.000000e+00	4.088049e-01	3.803401e+13	1.675346e+14	1.314152e+14	5.924073e+03	4.525560e+03	2.635444e+03	0	4.189924e-04
7.200000e+08	1.012555e+12	0.000000e+00	4.088049e-01	3.736170e+13	1.675537e+14	1.307875e+14	5.910739e+03	4.525645e+03	2.635494e+03	0	4.161240e-04
7.300000e+08	9.920894e+11	0.000000e+00	4.088049e-01	3.670896e+13	1.675571e+14	1.301642e+14	5.897639e+03	4.525660e+03	2.635503e+03	0	4.133013e-04
7.400000e+08	9.722179e+11	0.000000e+00	4.088049e-01	3.607502e+13	1.675452e+14	1.295452e+14	5.884767e+03	4.525607e+03	2.635472e+03	0	4.105232e-04
7.500000e+08	9.529184e+11	0.000000e+00	4.088049e-01	3.545920e+13	1.675185e+14	1.289306e+14	5.872116e+03	4.525488e+03	2.635403e+03	0	4.077886e-04
7.600000e+08	9.341694e+11	0.000000e+00	4.088049e-01	3.486079e+13	1.674775e+14	1.283202e+14	5.859680e+03	4.525305e+03	2.635296e+03	0	4.050964e-04
7.700000e+08	9.159503e+11	0.000000e+00	4.088049e-01	3.427917e+13	1.674225e+14	1.277141e+14	5.847453e+03	4.525060e+03	2.635153e+03	0	4.024456e-04
7.800000e+08	8.982417e+11	0.000000e+00	4.088049e-01	3.371370e+13	1.673540e+14	1.271122e+14	5.835429e+03	4.524754e+03	2.634975e+03	0	3.998351e-04
7.900000e+08	8.810248e+11	0.000000e+00	4.088049e-01	3.316380e+13	1.672725e+14	1.265144e+14	5.823603e+03	4.524391e+03	2.634763e+03	0	3.972640e-04
8.000000e+08	8.642819e+11	0.000000e+00	4.088049e-01	3.262892e+13	1.671783e+14	1.259209e+14	5.811968e+03	4.523970e+03	2.634519e+03	0	3.947314e-04
8.100000e+08	8.479958e+11	0.000000e+00	4.088049e-01	3.210850e+13	1.670719e+14	1.253314e+14	5.800520e+03	4.523494e+03	2.634242e+03	0	3.922363e-04
8.200000e+08	8.321504e+11	0.000000e+00	4.088049e-01	3.160204e+13	1.669535e+14	1.247460e+14	5.789254e+03	4.522965e+03	2.633933e+03	0	3.897778e-04
8.300000e+08	8.167299e+11	0.000000e+00	4.088049e-01	3.110904e+13	1.668237e+14	1.241647e+14	5.778165e+03	4.522384e+03	2.633595e+03	0	3.873551e-04
8.400000e+08	8.017196e+11	0.000000e+00	4.088049e-01	3.062904e+13	1.666826e+14	1.235873e+14	5.767248e+03	4.521753e+03	2.633228e+03	0	3.849674e-04
8.500000e+08	7.871052e+11	0.000000e+00	4.088049e-01	3.016158e+13	1.665308e+14	1.230140e+14	5.756499e+03	4.521074e+03	2.632832e+03	0	3.826139e-04
8.600000e+08	7.728730e+11	0.000000e+00	4.088049e-01	2.970623e+13	1.663686e+14	1.224446e+14	5.745913e+03	4.520347e+03	2.632409e+03	0	3.802938e-04
8.700000e+08	7.590099e+11	0.000000e+00	4.088049e-01	2.926259e+13	1.661962e+14	1.218791e+14	5.735486e+03	4.519574e+03	2.631958e+03	0	3.780062e-04
8.800000e+08	7.455034e+11	0.000000e+00	4.088049e-01	2.883024e+13	1.660141e+14	1.213175e+14	5.725214e+03	4.518756e+03	2.631482e+03	0	3.757506e-04
8.900000e+08	7.323415e+11	0.000000e+00	4.088049e-01	2.840882e+13	1.658225e+14	1.207598e+14	5.715093e+03	4.517896e+03	2.630981e+03	0	3.735262e-04
9.000000e+08	7.195127e+11	0.000000e+00	4.088049e-01	2.799796e+13	1.656218e+14	1.202059e+14	5.705120e+03	4.516993e+03	2.630456e+03	0	3.713322e-04
9.100000e+08	7.070060e+11	0.000000e+00	4.088049e-01	2.759731e+13	1.654122e+14	1.196558e+14	5.695290e+03	4.516050e+03	2.629907e+03	0	3.691681e-04
9.200000e+08	6.948107e+11	0.000000e+00	4.088049e-01	2.720654e+13	1.651941e+14	1.191095e+14	5.685600e+03	4.515068e+03	2.629334e+03	0	3.670332e-04
9.300000e+08	6.829166e+11	0.000000e+00	4.088049e-01	2.682532e+13	1.649677e+14	1.185669e+14	5.676047e+03	4.514047e+03	2.628740e+03	0	3.649268e-04
9.400000e+08	6.713141e+11	0.000000e+00	4.088049e-01	2.645335e+13	1.647333e+14	1.180280e+14	5.666627e+03	4.512989e+03	2.628124e+03	0	3.628483e-04
9.500000e+08	6.599938e+11	0.000000e+00	4.088049e-01	2.609032e+13	1.644912e+14	1.174928e+14	5.657337e+03	4.511896e+03	2.627487e+03	0	3.607972e-04
9.600000e+08	6.489465e+11	0.000000e+00	4.088049e-01	2.573597e+13	1.642417e+14	1.169612e+14	5.648174e+03	4.510767e+03	2.626830e+03	0	3.587728e-04
9.700000e+08	6.381638e+11	0.000000e+00	4.088049e-01	2.539000e+13	1.639850e+14	1.164333e+14	5.639136e+03	4.509604e+03	2.626153e+03	0	3.567746e-04
9.800000e+08	6.276372e+11	0.000000e+00	4.088049e-01	2.505217e+13	1.637213e+14	1.159089e+14	5.630218e+03	4.508409e+03	2.625457e+03	0	3.548020e-04
9.900000e+08	6.173587e+11	0.000000e+00	4.088049e-01	2.472220e+13	1.634510e+14	1.153882e+14	5.621418e+03	4.507182e+03	2.624742e+03	0	3.528545e-04
1.000000e+09	6.073207e+11	0.000000e+00	4.088049e-01	2.439987e+13	1.631742e+14	1.148709e+14	5.612734e+03	4.505924e+03	2.624010e+03	0	3.509316e-04
1.010000e+09	5.975158e+11	0.000000e+00	4.088049e-01	2.408494e+13	1.628912e+14	1.143572e+14	5.604162e+03	4.504636e+03	2.623260e+03	0	3.490328e-04
1.020000e+09	5.879367e+11	0.000000e+00	4.088049e-01	2.377718e+13	1.626022e+14	1.138469e+14	5.595701e+03	4.503319e+03	2.622493e+03	0	3.471576e-04
1.030000e+09	5.785767e+11	0.000000e+00	4.088049e-01	2.347638e+13	1.623074e+14	1.133401e+14	5.587347e+03	4.501974e+03	2.621710e+03	0	3.453055e-04
1.040000e+09	5.694292e+11	0.000000e+00	4.088049e-01	2.318232e+13	1.620071e+14	1.128367e+14	5.579099e+03	4.500602e+03	2.620910e+03	0	3.434760e-04
1.050000e+09	5.604877e+11	0.000000e+00	4.088049e-01	2.289481e+13	1.617013e+14	1.123367e+14	5.570954e+03	4.499204e+03	2.620096e+03	0	3.416687e-04
1.060000e+09	5.517462e+11	0.000000e+00	4.088049e-01	2.261365e+13	1.613905e+14	1.118401e+14	5.562909e+03	4.497779e+03	2.619267e+03	0	3.398831e-04
1.070000e+09	5.431987e+11	0.000000e+00	4.088049e-01	2.233865e+13	1.610747e+14	1.113469e+14	5.554963e+03	4.496330e+03	2.618423e+03	0	3.381189e-04
1.080000e+09	5.348395e+11	0.000000e+00	4.088049e-01	2.206963e+13	1.607541e+14	1.108569e+14	5.547112e+03	4.494857e+03	2.617565e+03	0	3.363755e-04
1.090000e+09	5.266632e+11	0.000000e+00	4.088049e-01	2.180643e+13	1.604289e+14	1.103703e+14	5.539357e+03	4.493361e+03	2.616693e+03	0	3.346526e-04
1.100000e+09	5.186645e+11	0.000000e+00	4.088049e-01	2.154886e+13	1.600993e+14	1.098869e+14	5.531693e+03	4.491842e+03	2.615809e+03	0	3.329497e-04
1.110000e+09	5.108382e+11	0.000000e+00	4.088049e-01	2.129678e+13	1.597655e+14	1.094067e+14	5.524119e+03	4.490301e+03	2.614912e+03	0	3.312666e-04
1.120000e+09	5.031794e+11	0.000000e+00	4.088049e-01	2.105002e+13	1.594277e+14	1.089298e+14	5.516634e+03	4.488739e+03	2.614002e+03	0	3.296027e-04
1.130000e+09	4.956833e+11	0.000000e+00	4.088049e-01	2.080844e+13	1.590859e+14	1.084561e+14	5.509235e+03	4.487156e+03	2.613080e+03	0	3.279578e-04
1.140000e+09	4.883454e+11	0.000000e+00	4.088049e-01	2.057188e+13	1.587405e+14	1.079855e+14	5.501921e+03	4.485554e+03	2.612147e+03	0	3.263314e-04
1.150000e+09	4.811612e+11	0.000000e+00	4.088049e-01	2.034021e+13	1.583914e+14	1.075181e+14	5.494689e+03	4.483933e+03	2.611203e+03	0	3.247232e-04
1.160000e+09	4.741265e+11	0.000000e+00	4.088049e-01	2.011329e+13	1.580389e+14	1.070538e+14	5.487539e+03	4.482292e+03	2.610248e+03	0	3.231329e-04
1.170000e+09	4.672370e+11	0.000000e+00	4.088049e-01	1.989100e+13	1.576832e+14	1.065926e+14	5.480468e+03	4.480634e+03	2.609282e+03	0	3.215602e-04
1.180000e+09	4.604888e+11	0.000000e+00	4.088049e-01	1.967319e+13	1.573243e+14	1.061344e+14	5.473475e+03	4.478959e+03	2.608306e+03	0	3.200046e-04
1.190000e+09	4.538781e+11	0.000000e+00	4.088049e-01	1.945976e+13	1.569624e+14	1.056793e+14	5.466558e+03	4.477266e+03	2.607321e+03	0	3.184659e-04
1.200000e+09	4.474010e+11	0.000000e+00	4.088049e-01	1.925059e+13	1.565977e+14	1.052272e+14	5.459716e+03	4.475558e+03	2.606326e+03	0	3.169437e-04
1.210000e+09	4.410540e+11	0.000000e+00	4.088049e-01	1.904555e+13	1.562303e+14	1.047782e+14	5.452948e+03	4.473833e+03	2.605322e+03	0	3.154378e-04
1.220000e+09	4.348336e+11	0.000000e+00	4.088049e-01	1.884454e+13	1.558602e+14	1.043321e+14	5.446251e+03	4.472094e+03	2.604309e+03	0	3.139479e-04
1.230000e+09	4.287364e+11	0.000000e+00	4.088049e-01	1.864745e+13	1.554877e+14	1.038889e+14	5.439625e+03	4.470339e+03	2.603287e+03	0	3.124736e-04
1.240000e+09	4.227592e+11	0.000000e+00	4.088049e-01	1.845418e+13	1.551129e+14	1.034487e+14	5.433067e+03	4.468571e+03	2.602257e+03	0	3.110146e-04
1.250000e+09	4.168987e+11	0.000000e+00	4.088049e-01	1.826463e+13	1.547358e+14	1.030114e+14	5.426578e+03	4.466789e+03	2.601219e+03	0	3.095708e-04
1.260000e+09	4.111519e+11	0.000000e+00	4.088049e-01	1.807870e+13	1.543566e+14	1.025769e+14	5.420155e+03	4.464993e+03	2.600174e+03	0	3.081418e-04
1.270000e+09	4.055159e+11	0.000000e+00	4.088049e-01	1.789629e+13	1.539754e+14	1.021454e+14	5.413797e+03	4.463185e+03	2.599120e+03	0	3.067273e-04
1.280000e+09	3.999877e+11	0.000000e+00	4.088049e-01	1.771732e+13	1.535923e+14	1.017166e+14	5.407503e+03	4.461364e+03	2.598060e+03	0	3.053271e-04
1.290000e+09	3.945647e+11	0.000000e+00	4.088049e-01	1.754170e+13	1.532074e+14	1.012907e+14	5.401271e+03	4.459531e+03	2.596993e+03	0	3.039410e-04
1.300000e+09	3.892440e+11	0.000000e+00	4.088049e-01	1.736934e+13	1.528208e+14	1.008676e+14	5.395101e+03	4.457687e+03	2.595919e+03	0	3.025686e-04
1.310000e+09	3.840232e+11	0.000000e+00	4.088049e-01	1.720016e+13	1.524326e+14	1.004472e+14	5.388992e+03	4.455832e+03	2.594839e+03	0	3.012097e-04
1.320000e+09	3.788996e+11	0.000000e+00	4.088049e-01	1.703408e+13	1.520430e+14	1.000296e+14	5.382942e+03	4.453966e+03	2.593752e+03	0	2.998642e-04
1.330000e+09	3.738709e+11	0.000000e+00	4.088049e-01	1.687103e+13	1.516519e+14	9.961477e+13	5.376950e+03	4.452090e+03	2.592660e+03	0	2.985316e-04
1.340000e+09	3.689346e+11	0.000000e+00	4.088049e-01	1.671092e+13	1.512595e+14	9.920262e+13	5.371015e+03	4.450204e+03	2.591561e+03	0	2.972120e-04
1.350000e+09	3.640885e+11	0.000000e+00	4.088049e-01	1.655368e+13	1.508659e+14	9.879316e+13	5.365137e+03	4.448308e+03	2.590457e+03	0	2.959049e-04
1.360000e+09	3.593303e+11	0.000000e+00	4.088049e-01	1.639925e+13	1.504712e+14	9.838636e+13	5.359314e+03	4.446404e+03	2.589348e+03	0	2.946102e-04
