#t		Qconv[W]	Ri[Rp]		R*[Rp]		Qc[W]		Qm[W]		Qr[W]		Tcmb[K]		Tl[K]		Tup[K]		RiFlag		Bs[T]
0.000000e+00	9.160375e+12	0.000000e+00	4.000002e-01	2.569249e+14	8.207082e+13	2.566351e+14	9.072323e+03	4.136468e+03	2.437761e+03	0	8.670249e-04
1.000000e+07	8.816041e+12	0.000000e+00	4.000002e-01	2.477293e+14	8.434948e+13	2.552131e+14	9.004047e+03	4.153491e+03	2.447793e+03	0	8.560222e-04
2.000000e+07	8.491654e+12	0.000000e+00	4.000002e-01	2.390638e+14	8.660545e+13	2.538018e+14	8.938182e+03	4.170003e+03	2.457525e+03	0	8.453916e-04
3.000000e+07	8.185610e+12	0.000000e+00	4.000002e-01	2.308858e+14	8.883827e+13	2.524010e+14	8.874591e+03	4.186027e+03	2.466968e+03	0	8.351110e-04
4.000000e+07	7.896472e+12	0.000000e+00	4.000002e-01	2.231573e+14	9.104753e+13	2.510107e+14	8.813148e+03	4.201584e+03	2.476137e+03	0	8.251601e-04
5.000000e+07	7.622945e+12	0.000000e+00	4.000002e-01	2.158438e+14	9.323279e+13	2.496308e+14	8.753737e+03	4.216693e+03	2.485041e+03	0	8.155203e-04
6.000000e+07	7.363858e+12	0.000000e+00	4.000002e-01	2.089144e+14	9.539366e+13	2.482611e+14	8.696250e+03	4.231372e+03	2.493691e+03	0	8.061743e-04
7.000000e+07	7.118155e+12	0.000000e+00	4.000002e-01	2.023411e+14	9.752978e+13	2.469017e+14	8.640587e+03	4.245636e+03	2.502098e+03	0	7.971064e-04
8.000000e+07	6.884876e+12	0.000000e+00	4.000002e-01	1.960982e+14	9.964082e+13	2.455524e+14	8.586655e+03	4.259503e+03	2.510270e+03	0	7.883018e-04
9.000000e+07	6.663150e+12	0.000000e+00	4.000002e-01	1.901628e+14	1.017264e+14	2.442130e+14	8.534369e+03	4.272986e+03	2.518216e+03	0	7.797470e-04
1.000000e+08	6.452182e+12	0.000000e+00	4.000002e-01	1.845138e+14	1.037863e+14	2.428837e+14	8.483648e+03	4.286098e+03	2.525944e+03	0	7.714291e-04
1.100000e+08	6.251250e+12	0.000000e+00	4.000002e-01	1.791319e+14	1.058202e+14	2.415642e+14	8.434418e+03	4.298854e+03	2.533461e+03	0	7.633367e-04
1.200000e+08	6.059691e+12	0.000000e+00	4.000002e-01	1.739996e+14	1.078277e+14	2.402545e+14	8.386608e+03	4.311263e+03	2.540774e+03	0	7.554586e-04
1.300000e+08	5.876899e+12	0.000000e+00	4.000002e-01	1.691007e+14	1.098087e+14	2.389544e+14	8.340155e+03	4.323339e+03	2.547891e+03	0	7.477847e-04
1.400000e+08	5.702319e+12	0.000000e+00	4.000002e-01	1.644206e+14	1.117630e+14	2.376640e+14	8.294997e+03	4.335092e+03	2.554817e+03	0	7.403055e-04
1.500000e+08	5.535439e+12	0.000000e+00	4.000002e-01	1.599457e+14	1.136903e+14	2.363832e+14	8.251076e+03	4.346531e+03	2.561558e+03	0	7.330122e-04
1.600000e+08	5.375790e+12	0.000000e+00	4.000002e-01	1.556634e+14	1.155904e+14	2.351118e+14	8.208338e+03	4.357666e+03	2.568121e+03	0	7.258963e-04
1.700000e+08	5.222938e+12	0.000000e+00	4.000002e-01	1.515623e+14	1.174631e+14	2.338498e+14	8.166735e+03	4.368507e+03	2.574510e+03	0	7.189502e-04
1.800000e+08	5.076483e+12	0.000000e+00	4.000002e-01	1.476317e+14	1.193084e+14	2.325970e+14	8.126217e+03	4.379062e+03	2.580730e+03	0	7.121664e-04
1.900000e+08	4.936056e+12	0.000000e+00	4.000002e-01	1.438618e+14	1.211261e+14	2.313536e+14	8.086741e+03	4.389339e+03	2.586787e+03	0	7.055382e-04
2.000000e+08	4.801315e+12	0.000000e+00	4.000002e-01	1.402436e+14	1.229159e+14	2.301192e+14	8.048263e+03	4.399346e+03	2.592684e+03	0	6.990591e-04
2.100000e+08	4.671941e+12	0.000000e+00	4.000002e-01	1.367685e+14	1.246780e+14	2.288940e+14	8.010745e+03	4.409091e+03	2.598427e+03	0	6.927230e-04
2.200000e+08	4.547640e+12	0.000000e+00	4.000002e-01	1.334287e+14	1.264121e+14	2.276777e+14	7.974149e+03	4.418580e+03	2.604020e+03	0	6.865242e-04
2.300000e+08	4.428139e+12	0.000000e+00	4.000002e-01	1.302170e+14	1.281181e+14	2.264704e+14	7.938439e+03	4.427821e+03	2.609466e+03	0	6.804574e-04
2.400000e+08	4.313182e+12	0.000000e+00	4.000002e-01	1.271266e+14	1.297961e+14	2.252719e+14	7.903581e+03	4.436820e+03	2.614769e+03	0	6.745173e-04
2.500000e+08	4.202533e+12	0.000000e+00	4.000002e-01	1.241512e+14	1.314461e+14	2.240822e+14	7.869544e+03	4.445584e+03	2.619934e+03	0	6.686993e-04
2.600000e+08	4.095969e+12	0.000000e+00	4.000002e-01	1.212848e+14	1.330679e+14	2.229012e+14	7.836297e+03	4.454117e+03	2.624963e+03	0	6.629988e-04
2.700000e+08	3.993284e+12	0.000000e+00	4.000002e-01	1.185220e+14	1.346615e+14	2.217288e+14	7.803812e+03	4.462427e+03	2.629860e+03	0	6.574114e-04
2.800000e+08	3.894285e+12	0.000000e+00	4.000002e-01	1.158577e+14	1.362271e+14	2.205650e+14	7.772061e+03	4.470519e+03	2.634629e+03	0	6.519332e-04
2.900000e+08	3.798790e+12	0.000000e+00	4.000002e-01	1.132869e+14	1.377645e+14	2.194097e+14	7.741018e+03	4.478397e+03	2.639272e+03	0	6.465602e-04
3.000000e+08	3.706631e+12	0.000000e+00	4.000002e-01	1.108053e+14	1.392739e+14	2.182628e+14	7.710659e+03	4.486068e+03	2.643792e+03	0	6.412887e-04
3.100000e+08	3.617647e+12	0.000000e+00	4.000002e-01	1.084085e+14	1.407553e+14	2.171243e+14	7.680960e+03	4.493535e+03	2.648193e+03	0	6.361154e-04
3.200000e+08	3.531691e+12	0.000000e+00	4.000002e-01	1.060927e+14	1.422088e+14	2.159940e+14	7.651899e+03	4.500805e+03	2.652478e+03	0	6.310369e-04
3.300000e+08	3.448621e+12	0.000000e+00	4.000002e-01	1.038540e+14	1.436343e+14	2.148720e+14	7.623454e+03	4.507882e+03	2.656648e+03	0	6.260500e-04
3.400000e+08	3.368307e+12	0.000000e+00	4.000002e-01	1.016889e+14	1.450321e+14	2.137581e+14	7.595605e+03	4.514769e+03	2.660707e+03	0	6.211517e-04
3.500000e+08	3.290623e+12	0.000000e+00	4.000002e-01	9.959424e+13	1.464023e+14	2.126523e+14	7.568333e+03	4.521472e+03	2.664657e+03	0	6.163393e-04
3.600000e+08	3.215453e+12	0.000000e+00	4.000002e-01	9.756679e+13	1.477448e+14	2.115545e+14	7.541619e+03	4.527994e+03	2.668501e+03	0	6.116100e-04
3.700000e+08	3.142687e+12	0.000000e+00	4.000002e-01	9.560364e+13	1.490599e+14	2.104647e+14	7.515445e+03	4.534340e+03	2.672241e+03	0	6.069611e-04
3.800000e+08	3.072221e+12	0.000000e+00	4.000002e-01	9.370203e+13	1.503477e+14	2.093828e+14	7.489794e+03	4.540514e+03	2.675879e+03	0	6.023903e-04
3.900000e+08	3.003956e+12	0.000000e+00	4.000002e-01	9.185932e+13	1.516083e+14	2.083086e+14	7.464650e+03	4.546519e+03	2.679419e+03	0	5.978951e-04
4.000000e+08	2.937800e+12	0.000000e+00	4.000002e-01	9.007305e+13	1.528420e+14	2.072423e+14	7.439997e+03	4.552360e+03	2.682860e+03	0	5.934734e-04
4.100000e+08	2.873665e+12	0.000000e+00	4.000002e-01	8.834089e+13	1.540487e+14	2.061836e+14	7.415821e+03	4.558039e+03	2.686207e+03	0	5.891229e-04
4.200000e+08	2.811468e+12	0.000000e+00	4.000002e-01	8.666061e+13	1.552289e+14	2.051325e+14	7.392106e+03	4.563560e+03	2.689461e+03	0	5.848416e-04
4.300000e+08	2.751130e+12	0.000000e+00	4.000002e-01	8.503011e+13	1.563825e+14	2.040891e+14	7.368840e+03	4.568928e+03	2.692624e+03	0	5.806274e-04
4.400000e+08	2.692577e+12	0.000000e+00	4.000002e-01	8.344740e+13	1.575098e+14	2.030531e+14	7.346009e+03	4.574144e+03	2.695699e+03	0	5.764786e-04
4.500000e+08	2.635737e+12	0.000000e+00	4.000002e-01	8.191061e+13	1.586109e+14	2.020246e+14	7.323601e+03	4.579212e+03	2.698686e+03	0	5.723933e-04
4.600000e+08	2.580544e+12	0.000000e+00	4.000002e-01	8.041792e+13	1.596862e+14	2.010034e+14	7.301602e+03	4.584136e+03	2.701587e+03	0	5.683697e-04
4.700000e+08	2.526934e+12	0.000000e+00	4.000002e-01	7.896766e+13	1.607358e+14	1.999896e+14	7.280002e+03	4.588918e+03	2.704406e+03	0	5.644062e-04
4.800000e+08	2.474846e+12	0.000000e+00	4.000002e-01	7.755818e+13	1.617600e+14	1.989831e+14	7.258790e+03	4.593562e+03	2.707142e+03	0	5.605012e-04
4.900000e+08	2.424223e+12	0.000000e+00	4.000002e-01	7.618796e+13	1.627588e+14	1.979837e+14	7.237954e+03	4.598070e+03	2.709799e+03	0	5.566531e-04
5.000000e+08	2.375009e+12	0.000000e+00	4.000002e-01	7.485553e+13	1.637327e+14	1.969915e+14	7.217484e+03	4.602445e+03	2.712378e+03	0	5.528605e-04
5.100000e+08	2.327152e+12	0.000000e+00	4.000002e-01	7.355949e+13	1.646817e+14	1.960064e+14	7.197370e+03	4.606690e+03	2.714879e+03	0	5.491219e-04
5.200000e+08	2.280603e+12	0.000000e+00	4.000002e-01	7.229852e+13	1.656063e+14	1.950283e+14	7.177602e+03	4.610808e+03	2.717306e+03	0	5.454359e-04
5.300000e+08	2.235314e+12	0.000000e+00	4.000002e-01	7.107135e+13	1.665065e+14	1.940572e+14	7.158171e+03	4.614801e+03	2.719659e+03	0	5.418012e-04
5.400000e+08	2.191239e+12	0.000000e+00	4.000002e-01	6.987677e+13	1.673827e+14	1.930930e+14	7.139068e+03	4.618672e+03	2.721941e+03	0	5.382166e-04
5.500000e+08	2.148337e+12	0.000000e+00	4.000002e-01	6.871363e+13	1.682351e+14	1.921357e+14	7.120285e+03	4.622423e+03	2.724151e+03	0	5.346808e-04
5.600000e+08	2.106565e+12	0.000000e+00	4.000002e-01	6.758082e+13	1.690640e+14	1.911852e+14	7.101813e+03	4.626058e+03	2.726293e+03	0	5.311927e-04
5.700000e+08	2.065884e+12	0.000000e+00	4.000002e-01	6.647730e+13	1.698695e+14	1.902414e+14	7.083643e+03	4.629577e+03	2.728367e+03	0	5.277511e-04
5.800000e+08	2.026256e+12	0.000000e+00	4.000002e-01	6.540205e+13	1.706521e+14	1.893043e+14	7.065769e+03	4.632984e+03	2.730375e+03	0	5.243548e-04
5.900000e+08	1.987645e+12	0.000000e+00	4.000002e-01	6.435412e+13	1.714119e+14	1.883739e+14	7.048183e+03	4.636281e+03	2.732318e+03	0	5.210029e-04
6.000000e+08	1.950018e+12	0.000000e+00	4.000002e-01	6.333258e+13	1.721493e+14	1.874500e+14	7.030877e+03	4.639469e+03	2.734197e+03	0	5.176943e-04
6.100000e+08	1.913340e+12	0.000000e+00	4.000002e-01	6.233655e+13	1.728645e+14	1.865327e+14	7.013844e+03	4.642552e+03	2.736014e+03	0	5.144280e-04
6.200000e+08	1.877581e+12	0.000000e+00	4.000002e-01	6.136519e+13	1.735578e+14	1.856219e+14	6.997077e+03	4.645532e+03	2.737770e+03	0	5.112030e-04
6.300000e+08	1.842710e+12	0.000000e+00	4.000002e-01	6.041770e+13	1.742294e+14	1.847175e+14	6.980571e+03	4.648410e+03	2.739466e+03	0	5.080185e-04
6.400000e+08	1.808698e+12	0.000000e+00	4.000002e-01	5.949328e+13	1.748796e+14	1.838194e+14	6.964318e+03	4.651189e+03	2.741104e+03	0	5.048734e-04
6.500000e+08	1.775518e+12	0.000000e+00	4.000002e-01	5.859121e+13	1.755088e+14	1.829277e+14	6.948313e+03	4.653870e+03	2.742684e+03	0	5.017671e-04
6.600000e+08	1.743142e+12	0.000000e+00	4.000002e-01	5.771077e+13	1.761172e+14	1.820423e+14	6.932550e+03	4.656455e+03	2.744208e+03	0	4.986985e-04
6.700000e+08	1.711545e+12	0.000000e+00	4.000002e-01	5.685127e+13	1.767051e+14	1.811631e+14	6.917022e+03	4.658948e+03	2.745676e+03	0	4.956669e-04
6.800000e+08	1.680703e+12	0.000000e+00	4.000002e-01	5.601206e+13	1.772727e+14	1.802901e+14	6.901724e+03	4.661348e+03	2.747091e+03	0	4.926715e-04
6.900000e+08	1.650592e+12	0.000000e+00	4.000002e-01	5.519250e+13	1.778204e+14	1.794232e+14	6.886651e+03	4.663659e+03	2.748453e+03	0	4.897116e-04
7.000000e+08	1.621189e+12	0.000000e+00	4.000002e-01	5.439200e+13	1.783484e+14	1.785624e+14	6.871798e+03	4.665881e+03	2.749763e+03	0	4.867863e-04
7.100000e+08	1.592472e+12	0.000000e+00	4.000002e-01	5.360996e+13	1.788570e+14	1.777076e+14	6.857159e+03	4.668018e+03	2.751022e+03	0	4.838950e-04
7.200000e+08	1.564421e+12	0.000000e+00	4.000002e-01	5.284582e+13	1.793465e+14	1.768588e+14	6.842730e+03	4.670070e+03	2.752231e+03	0	4.810369e-04
7.300000e+08	1.537016e+12	0.000000e+00	4.000002e-01	5.209906e+13	1.798173e+14	1.760159e+14	6.828505e+03	4.672039e+03	2.753392e+03	0	4.782114e-04
7.400000e+08	1.510237e+12	0.000000e+00	4.000002e-01	5.136914e+13	1.802694e+14	1.751789e+14	6.814480e+03	4.673927e+03	2.754504e+03	0	4.754179e-04
7.500000e+08	1.484065e+12	0.000000e+00	4.000002e-01	5.065557e+13	1.807034e+14	1.743477e+14	6.800652e+03	4.675735e+03	2.755570e+03	0	4.726555e-04
7.600000e+08	1.458482e+12	0.000000e+00	4.000002e-01	4.995786e+13	1.811193e+14	1.735223e+14	6.787014e+03	4.677466e+03	2.756590e+03	0	4.699239e-04
7.700000e+08	1.433472e+12	0.000000e+00	4.000002e-01	4.927556e+13	1.815176e+14	1.727027e+14	6.773564e+03	4.679120e+03	2.757565e+03	0	4.672223e-04
7.800000e+08	1.409017e+12	0.000000e+00	4.000002e-01	4.860822e+13	1.818985e+14	1.718887e+14	6.760296e+03	4.680700e+03	2.758495e+03	0	4.645501e-04
7.900000e+08	1.385101e+12	0.000000e+00	4.000002e-01	4.795540e+13	1.822623e+14	1.710805e+14	6.747207e+03	4.682206e+03	2.759383e+03	0	4.619068e-04
8.000000e+08	1.361709e+12	0.000000e+00	4.000002e-01	4.731669e+13	1.826091e+14	1.702778e+14	6.734294e+03	4.683640e+03	2.760228e+03	0	4.592917e-04
8.100000e+08	1.338827e+12	0.000000e+00	4.000002e-01	4.669170e+13	1.829395e+14	1.694807e+14	6.721551e+03	4.685003e+03	2.761032e+03	0	4.567045e-04
8.200000e+08	1.316439e+12	0.000000e+00	4.000002e-01	4.608003e+13	1.832535e+14	1.686891e+14	6.708977e+03	4.686298e+03	2.761795e+03	0	4.541445e-04
8.300000e+08	1.294531e+12	0.000000e+00	4.000002e-01	4.548132e+13	1.835515e+14	1.679029e+14	6.696566e+03	4.687525e+03	2.762518e+03	0	4.516112e-04
8.400000e+08	1.273091e+12	0.000000e+00	4.000002e-01	4.489520e+13	1.838337e+14	1.671222e+14	6.684316e+03	4.688686e+03	2.763202e+03	0	4.491041e-04
8.500000e+08	1.252105e+12	0.000000e+00	4.000002e-01	4.432133e+13	1.841005e+14	1.663469e+14	6.672223e+03	4.689782e+03	2.763848e+03	0	4.466227e-04
8.600000e+08	1.231561e+12	0.000000e+00	4.000002e-01	4.375936e+13	1.843520e+14	1.655770e+14	6.660284e+03	4.690815e+03	2.764457e+03	0	4.441665e-04
8.700000e+08	1.211447e+12	0.000000e+00	4.000002e-01	4.320899e+13	1.845886e+14	1.648123e+14	6.648496e+03	4.691785e+03	2.765028e+03	0	4.417351e-04
8.800000e+08	1.191751e+12	0.000000e+00	4.000002e-01	4.266988e+13	1.848104e+14	1.640529e+14	6.636856e+03	4.692693e+03	2.765564e+03	0	4.393281e-04
8.900000e+08	1.172461e+12	0.000000e+00	4.000002e-01	4.214175e+13	1.850179e+14	1.632987e+14	6.625360e+03	4.693543e+03	2.766064e+03	0	4.369449e-04
9.000000e+08	1.153567e+12	0.000000e+00	4.000002e-01	4.162430e+13	1.852112e+14	1.625497e+14	6.614006e+03	4.694333e+03	2.766530e+03	0	4.345851e-04
9.100000e+08	1.135059e+12	0.000000e+00	4.000002e-01	4.111724e+13	1.853906e+14	1.618058e+14	6.602791e+03	4.695066e+03	2.766962e+03	0	4.322483e-04
9.200000e+08	1.116926e+12	0.000000e+00	4.000002e-01	4.062031e+13	1.855563e+14	1.610670e+14	6.591712e+03	4.695743e+03	2.767361e+03	0	4.299341e-04
9.300000e+08	1.099158e+12	0.000000e+00	4.000002e-01	4.013323e+13	1.857086e+14	1.603333e+14	6.580767e+03	4.696364e+03	2.767727e+03	0	4.276421e-04
9.400000e+08	1.081745e+12	0.000000e+00	4.000002e-01	3.965575e+13	1.858477e+14	1.596046e+14	6.569952e+03	4.696932e+03	2.768062e+03	0	4.253719e-04
9.500000e+08	1.064679e+12	0.000000e+00	4.000002e-01	3.918762e+13	1.859739e+14	1.588808e+14	6.559265e+03	4.697446e+03	2.768365e+03	0	4.231231e-04
9.600000e+08	1.047951e+12	0.000000e+00	4.000002e-01	3.872861e+13	1.860875e+14	1.581620e+14	6.548704e+03	4.697909e+03	2.768638e+03	0	4.208953e-04
9.700000e+08	1.031551e+12	0.000000e+00	4.000002e-01	3.827847e+13	1.861886e+14	1.574481e+14	6.538267e+03	4.698321e+03	2.768880e+03	0	4.186882e-04
9.800000e+08	1.015472e+12	0.000000e+00	4.000002e-01	3.783699e+13	1.862775e+14	1.567391e+14	6.527950e+03	4.698683e+03	2.769094e+03	0	4.165014e-04
9.900000e+08	9.997049e+11	0.000000e+00	4.000002e-01	3.740395e+13	1.863545e+14	1.560348e+14	6.517752e+03	4.698996e+03	2.769278e+03	0	4.143345e-04
1.000000e+09	9.842424e+11	0.000000e+00	4.000002e-01	3.697913e+13	1.864198e+14	1.553354e+14	6.507670e+03	4.699262e+03	2.769435e+03	0	4.121872e-04
1.010000e+09	9.690766e+11	0.000000e+00	4.000002e-01	3.656233e+13	1.864735e+14	1.546407e+14	6.497702e+03	4.699480e+03	2.769564e+03	0	4.100592e-04
1.020000e+09	9.542002e+11	0.000000e+00	4.000002e-01	3.615334e+13	1.865160e+14	1.539507e+14	6.487846e+03	4.699653e+03	2.769665e+03	0	4.079501e-04
1.030000e+09	9.396060e+11	0.000000e+00	4.000002e-01	3.575199e+13	1.865475e+14	1.532653e+14	6.478100e+03	4.699781e+03	2.769741e+03	0	4.058595e-04
1.040000e+09	9.252871e+11	0.000000e+00	4.000002e-01	3.535808e+13	1.865681e+14	1.525846e+14	6.468462e+03	4.699865e+03	2.769790e+03	0	4.037873e-04
1.050000e+09	9.112367e+11	0.000000e+00	4.000002e-01	3.497143e+13	1.865781e+14	1.519085e+14	6.458929e+03	4.699906e+03	2.769814e+03	0	4.017330e-04
1.060000e+09	8.974482e+11	0.000000e+00	4.000002e-01	3.459186e+13	1.865778e+14	1.512370e+14	6.449501e+03	4.699904e+03	2.769814e+03	0	3.996964e-04
1.070000e+09	8.839152e+11	0.000000e+00	4.000002e-01	3.421920e+13	1.865673e+14	1.505699e+14	6.440174e+03	4.699862e+03	2.769788e+03	0	3.976772e-04
1.080000e+09	8.706318e+11	0.000000e+00	4.000002e-01	3.385329e+13	1.865468e+14	1.499074e+14	6.430948e+03	4.699778e+03	2.769739e+03	0	3.956751e-04
1.090000e+09	8.575917e+11	0.000000e+00	4.000002e-01	3.349396e+13	1.865166e+14	1.492493e+14	6.421820e+03	4.699656e+03	2.769667e+03	0	3.936897e-04
1.100000e+09	8.447893e+11	0.000000e+00	4.000002e-01	3.314107e+13	1.864769e+14	1.485957e+14	6.412788e+03	4.699494e+03	2.769572e+03	0	3.917208e-04
1.110000e+09	8.322189e+11	0.000000e+00	4.000002e-01	3.279445e+13	1.864278e+14	1.479464e+14	6.403852e+03	4.699294e+03	2.769454e+03	0	3.897682e-04
1.120000e+09	8.198751e+11	0.000000e+00	4.000002e-01	3.245397e+13	1.863695e+14	1.473015e+14	6.395008e+03	4.699057e+03	2.769314e+03	0	3.878315e-04
1.130000e+09	8.077524e+11	0.000000e+00	4.000002e-01	3.211947e+13	1.863023e+14	1.466609e+14	6.386256e+03	4.698784e+03	2.769153e+03	0	3.859105e-04
1.140000e+09	7.958457e+11	0.000000e+00	4.000002e-01	3.179083e+13	1.862264e+14	1.460245e+14	6.377594e+03	4.698475e+03	2.768971e+03	0	3.840049e-04
1.150000e+09	7.841501e+11	0.000000e+00	4.000002e-01	3.146789e+13	1.861419e+14	1.453924e+14	6.369021e+03	4.698130e+03	2.768768e+03	0	3.821145e-04
1.160000e+09	7.726606e+11	0.000000e+00	4.000002e-01	3.115054e+13	1.860490e+14	1.447646e+14	6.360534e+03	4.697752e+03	2.768545e+03	0	3.802391e-04
1.170000e+09	7.613725e+11	0.000000e+00	4.000002e-01	3.083864e+13	1.859479e+14	1.441409e+14	6.352132e+03	4.697340e+03	2.768302e+03	0	3.783783e-04
1.180000e+09	7.502812e+11	0.000000e+00	4.000002e-01	3.053208e+13	1.858388e+14	1.435214e+14	6.343814e+03	4.696895e+03	2.768040e+03	0	3.765320e-04
1.190000e+09	7.393821e+11	0.000000e+00	4.000002e-01	3.023073e+13	1.857219e+14	1.429060e+14	6.335579e+03	4.696419e+03	2.767759e+03	0	3.746998e-04
1.200000e+09	7.286711e+11	0.000000e+00	4.000002e-01	2.993446e+13	1.855973e+14	1.422946e+14	6.327425e+03	4.695910e+03	2.767460e+03	0	3.728816e-04
1.210000e+09	7.181437e+11	0.000000e+00	4.000002e-01	2.964318e+13	1.854653e+14	1.416874e+14	6.319350e+03	4.695371e+03	2.767142e+03	0	3.710772e-04
1.220000e+09	7.077959e+11	0.000000e+00	4.000002e-01	2.935677e+13	1.853259e+14	1.410841e+14	6.311354e+03	4.694802e+03	2.766807e+03	0	3.692863e-04
1.230000e+09	6.976237e+11	0.000000e+00	4.000002e-01	2.907512e+13	1.851794e+14	1.404848e+14	6.303435e+03	4.694203e+03	2.766454e+03	0	3.675087e-04
1.240000e+09	6.876231e+11	0.000000e+00	4.000002e-01	2.879812e+13	1.850260e+14	1.398895e+14	6.295591e+03	4.693576e+03	2.766084e+03	0	3.657441e-04
1.250000e+09	6.777905e+11	0.000000e+00	4.000002e-01	2.852567e+13	1.848657e+14	1.392982e+14	6.287822e+03	4.692920e+03	2.765697e+03	0	3.639924e-04
1.260000e+09	6.681220e+11	0.000000e+00	4.000002e-01	2.825768e+13	1.846988e+14	1.387107e+14	6.280126e+03	4.692236e+03	2.765294e+03	0	3.622534e-04
1.270000e+09	6.586141e+11	0.000000e+00	4.000002e-01	2.799405e+13	1.845254e+14	1.381271e+14	6.272503e+03	4.691525e+03	2.764876e+03	0	3.605268e-04
1.280000e+09	6.492633e+11	0.000000e+00	4.000002e-01	2.773468e+13	1.843456e+14	1.375473e+14	6.264950e+03	4.690788e+03	2.764441e+03	0	3.588124e-04
1.290000e+09	6.400662e+11	0.000000e+00	4.000002e-01	2.747947e+13	1.841597e+14	1.369714e+14	6.257467e+03	4.690025e+03	2.763991e+03	0	3.571101e-04
1.300000e+09	6.310194e+11	0.000000e+00	4.000002e-01	2.722835e+13	1.839677e+14	1.363992e+14	6.250052e+03	4.689237e+03	2.763527e+03	0	3.554196e-04
1.310000e+09	6.221198e+11	0.000000e+00	4.000002e-01	2.698123e+13	1.837698e+14	1.358308e+14	6.242706e+03	4.688424e+03	2.763048e+03	0	3.537408e-04
1.320000e+09	6.133641e+11	0.000000e+00	4.000002e-01	2.673801e+13	1.835662e+14	1.352661e+14	6.235425e+03	4.687586e+03	2.762554e+03	0	3.520735e-04
1.330000e+09	6.047494e+11	0.000000e+00	4.000002e-01	2.649862e+13	1.833570e+14	1.347051e+14	6.228210e+03	4.686725e+03	2.762046e+03	0	3.504174e-04
1.340000e+09	5.962726e+11	0.000000e+00	4.000002e-01	2.626298e+13	1.831423e+14	1.341478e+14	6.221060e+03	4.685840e+03	2.761525e+03	0	3.487724e-04
1.350000e+09	5.879308e+11	0.000000e+00	4.000002e-01	2.603100e+13	1.829224e+14	1.335941e+14	6.213973e+03	4.684933e+03	2.760990e+03	0	3.471383e-04
1.360000e+09	5.797212e+11	0.000000e+00	4.000002e-01	2.580262e+13	1.826972e+14	1.330440e+14	6.206948e+03	4.684003e+03	2.760443e+03	0	3.455150e-04
