#t		Qconv[W]	Ri[Rp]		R*[Rp]		Qc[W]		Qm[W]		Qr[W]		Tcmb[K]		Tl[K]		Tup[K]		RiFlag		Bs[T]
0.000000e+00	1.618747e+13	0.000000e+00	3.962265e-01	3.969344e+14	8.000462e+13	3.297668e+14	1.094631e+04	4.621281e+03	2.558424e+03	0	1.044533e-03
1.000000e+07	1.559528e+13	0.000000e+00	3.962265e-01	3.833150e+14	8.247725e+13	3.279397e+14	1.086525e+04	4.641796e+03	2.569781e+03	0	1.031637e-03
2.000000e+07	1.503640e+13	0.000000e+00	3.962265e-01	3.704568e+14	8.493686e+13	3.261262e+14	1.078694e+04	4.661740e+03	2.580823e+03	0	1.019163e-03
3.000000e+07	1.450825e+13	0.000000e+00	3.962265e-01	3.583006e+14	8.738270e+13	3.243262e+14	1.071123e+04	4.681140e+03	2.591563e+03	0	1.007088e-03
4.000000e+07	1.400847e+13	0.000000e+00	3.962265e-01	3.467929e+14	8.981411e+13	3.225397e+14	1.063796e+04	4.700019e+03	2.602015e+03	0	9.953887e-04
5.000000e+07	1.353495e+13	0.000000e+00	3.962265e-01	3.358854e+14	9.223042e+13	3.207666e+14	1.056702e+04	4.718397e+03	2.612189e+03	0	9.840443e-04
6.000000e+07	1.308576e+13	0.000000e+00	3.962265e-01	3.255343e+14	9.463101e+13	3.190066e+14	1.049829e+04	4.736295e+03	2.622098e+03	0	9.730356e-04
7.000000e+07	1.265916e+13	0.000000e+00	3.962265e-01	3.157000e+14	9.701528e+13	3.172598e+14	1.043164e+04	4.753732e+03	2.631751e+03	0	9.623448e-04
8.000000e+07	1.225358e+13	0.000000e+00	3.962265e-01	3.063465e+14	9.938264e+13	3.155259e+14	1.036699e+04	4.770725e+03	2.641159e+03	0	9.519556e-04
9.000000e+07	1.186756e+13	0.000000e+00	3.962265e-01	2.974409e+14	1.017325e+14	3.138050e+14	1.030424e+04	4.787290e+03	2.650329e+03	0	9.418525e-04
1.000000e+08	1.149980e+13	0.000000e+00	3.962265e-01	2.889531e+14	1.040645e+14	3.120968e+14	1.024328e+04	4.803442e+03	2.659272e+03	0	9.320214e-04
1.100000e+08	1.114910e+13	0.000000e+00	3.962265e-01	2.808558e+14	1.063779e+14	3.104013e+14	1.018405e+04	4.819196e+03	2.667993e+03	0	9.224489e-04
1.200000e+08	1.081434e+13	0.000000e+00	3.962265e-01	2.731239e+14	1.086723e+14	3.087183e+14	1.012646e+04	4.834566e+03	2.676502e+03	0	9.131227e-04
1.300000e+08	1.049453e+13	0.000000e+00	3.962265e-01	2.657342e+14	1.109473e+14	3.070478e+14	1.007044e+04	4.849563e+03	2.684805e+03	0	9.040313e-04
1.400000e+08	1.018873e+13	0.000000e+00	3.962265e-01	2.586657e+14	1.132023e+14	3.053897e+14	1.001593e+04	4.864200e+03	2.692908e+03	0	8.951638e-04
1.500000e+08	9.896092e+12	0.000000e+00	3.962265e-01	2.518986e+14	1.154371e+14	3.037439e+14	9.962843e+03	4.878488e+03	2.700818e+03	0	8.865101e-04
1.600000e+08	9.615821e+12	0.000000e+00	3.962265e-01	2.454152e+14	1.176510e+14	3.021102e+14	9.911135e+03	4.892437e+03	2.708541e+03	0	8.780607e-04
1.700000e+08	9.347191e+12	0.000000e+00	3.962265e-01	2.391988e+14	1.198439e+14	3.004885e+14	9.860745e+03	4.906059e+03	2.716082e+03	0	8.698068e-04
1.800000e+08	9.089529e+12	0.000000e+00	3.962265e-01	2.332339e+14	1.220152e+14	2.988788e+14	9.811620e+03	4.919361e+03	2.723447e+03	0	8.617399e-04
1.900000e+08	8.842214e+12	0.000000e+00	3.962265e-01	2.275064e+14	1.241648e+14	2.972810e+14	9.763709e+03	4.932354e+03	2.730640e+03	0	8.538523e-04
2.000000e+08	8.604667e+12	0.000000e+00	3.962265e-01	2.220031e+14	1.262921e+14	2.956949e+14	9.716964e+03	4.945046e+03	2.737666e+03	0	8.461366e-04
2.100000e+08	8.376353e+12	0.000000e+00	3.962265e-01	2.167116e+14	1.283969e+14	2.941205e+14	9.671340e+03	4.957445e+03	2.744530e+03	0	8.385856e-04
2.200000e+08	8.156772e+12	0.000000e+00	3.962265e-01	2.116208e+14	1.304789e+14	2.925576e+14	9.626794e+03	4.969559e+03	2.751237e+03	0	8.311930e-04
2.300000e+08	7.945461e+12	0.000000e+00	3.962265e-01	2.067198e+14	1.325379e+14	2.910062e+14	9.583286e+03	4.981396e+03	2.757790e+03	0	8.239524e-04
2.400000e+08	7.741988e+12	0.000000e+00	3.962265e-01	2.019989e+14	1.345735e+14	2.894662e+14	9.540777e+03	4.992962e+03	2.764193e+03	0	8.168580e-04
2.500000e+08	7.545949e+12	0.000000e+00	3.962265e-01	1.974488e+14	1.365855e+14	2.879375e+14	9.499230e+03	5.004265e+03	2.770451e+03	0	8.099043e-04
2.600000e+08	7.356969e+12	0.000000e+00	3.962265e-01	1.930610e+14	1.385737e+14	2.864200e+14	9.458612e+03	5.015310e+03	2.776566e+03	0	8.030860e-04
2.700000e+08	7.174696e+12	0.000000e+00	3.962265e-01	1.888273e+14	1.405379e+14	2.849135e+14	9.418889e+03	5.026105e+03	2.782542e+03	0	7.963982e-04
2.800000e+08	6.998800e+12	0.000000e+00	3.962265e-01	1.847403e+14	1.424778e+14	2.834181e+14	9.380031e+03	5.036656e+03	2.788383e+03	0	7.898360e-04
2.900000e+08	6.828973e+12	0.000000e+00	3.962265e-01	1.807928e+14	1.443933e+14	2.819336e+14	9.342007e+03	5.046967e+03	2.794092e+03	0	7.833952e-04
3.000000e+08	6.664925e+12	0.000000e+00	3.962265e-01	1.769783e+14	1.462842e+14	2.804598e+14	9.304790e+03	5.057046e+03	2.799671e+03	0	7.770713e-04
3.100000e+08	6.506386e+12	0.000000e+00	3.962265e-01	1.732906e+14	1.481504e+14	2.789969e+14	9.268352e+03	5.066896e+03	2.805125e+03	0	7.708603e-04
3.200000e+08	6.353099e+12	0.000000e+00	3.962265e-01	1.697238e+14	1.499918e+14	2.775445e+14	9.232668e+03	5.076524e+03	2.810455e+03	0	7.647585e-04
3.300000e+08	6.204827e+12	0.000000e+00	3.962265e-01	1.662724e+14	1.518081e+14	2.761028e+14	9.197713e+03	5.085934e+03	2.815664e+03	0	7.587621e-04
3.400000e+08	6.061342e+12	0.000000e+00	3.962265e-01	1.629313e+14	1.535993e+14	2.746715e+14	9.163463e+03	5.095130e+03	2.820756e+03	0	7.528677e-04
3.500000e+08	5.922433e+12	0.000000e+00	3.962265e-01	1.596955e+14	1.553653e+14	2.732506e+14	9.129898e+03	5.104119e+03	2.825732e+03	0	7.470720e-04
3.600000e+08	5.787898e+12	0.000000e+00	3.962265e-01	1.565605e+14	1.571061e+14	2.718400e+14	9.096994e+03	5.112903e+03	2.830595e+03	0	7.413718e-04
3.700000e+08	5.657550e+12	0.000000e+00	3.962265e-01	1.535221e+14	1.588215e+14	2.704396e+14	9.064731e+03	5.121489e+03	2.835348e+03	0	7.357641e-04
3.800000e+08	5.531210e+12	0.000000e+00	3.962265e-01	1.505759e+14	1.605114e+14	2.690493e+14	9.033091e+03	5.129878e+03	2.839993e+03	0	7.302459e-04
3.900000e+08	5.408708e+12	0.000000e+00	3.962265e-01	1.477183e+14	1.621759e+14	2.676691e+14	9.002054e+03	5.138077e+03	2.844532e+03	0	7.248146e-04
4.000000e+08	5.289886e+12	0.000000e+00	3.962265e-01	1.449456e+14	1.638150e+14	2.662988e+14	8.971602e+03	5.146088e+03	2.848967e+03	0	7.194675e-04
4.100000e+08	5.174592e+12	0.000000e+00	3.962265e-01	1.422542e+14	1.654285e+14	2.649385e+14	8.941718e+03	5.153916e+03	2.853300e+03	0	7.142021e-04
4.200000e+08	5.062684e+12	0.000000e+00	3.962265e-01	1.396409e+14	1.670166e+14	2.635879e+14	8.912385e+03	5.161564e+03	2.857534e+03	0	7.090160e-04
4.300000e+08	4.954026e+12	0.000000e+00	3.962265e-01	1.371027e+14	1.685791e+14	2.622471e+14	8.883588e+03	5.169036e+03	2.861671e+03	0	7.039068e-04
4.400000e+08	4.848490e+12	0.000000e+00	3.962265e-01	1.346365e+14	1.701161e+14	2.609159e+14	8.855311e+03	5.176335e+03	2.865712e+03	0	6.988725e-04
4.500000e+08	4.745954e+12	0.000000e+00	3.962265e-01	1.322396e+14	1.716277e+14	2.595943e+14	8.827539e+03	5.183465e+03	2.869659e+03	0	6.939107e-04
4.600000e+08	4.646301e+12	0.000000e+00	3.962265e-01	1.299092e+14	1.731139e+14	2.582822e+14	8.800259e+03	5.190429e+03	2.873515e+03	0	6.890196e-04
4.700000e+08	4.549423e+12	0.000000e+00	3.962265e-01	1.276430e+14	1.745746e+14	2.569794e+14	8.773457e+03	5.197231e+03	2.877280e+03	0	6.841971e-04
4.800000e+08	4.455214e+12	0.000000e+00	3.962265e-01	1.254384e+14	1.760100e+14	2.556860e+14	8.747120e+03	5.203872e+03	2.880957e+03	0	6.794413e-04
4.900000e+08	4.363576e+12	0.000000e+00	3.962265e-01	1.232932e+14	1.774203e+14	2.544019e+14	8.721235e+03	5.210358e+03	2.884548e+03	0	6.747506e-04
5.000000e+08	4.274412e+12	0.000000e+00	3.962265e-01	1.212052e+14	1.788053e+14	2.531270e+14	8.695790e+03	5.216690e+03	2.888053e+03	0	6.701230e-04
5.100000e+08	4.187634e+12	0.000000e+00	3.962265e-01	1.191723e+14	1.801651e+14	2.518611e+14	8.670773e+03	5.222871e+03	2.891475e+03	0	6.655571e-04
5.200000e+08	4.103154e+12	0.000000e+00	3.962265e-01	1.171927e+14	1.815000e+14	2.506043e+14	8.646174e+03	5.228905e+03	2.894816e+03	0	6.610511e-04
5.300000e+08	4.020892e+12	0.000000e+00	3.962265e-01	1.152643e+14	1.828100e+14	2.493565e+14	8.621981e+03	5.234794e+03	2.898076e+03	0	6.566036e-04
5.400000e+08	3.940769e+12	0.000000e+00	3.962265e-01	1.133853e+14	1.840952e+14	2.481176e+14	8.598184e+03	5.240540e+03	2.901257e+03	0	6.522129e-04
5.500000e+08	3.862709e+12	0.000000e+00	3.962265e-01	1.115542e+14	1.853556e+14	2.468874e+14	8.574773e+03	5.246147e+03	2.904361e+03	0	6.478778e-04
5.600000e+08	3.786643e+12	0.000000e+00	3.962265e-01	1.097692e+14	1.865916e+14	2.456660e+14	8.551738e+03	5.251617e+03	2.907389e+03	0	6.435968e-04
5.700000e+08	3.712501e+12	0.000000e+00	3.962265e-01	1.080287e+14	1.878031e+14	2.444533e+14	8.529070e+03	5.256952e+03	2.910343e+03	0	6.393686e-04
5.800000e+08	3.640219e+12	0.000000e+00	3.962265e-01	1.063313e+14	1.889903e+14	2.432492e+14	8.506759e+03	5.262155e+03	2.913224e+03	0	6.351919e-04
5.900000e+08	3.569734e+12	0.000000e+00	3.962265e-01	1.046755e+14	1.901534e+14	2.420536e+14	8.484797e+03	5.267229e+03	2.916032e+03	0	6.310654e-04
6.000000e+08	3.500987e+12	0.000000e+00	3.962265e-01	1.030599e+14	1.912924e+14	2.408665e+14	8.463175e+03	5.272175e+03	2.918771e+03	0	6.269880e-04
6.100000e+08	3.433920e+12	0.000000e+00	3.962265e-01	1.014833e+14	1.924077e+14	2.396878e+14	8.441885e+03	5.276997e+03	2.921440e+03	0	6.229585e-04
6.200000e+08	3.368478e+12	0.000000e+00	3.962265e-01	9.994435e+13	1.934992e+14	2.385174e+14	8.420919e+03	5.281695e+03	2.924041e+03	0	6.189758e-04
6.300000e+08	3.304610e+12	0.000000e+00	3.962265e-01	9.844188e+13	1.945672e+14	2.373553e+14	8.400270e+03	5.286274e+03	2.926576e+03	0	6.150388e-04
6.400000e+08	3.242265e+12	0.000000e+00	3.962265e-01	9.697472e+13	1.956118e+14	2.362014e+14	8.379929e+03	5.290734e+03	2.929045e+03	0	6.111464e-04
6.500000e+08	3.181395e+12	0.000000e+00	3.962265e-01	9.554176e+13	1.966333e+14	2.350556e+14	8.359891e+03	5.295078e+03	2.931450e+03	0	6.072977e-04
6.600000e+08	3.121953e+12	0.000000e+00	3.962265e-01	9.414193e+13	1.976319e+14	2.339178e+14	8.340147e+03	5.299307e+03	2.933792e+03	0	6.034916e-04
6.700000e+08	3.063895e+12	0.000000e+00	3.962265e-01	9.277421e+13	1.986076e+14	2.327881e+14	8.320690e+03	5.303425e+03	2.936071e+03	0	5.997272e-04
6.800000e+08	3.007179e+12	0.000000e+00	3.962265e-01	9.143761e+13	1.995607e+14	2.316663e+14	8.301516e+03	5.307433e+03	2.938290e+03	0	5.960036e-04
6.900000e+08	2.951763e+12	0.000000e+00	3.962265e-01	9.013120e+13	2.004914e+14	2.305523e+14	8.282616e+03	5.311332e+03	2.940449e+03	0	5.923198e-04
7.000000e+08	2.897608e+12	0.000000e+00	3.962265e-01	8.885406e+13	2.013998e+14	2.294462e+14	8.263985e+03	5.315126e+03	2.942549e+03	0	5.886751e-04
7.100000e+08	2.844677e+12	0.000000e+00	3.962265e-01	8.760533e+13	2.022863e+14	2.283478e+14	8.245616e+03	5.318815e+03	2.944591e+03	0	5.850685e-04
7.200000e+08	2.792932e+12	0.000000e+00	3.962265e-01	8.638415e+13	2.031509e+14	2.272571e+14	8.227505e+03	5.322401e+03	2.946577e+03	0	5.814993e-04
7.300000e+08	2.742339e+12	0.000000e+00	3.962265e-01	8.518973e+13	2.039940e+14	2.261740e+14	8.209645e+03	5.325887e+03	2.948507e+03	0	5.779667e-04
7.400000e+08	2.692864e+12	0.000000e+00	3.962265e-01	8.402128e+13	2.048156e+14	2.250985e+14	8.192031e+03	5.329274e+03	2.950382e+03	0	5.744699e-04
7.500000e+08	2.644475e+12	0.000000e+00	3.962265e-01	8.287806e+13	2.056161e+14	2.240305e+14	8.174658e+03	5.332564e+03	2.952203e+03	0	5.710081e-04
7.600000e+08	2.597140e+12	0.000000e+00	3.962265e-01	8.175934e+13	2.063955e+14	2.229699e+14	8.157519e+03	5.335759e+03	2.953972e+03	0	5.675806e-04
7.700000e+08	2.550829e+12	0.000000e+00	3.962265e-01	8.066443e+13	2.071543e+14	2.219167e+14	8.140611e+03	5.338860e+03	2.955689e+03	0	5.641867e-04
7.800000e+08	2.505513e+12	0.000000e+00	3.962265e-01	7.959265e+13	2.078925e+14	2.208708e+14	8.123929e+03	5.341869e+03	2.957354e+03	0	5.608258e-04
7.900000e+08	2.461164e+12	0.000000e+00	3.962265e-01	7.854336e+13	2.086104e+14	2.198322e+14	8.107467e+03	5.344787e+03	2.958970e+03	0	5.574971e-04
8.000000e+08	2.417755e+12	0.000000e+00	3.962265e-01	7.751594e+13	2.093082e+14	2.188008e+14	8.091222e+03	5.347616e+03	2.960536e+03	0	5.542000e-04
8.100000e+08	2.375260e+12	0.000000e+00	3.962265e-01	7.650978e+13	2.099861e+14	2.177765e+14	8.075188e+03	5.350358e+03	2.962054e+03	0	5.509339e-04
8.200000e+08	2.333653e+12	0.000000e+00	3.962265e-01	7.552430e+13	2.106444e+14	2.167594e+14	8.059361e+03	5.353015e+03	2.963525e+03	0	5.476981e-04
8.300000e+08	2.292912e+12	0.000000e+00	3.962265e-01	7.455895e+13	2.112833e+14	2.157492e+14	8.043738e+03	5.355587e+03	2.964949e+03	0	5.444920e-04
8.400000e+08	2.253011e+12	0.000000e+00	3.962265e-01	7.361317e+13	2.119031e+14	2.147461e+14	8.028313e+03	5.358076e+03	2.966327e+03	0	5.413152e-04
8.500000e+08	2.213928e+12	0.000000e+00	3.962265e-01	7.268645e+13	2.125038e+14	2.137498e+14	8.013083e+03	5.360484e+03	2.967660e+03	0	5.381669e-04
8.600000e+08	2.175643e+12	0.000000e+00	3.962265e-01	7.177827e+13	2.130859e+14	2.127604e+14	7.998044e+03	5.362812e+03	2.968949e+03	0	5.350466e-04
8.700000e+08	2.138132e+12	0.000000e+00	3.962265e-01	7.088816e+13	2.136494e+14	2.117779e+14	7.983192e+03	5.365062e+03	2.970194e+03	0	5.319538e-04
8.800000e+08	2.101376e+12	0.000000e+00	3.962265e-01	7.001563e+13	2.141947e+14	2.108020e+14	7.968524e+03	5.367234e+03	2.971397e+03	0	5.288880e-04
8.900000e+08	2.065356e+12	0.000000e+00	3.962265e-01	6.916024e+13	2.147219e+14	2.098329e+14	7.954036e+03	5.369331e+03	2.972558e+03	0	5.258486e-04
9.000000e+08	2.030051e+12	0.000000e+00	3.962265e-01	6.832153e+13	2.152313e+14	2.088705e+14	7.939723e+03	5.371353e+03	2.973677e+03	0	5.228351e-04
9.100000e+08	1.995444e+12	0.000000e+00	3.962265e-01	6.749908e+13	2.157232e+14	2.079146e+14	7.925584e+03	5.373302e+03	2.974756e+03	0	5.198471e-04
9.200000e+08	1.961517e+12	0.000000e+00	3.962265e-01	6.669247e+13	2.161977e+14	2.069653e+14	7.911614e+03	5.375179e+03	2.975796e+03	0	5.168840e-04
9.300000e+08	1.928251e+12	0.000000e+00	3.962265e-01	6.590131e+13	2.166551e+14	2.060225e+14	7.897811e+03	5.376986e+03	2.976796e+03	0	5.139454e-04
9.400000e+08	1.895631e+12	0.000000e+00	3.962265e-01	6.512521e+13	2.170956e+14	2.050861e+14	7.884171e+03	5.378723e+03	2.977757e+03	0	5.110308e-04
9.500000e+08	1.863641e+12	0.000000e+00	3.962265e-01	6.436378e+13	2.175195e+14	2.041561e+14	7.870691e+03	5.380392e+03	2.978681e+03	0	5.081397e-04
9.600000e+08	1.832263e+12	0.000000e+00	3.962265e-01	6.361667e+13	2.179270e+14	2.032325e+14	7.857368e+03	5.381994e+03	2.979568e+03	0	5.052718e-04
9.700000e+08	1.801484e+12	0.000000e+00	3.962265e-01	6.288352e+13	2.183182e+14	2.023151e+14	7.844199e+03	5.383530e+03	2.980419e+03	0	5.024266e-04
9.800000e+08	1.771289e+12	0.000000e+00	3.962265e-01	6.216398e+13	2.186935e+14	2.014040e+14	7.831181e+03	5.385002e+03	2.981233e+03	0	4.996036e-04
9.900000e+08	1.741662e+12	0.000000e+00	3.962265e-01	6.145773e+13	2.190531e+14	2.004991e+14	7.818311e+03	5.386410e+03	2.982013e+03	0	4.968024e-04
1.000000e+09	1.712590e+12	0.000000e+00	3.962265e-01	6.076445e+13	2.193971e+14	1.996004e+14	7.805587e+03	5.387755e+03	2.982758e+03	0	4.940227e-04
1.010000e+09	1.684061e+12	0.000000e+00	3.962265e-01	6.008382e+13	2.197258e+14	1.987077e+14	7.793007e+03	5.389040e+03	2.983469e+03	0	4.912641e-04
1.020000e+09	1.656059e+12	0.000000e+00	3.962265e-01	5.941554e+13	2.200395e+14	1.978210e+14	7.780566e+03	5.390264e+03	2.984147e+03	0	4.885260e-04
1.030000e+09	1.628574e+12	0.000000e+00	3.962265e-01	5.875931e+13	2.203383e+14	1.969404e+14	7.768264e+03	5.391429e+03	2.984792e+03	0	4.858083e-04
1.040000e+09	1.601592e+12	0.000000e+00	3.962265e-01	5.811485e+13	2.206226e+14	1.960657e+14	7.756097e+03	5.392536e+03	2.985405e+03	0	4.831104e-04
1.050000e+09	1.575102e+12	0.000000e+00	3.962265e-01	5.748189e+13	2.208924e+14	1.951970e+14	7.744063e+03	5.393586e+03	2.985986e+03	0	4.804321e-04
1.060000e+09	1.549092e+12	0.000000e+00	3.962265e-01	5.686015e+13	2.211480e+14	1.943340e+14	7.732160e+03	5.394580e+03	2.986536e+03	0	4.777729e-04
1.070000e+09	1.523551e+12	0.000000e+00	3.962265e-01	5.624937e+13	2.213897e+14	1.934769e+14	7.720385e+03	5.395519e+03	2.987056e+03	0	4.751326e-04
1.080000e+09	1.498468e+12	0.000000e+00	3.962265e-01	5.564931e+13	2.216176e+14	1.926256e+14	7.708736e+03	5.396403e+03	2.987546e+03	0	4.725106e-04
1.090000e+09	1.473832e+12	0.000000e+00	3.962265e-01	5.505970e+13	2.218320e+14	1.917800e+14	7.697210e+03	5.397235e+03	2.988006e+03	0	4.699068e-04
1.100000e+09	1.449633e+12	0.000000e+00	3.962265e-01	5.448032e+13	2.220331e+14	1.909401e+14	7.685807e+03	5.398014e+03	2.988438e+03	0	4.673208e-04
1.110000e+09	1.425861e+12	0.000000e+00	3.962265e-01	5.391093e+13	2.222210e+14	1.901058e+14	7.674523e+03	5.398742e+03	2.988841e+03	0	4.647522e-04
1.120000e+09	1.402506e+12	0.000000e+00	3.962265e-01	5.335131e+13	2.223961e+14	1.892771e+14	7.663357e+03	5.399420e+03	2.989216e+03	0	4.622008e-04
1.130000e+09	1.379559e+12	0.000000e+00	3.962265e-01	5.280123e+13	2.225585e+14	1.884539e+14	7.652306e+03	5.400048e+03	2.989564e+03	0	4.596661e-04
1.140000e+09	1.357010e+12	0.000000e+00	3.962265e-01	5.226048e+13	2.227084e+14	1.876362e+14	7.641369e+03	5.400628e+03	2.989884e+03	0	4.571480e-04
1.150000e+09	1.334851e+12	0.000000e+00	3.962265e-01	5.172886e+13	2.228461e+14	1.868240e+14	7.630543e+03	5.401160e+03	2.990179e+03	0	4.546460e-04
1.160000e+09	1.313073e+12	0.000000e+00	3.962265e-01	5.120616e+13	2.229716e+14	1.860173e+14	7.619827e+03	5.401645e+03	2.990447e+03	0	4.521599e-04
1.170000e+09	1.291667e+12	0.000000e+00	3.962265e-01	5.069218e+13	2.230853e+14	1.852159e+14	7.609219e+03	5.402084e+03	2.990691e+03	0	4.496893e-04
1.180000e+09	1.270625e+12	0.000000e+00	3.962265e-01	5.018674e+13	2.231874e+14	1.844198e+14	7.598718e+03	5.402478e+03	2.990909e+03	0	4.472341e-04
1.190000e+09	1.249939e+12	0.000000e+00	3.962265e-01	4.968964e+13	2.232779e+14	1.836290e+14	7.588320e+03	5.402827e+03	2.991102e+03	0	4.447938e-04
1.200000e+09	1.229602e+12	0.000000e+00	3.962265e-01	4.920071e+13	2.233571e+14	1.828435e+14	7.578026e+03	5.403133e+03	2.991271e+03	0	4.423683e-04
1.210000e+09	1.209606e+12	0.000000e+00	3.962265e-01	4.871977e+13	2.234253e+14	1.820631e+14	7.567832e+03	5.403396e+03	2.991417e+03	0	4.399571e-04
1.220000e+09	1.189942e+12	0.000000e+00	3.962265e-01	4.824665e+13	2.234826e+14	1.812880e+14	7.557737e+03	5.403617e+03	2.991539e+03	0	4.375601e-04
1.230000e+09	1.170605e+12	0.000000e+00	3.962265e-01	4.778118e+13	2.235292e+14	1.805180e+14	7.547741e+03	5.403796e+03	2.991639e+03	0	4.351770e-04
1.240000e+09	1.151587e+12	0.000000e+00	3.962265e-01	4.732320e+13	2.235652e+14	1.797530e+14	7.537840e+03	5.403935e+03	2.991716e+03	0	4.328075e-04
1.250000e+09	1.132882e+12	0.000000e+00	3.962265e-01	4.687255e+13	2.235910e+14	1.789931e+14	7.528034e+03	5.404035e+03	2.991770e+03	0	4.304513e-04
1.260000e+09	1.114482e+12	0.000000e+00	3.962265e-01	4.642908e+13	2.236066e+14	1.782383e+14	7.518322e+03	5.404095e+03	2.991804e+03	0	4.281081e-04
1.270000e+09	1.096382e+12	0.000000e+00	3.962265e-01	4.599262e+13	2.236122e+14	1.774883e+14	7.508700e+03	5.404116e+03	2.991816e+03	0	4.257778e-04
1.280000e+09	1.078574e+12	0.000000e+00	3.962265e-01	4.556305e+13	2.236081e+14	1.767434e+14	7.499169e+03	5.404100e+03	2.991807e+03	0	4.234600e-04
1.290000e+09	1.061053e+12	0.000000e+00	3.962265e-01	4.514021e+13	2.235943e+14	1.760033e+14	7.489727e+03	5.404047e+03	2.991778e+03	0	4.211545e-04
1.300000e+09	1.043813e+12	0.000000e+00	3.962265e-01	4.472397e+13	2.235711e+14	1.752681e+14	7.480372e+03	5.403958e+03	2.991728e+03	0	4.188611e-04
1.310000e+09	1.026848e+12	0.000000e+00	3.962265e-01	4.431419e+13	2.235387e+14	1.745377e+14	7.471103e+03	5.403833e+03	2.991659e+03	0	4.165794e-04
1.320000e+09	1.010152e+12	0.000000e+00	3.962265e-01	4.391074e+13	2.234972e+14	1.738121e+14	7.461919e+03	5.403673e+03	2.991570e+03	0	4.143093e-04
1.330000e+09	9.937202e+11	0.000000e+00	3.962265e-01	4.351349e+13	2.234467e+14	1.730912e+14	7.452818e+03	5.403478e+03	2.991463e+03	0	4.120505e-04
1.340000e+09	9.775465e+11	0.000000e+00	3.962265e-01	4.312231e+13	2.233875e+14	1.723750e+14	7.443800e+03	5.403250e+03	2.991336e+03	0	4.098028e-04
1.350000e+09	9.616258e+11	0.000000e+00	3.962265e-01	4.273708e+13	2.233198e+14	1.716636e+14	7.434862e+03	5.402989e+03	2.991191e+03	0	4.075659e-04
1.360000e+09	9.459531e+11	0.000000e+00	3.962265e-01	4.235768e+13	2.232436e+14	1.709567e+14	7.426003e+03	5.402695e+03	2.991029e+03	0	4.053395e-04
