#t		Qconv[W]	Ri[Rp]		R*[Rp]		Qc[W]		Qm[W]		Qr[W]		Tcmb[K]		Tl[K]		Tup[K]		RiFlag		Bs[T]
0.000000e+00	1.930563e+13	0.000000e+00	3.962264e-01	4.484619e+14	7.942238e+13	3.554802e+14	1.150183e+04	4.767506e+03	2.590395e+03	0	1.103467e-03
1.000000e+07	1.860347e+13	0.000000e+00	3.962264e-01	4.332506e+14	8.193861e+13	3.535106e+14	1.141715e+04	4.789007e+03	2.602078e+03	0	1.089924e-03
2.000000e+07	1.794050e+13	0.000000e+00	3.962264e-01	4.188819e+14	8.444448e+13	3.515557e+14	1.133530e+04	4.809922e+03	2.613442e+03	0	1.076820e-03
3.000000e+07	1.731368e+13	0.000000e+00	3.962264e-01	4.052907e+14	8.693921e+13	3.496154e+14	1.125614e+04	4.830277e+03	2.624501e+03	0	1.064130e-03
4.000000e+07	1.672026e+13	0.000000e+00	3.962264e-01	3.924183e+14	8.942206e+13	3.476896e+14	1.117952e+04	4.850095e+03	2.635270e+03	0	1.051831e-03
5.000000e+07	1.615777e+13	0.000000e+00	3.962264e-01	3.802116e+14	9.189235e+13	3.457782e+14	1.110529e+04	4.869400e+03	2.645759e+03	0	1.039901e-03
6.000000e+07	1.562397e+13	0.000000e+00	3.962264e-01	3.686225e+14	9.434938e+13	3.438810e+14	1.103335e+04	4.888211e+03	2.655980e+03	0	1.028321e-03
7.000000e+07	1.511682e+13	0.000000e+00	3.962264e-01	3.576073e+14	9.679250e+13	3.419979e+14	1.096358e+04	4.906548e+03	2.665943e+03	0	1.017072e-03
8.000000e+07	1.463447e+13	0.000000e+00	3.962264e-01	3.471262e+14	9.922111e+13	3.401289e+14	1.089587e+04	4.924428e+03	2.675658e+03	0	1.006137e-03
9.000000e+07	1.417522e+13	0.000000e+00	3.962264e-01	3.371430e+14	1.016346e+14	3.382737e+14	1.083012e+04	4.941870e+03	2.685135e+03	0	9.955003e-04
1.000000e+08	1.373754e+13	0.000000e+00	3.962264e-01	3.276246e+14	1.040323e+14	3.364323e+14	1.076624e+04	4.958887e+03	2.694381e+03	0	9.851471e-04
1.100000e+08	1.332001e+13	0.000000e+00	3.962264e-01	3.185406e+14	1.064138e+14	3.346046e+14	1.070415e+04	4.975495e+03	2.703405e+03	0	9.750637e-04
1.200000e+08	1.292135e+13	0.000000e+00	3.962264e-01	3.098634e+14	1.087785e+14	3.327905e+14	1.064376e+04	4.991708e+03	2.712214e+03	0	9.652372e-04
1.300000e+08	1.254035e+13	0.000000e+00	3.962264e-01	3.015674e+14	1.111259e+14	3.309897e+14	1.058499e+04	5.007539e+03	2.720816e+03	0	9.556555e-04
1.400000e+08	1.217594e+13	0.000000e+00	3.962264e-01	2.936292e+14	1.134555e+14	3.292023e+14	1.052779e+04	5.023000e+03	2.729216e+03	0	9.463076e-04
1.500000e+08	1.182711e+13	0.000000e+00	3.962264e-01	2.860271e+14	1.157668e+14	3.274281e+14	1.047208e+04	5.038102e+03	2.737422e+03	0	9.371828e-04
1.600000e+08	1.149292e+13	0.000000e+00	3.962264e-01	2.787413e+14	1.180594e+14	3.256670e+14	1.041779e+04	5.052857e+03	2.745439e+03	0	9.282713e-04
1.700000e+08	1.117252e+13	0.000000e+00	3.962264e-01	2.717532e+14	1.203328e+14	3.239189e+14	1.036488e+04	5.067275e+03	2.753273e+03	0	9.195638e-04
1.800000e+08	1.086512e+13	0.000000e+00	3.962264e-01	2.650459e+14	1.225866e+14	3.221837e+14	1.031327e+04	5.081365e+03	2.760929e+03	0	9.110517e-04
1.900000e+08	1.056999e+13	0.000000e+00	3.962264e-01	2.586036e+14	1.248205e+14	3.204613e+14	1.026294e+04	5.095138e+03	2.768412e+03	0	9.027268e-04
2.000000e+08	1.028644e+13	0.000000e+00	3.962264e-01	2.524116e+14	1.270340e+14	3.187516e+14	1.021381e+04	5.108602e+03	2.775727e+03	0	8.945813e-04
2.100000e+08	1.001384e+13	0.000000e+00	3.962264e-01	2.464563e+14	1.292268e+14	3.170544e+14	1.016585e+04	5.121764e+03	2.782880e+03	0	8.866079e-04
2.200000e+08	9.751595e+12	0.000000e+00	3.962264e-01	2.407250e+14	1.313985e+14	3.153697e+14	1.011901e+04	5.134635e+03	2.789873e+03	0	8.787999e-04
2.300000e+08	9.499170e+12	0.000000e+00	3.962264e-01	2.352060e+14	1.335489e+14	3.136973e+14	1.007325e+04	5.147220e+03	2.796711e+03	0	8.711508e-04
2.400000e+08	9.256047e+12	0.000000e+00	3.962264e-01	2.298883e+14	1.356775e+14	3.120372e+14	1.002853e+04	5.159528e+03	2.803398e+03	0	8.636544e-04
2.500000e+08	9.021753e+12	0.000000e+00	3.962264e-01	2.247617e+14	1.377841e+14	3.103893e+14	9.984818e+03	5.171566e+03	2.809939e+03	0	8.563049e-04
2.600000e+08	8.795841e+12	0.000000e+00	3.962264e-01	2.198164e+14	1.398685e+14	3.087534e+14	9.942069e+03	5.183339e+03	2.816336e+03	0	8.490969e-04
2.700000e+08	8.577895e+12	0.000000e+00	3.962264e-01	2.150437e+14	1.419303e+14	3.071295e+14	9.900254e+03	5.194855e+03	2.822593e+03	0	8.420251e-04
2.800000e+08	8.367527e+12	0.000000e+00	3.962264e-01	2.104351e+14	1.439694e+14	3.055175e+14	9.859340e+03	5.206120e+03	2.828713e+03	0	8.350847e-04
2.900000e+08	8.164371e+12	0.000000e+00	3.962264e-01	2.059828e+14	1.459854e+14	3.039172e+14	9.819295e+03	5.217139e+03	2.834701e+03	0	8.282708e-04
3.000000e+08	7.968085e+12	0.000000e+00	3.962264e-01	2.016793e+14	1.479782e+14	3.023286e+14	9.780092e+03	5.227919e+03	2.840558e+03	0	8.215792e-04
3.100000e+08	7.778347e+12	0.000000e+00	3.962264e-01	1.975177e+14	1.499476e+14	3.007515e+14	9.741701e+03	5.238464e+03	2.846288e+03	0	8.150056e-04
3.200000e+08	7.594857e+12	0.000000e+00	3.962264e-01	1.934916e+14	1.518933e+14	2.991859e+14	9.704097e+03	5.248781e+03	2.851893e+03	0	8.085459e-04
3.300000e+08	7.417329e+12	0.000000e+00	3.962264e-01	1.895948e+14	1.538153e+14	2.976317e+14	9.667254e+03	5.258874e+03	2.857377e+03	0	8.021963e-04
3.400000e+08	7.245496e+12	0.000000e+00	3.962264e-01	1.858216e+14	1.557133e+14	2.960888e+14	9.631147e+03	5.268748e+03	2.862742e+03	0	7.959532e-04
3.500000e+08	7.079108e+12	0.000000e+00	3.962264e-01	1.821665e+14	1.575872e+14	2.945571e+14	9.595754e+03	5.278407e+03	2.867990e+03	0	7.898130e-04
3.600000e+08	6.917925e+12	0.000000e+00	3.962264e-01	1.786244e+14	1.594369e+14	2.930365e+14	9.561053e+03	5.287857e+03	2.873125e+03	0	7.837726e-04
3.700000e+08	6.761725e+12	0.000000e+00	3.962264e-01	1.751904e+14	1.612623e+14	2.915269e+14	9.527021e+03	5.297102e+03	2.878148e+03	0	7.778287e-04
3.800000e+08	6.610295e+12	0.000000e+00	3.962264e-01	1.718600e+14	1.630633e+14	2.900283e+14	9.493640e+03	5.306145e+03	2.883062e+03	0	7.719783e-04
3.900000e+08	6.463436e+12	0.000000e+00	3.962264e-01	1.686289e+14	1.648397e+14	2.885404e+14	9.460889e+03	5.314992e+03	2.887869e+03	0	7.662185e-04
4.000000e+08	6.320958e+12	0.000000e+00	3.962264e-01	1.654930e+14	1.665914e+14	2.870634e+14	9.428749e+03	5.323646e+03	2.892571e+03	0	7.605465e-04
4.100000e+08	6.182683e+12	0.000000e+00	3.962264e-01	1.624485e+14	1.683185e+14	2.855969e+14	9.397203e+03	5.332111e+03	2.897170e+03	0	7.549597e-04
4.200000e+08	6.048441e+12	0.000000e+00	3.962264e-01	1.594916e+14	1.700209e+14	2.841411e+14	9.366235e+03	5.340391e+03	2.901669e+03	0	7.494556e-04
4.300000e+08	5.918070e+12	0.000000e+00	3.962264e-01	1.566188e+14	1.716985e+14	2.826957e+14	9.335826e+03	5.348489e+03	2.906069e+03	0	7.440318e-04
4.400000e+08	5.791419e+12	0.000000e+00	3.962264e-01	1.538270e+14	1.733513e+14	2.812607e+14	9.305961e+03	5.356410e+03	2.910373e+03	0	7.386859e-04
4.500000e+08	5.668343e+12	0.000000e+00	3.962264e-01	1.511130e+14	1.749793e+14	2.798360e+14	9.276626e+03	5.364156e+03	2.914581e+03	0	7.334157e-04
4.600000e+08	5.548705e+12	0.000000e+00	3.962264e-01	1.484737e+14	1.765824e+14	2.784216e+14	9.247805e+03	5.371731e+03	2.918697e+03	0	7.282190e-04
4.700000e+08	5.432373e+12	0.000000e+00	3.962264e-01	1.459064e+14	1.781607e+14	2.770173e+14	9.219484e+03	5.379137e+03	2.922722e+03	0	7.230939e-04
4.800000e+08	5.319225e+12	0.000000e+00	3.962264e-01	1.434085e+14	1.797141e+14	2.756230e+14	9.191651e+03	5.386380e+03	2.926657e+03	0	7.180382e-04
4.900000e+08	5.209140e+12	0.000000e+00	3.962264e-01	1.409772e+14	1.812428e+14	2.742388e+14	9.164291e+03	5.393460e+03	2.930504e+03	0	7.130503e-04
5.000000e+08	5.102008e+12	0.000000e+00	3.962264e-01	1.386102e+14	1.827466e+14	2.728644e+14	9.137392e+03	5.400382e+03	2.934265e+03	0	7.081281e-04
5.100000e+08	4.997720e+12	0.000000e+00	3.962264e-01	1.363052e+14	1.842258e+14	2.714999e+14	9.110942e+03	5.407149e+03	2.937941e+03	0	7.032700e-04
5.200000e+08	4.896175e+12	0.000000e+00	3.962264e-01	1.340600e+14	1.856802e+14	2.701451e+14	9.084930e+03	5.413762e+03	2.941535e+03	0	6.984743e-04
5.300000e+08	4.797275e+12	0.000000e+00	3.962264e-01	1.318725e+14	1.871100e+14	2.687999e+14	9.059344e+03	5.420226e+03	2.945047e+03	0	6.937394e-04
5.400000e+08	4.700928e+12	0.000000e+00	3.962264e-01	1.297406e+14	1.885152e+14	2.674644e+14	9.034173e+03	5.426543e+03	2.948479e+03	0	6.890636e-04
5.500000e+08	4.607044e+12	0.000000e+00	3.962264e-01	1.276624e+14	1.898960e+14	2.661383e+14	9.009407e+03	5.432715e+03	2.951832e+03	0	6.844456e-04
5.600000e+08	4.515539e+12	0.000000e+00	3.962264e-01	1.256361e+14	1.912523e+14	2.648217e+14	8.985035e+03	5.438745e+03	2.955109e+03	0	6.798837e-04
5.700000e+08	4.426331e+12	0.000000e+00	3.962264e-01	1.236599e+14	1.925843e+14	2.635144e+14	8.961048e+03	5.444635e+03	2.958309e+03	0	6.753767e-04
5.800000e+08	4.339344e+12	0.000000e+00	3.962264e-01	1.217322e+14	1.938921e+14	2.622164e+14	8.937436e+03	5.450389e+03	2.961436e+03	0	6.709232e-04
5.900000e+08	4.254503e+12	0.000000e+00	3.962264e-01	1.198513e+14	1.951758e+14	2.609276e+14	8.914191e+03	5.456008e+03	2.964489e+03	0	6.665219e-04
6.000000e+08	4.171737e+12	0.000000e+00	3.962264e-01	1.180158e+14	1.964354e+14	2.596479e+14	8.891303e+03	5.461496e+03	2.967470e+03	0	6.621714e-04
6.100000e+08	4.090979e+12	0.000000e+00	3.962264e-01	1.162241e+14	1.976712e+14	2.583773e+14	8.868764e+03	5.466853e+03	2.970381e+03	0	6.578707e-04
6.200000e+08	4.012163e+12	0.000000e+00	3.962264e-01	1.144748e+14	1.988832e+14	2.571157e+14	8.846565e+03	5.472083e+03	2.973223e+03	0	6.536185e-04
6.300000e+08	3.935227e+12	0.000000e+00	3.962264e-01	1.127666e+14	2.000716e+14	2.558629e+14	8.824699e+03	5.477188e+03	2.975997e+03	0	6.494136e-04
6.400000e+08	3.860110e+12	0.000000e+00	3.962264e-01	1.110981e+14	2.012364e+14	2.546190e+14	8.803157e+03	5.482170e+03	2.978703e+03	0	6.452550e-04
6.500000e+08	3.786757e+12	0.000000e+00	3.962264e-01	1.094682e+14	2.023779e+14	2.533839e+14	8.781933e+03	5.487030e+03	2.981345e+03	0	6.411416e-04
6.600000e+08	3.715112e+12	0.000000e+00	3.962264e-01	1.078757e+14	2.034962e+14	2.521574e+14	8.761018e+03	5.491772e+03	2.983921e+03	0	6.370723e-04
6.700000e+08	3.645121e+12	0.000000e+00	3.962264e-01	1.063193e+14	2.045914e+14	2.509396e+14	8.740406e+03	5.496398e+03	2.986434e+03	0	6.330463e-04
6.800000e+08	3.576735e+12	0.000000e+00	3.962264e-01	1.047980e+14	2.056638e+14	2.497303e+14	8.720090e+03	5.500908e+03	2.988885e+03	0	6.290624e-04
6.900000e+08	3.509904e+12	0.000000e+00	3.962264e-01	1.033108e+14	2.067134e+14	2.485295e+14	8.700064e+03	5.505306e+03	2.991275e+03	0	6.251197e-04
7.000000e+08	3.444581e+12	0.000000e+00	3.962264e-01	1.018565e+14	2.077404e+14	2.473372e+14	8.680320e+03	5.509593e+03	2.993604e+03	0	6.212174e-04
7.100000e+08	3.380722e+12	0.000000e+00	3.962264e-01	1.004344e+14	2.087450e+14	2.461531e+14	8.660854e+03	5.513772e+03	2.995874e+03	0	6.173545e-04
7.200000e+08	3.318283e+12	0.000000e+00	3.962264e-01	9.904325e+13	2.097274e+14	2.449774e+14	8.641657e+03	5.517843e+03	2.998086e+03	0	6.135302e-04
7.300000e+08	3.257223e+12	0.000000e+00	3.962264e-01	9.768233e+13	2.106877e+14	2.438099e+14	8.622726e+03	5.521809e+03	3.000241e+03	0	6.097437e-04
7.400000e+08	3.197501e+12	0.000000e+00	3.962264e-01	9.635073e+13	2.116262e+14	2.426505e+14	8.604053e+03	5.525671e+03	3.002340e+03	0	6.059941e-04
7.500000e+08	3.139079e+12	0.000000e+00	3.962264e-01	9.504760e+13	2.125430e+14	2.414992e+14	8.585634e+03	5.529432e+03	3.004383e+03	0	6.022806e-04
7.600000e+08	3.081919e+12	0.000000e+00	3.962264e-01	9.377213e+13	2.134383e+14	2.403559e+14	8.567463e+03	5.533093e+03	3.006372e+03	0	5.986025e-04
7.700000e+08	3.025985e+12	0.000000e+00	3.962264e-01	9.252355e+13	2.143123e+14	2.392206e+14	8.549534e+03	5.536656e+03	3.008308e+03	0	5.949590e-04
7.800000e+08	2.971244e+12	0.000000e+00	3.962264e-01	9.130110e+13	2.151652e+14	2.380931e+14	8.531844e+03	5.540122e+03	3.010191e+03	0	5.913495e-04
7.900000e+08	2.917661e+12	0.000000e+00	3.962264e-01	9.010406e+13	2.159972e+14	2.369735e+14	8.514386e+03	5.543493e+03	3.012023e+03	0	5.877731e-04
8.000000e+08	2.865205e+12	0.000000e+00	3.962264e-01	8.893172e+13	2.168085e+14	2.358617e+14	8.497156e+03	5.546771e+03	3.013804e+03	0	5.842293e-04
8.100000e+08	2.813843e+12	0.000000e+00	3.962264e-01	8.778341e+13	2.175992e+14	2.347576e+14	8.480149e+03	5.549957e+03	3.015536e+03	0	5.807173e-04
8.200000e+08	2.763548e+12	0.000000e+00	3.962264e-01	8.665848e+13	2.183696e+14	2.336611e+14	8.463361e+03	5.553054e+03	3.017218e+03	0	5.772365e-04
8.300000e+08	2.714288e+12	0.000000e+00	3.962264e-01	8.555630e+13	2.191200e+14	2.325722e+14	8.446787e+03	5.556061e+03	3.018852e+03	0	5.737862e-04
8.400000e+08	2.666038e+12	0.000000e+00	3.962264e-01	8.447626e+13	2.198505e+14	2.314908e+14	8.430423e+03	5.558981e+03	3.020439e+03	0	5.703659e-04
8.500000e+08	2.618769e+12	0.000000e+00	3.962264e-01	8.341777e+13	2.205612e+14	2.304168e+14	8.414265e+03	5.561816e+03	3.021979e+03	0	5.669749e-04
8.600000e+08	2.572455e+12	0.000000e+00	3.962264e-01	8.238026e+13	2.212525e+14	2.293503e+14	8.398309e+03	5.564566e+03	3.023473e+03	0	5.636126e-04
8.700000e+08	2.527072e+12	0.000000e+00	3.962264e-01	8.136319e+13	2.219246e+14	2.282911e+14	8.382550e+03	5.567234e+03	3.024923e+03	0	5.602785e-04
8.800000e+08	2.482594e+12	0.000000e+00	3.962264e-01	8.036603e+13	2.225775e+14	2.272392e+14	8.366985e+03	5.569820e+03	3.026328e+03	0	5.569720e-04
8.900000e+08	2.438999e+12	0.000000e+00	3.962264e-01	7.938825e+13	2.232117e+14	2.261946e+14	8.351610e+03	5.572326e+03	3.027689e+03	0	5.536925e-04
9.000000e+08	2.396263e+12	0.000000e+00	3.962264e-01	7.842937e+13	2.238272e+14	2.251570e+14	8.336421e+03	5.574753e+03	3.029008e+03	0	5.504396e-04
9.100000e+08	2.354365e+12	0.000000e+00	3.962264e-01	7.748890e+13	2.244243e+14	2.241267e+14	8.321416e+03	5.577103e+03	3.030285e+03	0	5.472126e-04
9.200000e+08	2.313283e+12	0.000000e+00	3.962264e-01	7.656638e+13	2.250032e+14	2.231033e+14	8.306589e+03	5.579377e+03	3.031521e+03	0	5.440111e-04
9.300000e+08	2.272997e+12	0.000000e+00	3.962264e-01	7.566135e+13	2.255642e+14	2.220870e+14	8.291938e+03	5.581576e+03	3.032716e+03	0	5.408345e-04
9.400000e+08	2.233486e+12	0.000000e+00	3.962264e-01	7.477339e+13	2.261074e+14	2.210776e+14	8.277460e+03	5.583702e+03	3.033870e+03	0	5.376825e-04
9.500000e+08	2.194731e+12	0.000000e+00	3.962264e-01	7.390206e+13	2.266330e+14	2.200751e+14	8.263151e+03	5.585755e+03	3.034986e+03	0	5.345544e-04
9.600000e+08	2.156713e+12	0.000000e+00	3.962264e-01	7.304696e+13	2.271413e+14	2.190794e+14	8.249008e+03	5.587738e+03	3.036063e+03	0	5.314498e-04
9.700000e+08	2.119415e+12	0.000000e+00	3.962264e-01	7.220768e+13	2.276326e+14	2.180906e+14	8.235028e+03	5.589650e+03	3.037102e+03	0	5.283683e-04
9.800000e+08	2.082818e+12	0.000000e+00	3.962264e-01	7.138385e+13	2.281069e+14	2.171084e+14	8.221209e+03	5.591494e+03	3.038104e+03	0	5.253095e-04
9.900000e+08	2.046905e+12	0.000000e+00	3.962264e-01	7.057510e+13	2.285645e+14	2.161329e+14	8.207546e+03	5.593270e+03	3.039069e+03	0	5.222727e-04
1.000000e+09	2.011660e+12	0.000000e+00	3.962264e-01	6.978105e+13	2.290058e+14	2.151641e+14	8.194038e+03	5.594980e+03	3.039998e+03	0	5.192578e-04
1.010000e+09	1.977067e+12	0.000000e+00	3.962264e-01	6.900136e+13	2.294307e+14	2.142018e+14	8.180681e+03	5.596624e+03	3.040892e+03	0	5.162641e-04
1.020000e+09	1.943110e+12	0.000000e+00	3.962264e-01	6.823569e+13	2.298397e+14	2.132460e+14	8.167472e+03	5.598205e+03	3.041750e+03	0	5.132913e-04
1.030000e+09	1.909773e+12	0.000000e+00	3.962264e-01	6.748371e+13	2.302328e+14	2.122967e+14	8.154410e+03	5.599722e+03	3.042575e+03	0	5.103390e-04
1.040000e+09	1.877043e+12	0.000000e+00	3.962264e-01	6.674509e+13	2.306103e+14	2.113539e+14	8.141492e+03	5.601177e+03	3.043365e+03	0	5.074067e-04
1.050000e+09	1.844905e+12	0.000000e+00	3.962264e-01	6.601952e+13	2.309725e+14	2.104173e+14	8.128714e+03	5.602571e+03	3.044123e+03	0	5.044942e-04
1.060000e+09	1.813346e+12	0.000000e+00	3.962264e-01	6.530671e+13	2.313194e+14	2.094871e+14	8.116074e+03	5.603906e+03	3.044848e+03	0	5.016009e-04
1.070000e+09	1.782350e+12	0.000000e+00	3.962264e-01	6.460635e+13	2.316514e+14	2.085632e+14	8.103571e+03	5.605181e+03	3.045541e+03	0	4.987266e-04
1.080000e+09	1.751907e+12	0.000000e+00	3.962264e-01	6.391817e+13	2.319687e+14	2.076455e+14	8.091201e+03	5.606399e+03	3.046203e+03	0	4.958707e-04
1.090000e+09	1.722003e+12	0.000000e+00	3.962264e-01	6.324188e+13	2.322715e+14	2.067340e+14	8.078963e+03	5.607559e+03	3.046833e+03	0	4.930331e-04
1.100000e+09	1.692625e+12	0.000000e+00	3.962264e-01	6.257722e+13	2.325599e+14	2.058285e+14	8.066853e+03	5.608664e+03	3.047433e+03	0	4.902132e-04
1.110000e+09	1.663761e+12	0.000000e+00	3.962264e-01	6.192391e+13	2.328342e+14	2.049292e+14	8.054871e+03	5.609713e+03	3.048004e+03	0	4.874108e-04
1.120000e+09	1.635401e+12	0.000000e+00	3.962264e-01	6.128172e+13	2.330946e+14	2.040359e+14	8.043013e+03	5.610709e+03	3.048544e+03	0	4.846255e-04
1.130000e+09	1.607533e+12	0.000000e+00	3.962264e-01	6.065039e+13	2.333412e+14	2.031485e+14	8.031278e+03	5.611651e+03	3.049056e+03	0	4.818569e-04
1.140000e+09	1.580145e+12	0.000000e+00	3.962264e-01	6.002967e+13	2.335744e+14	2.022671e+14	8.019663e+03	5.612541e+03	3.049540e+03	0	4.791047e-04
1.150000e+09	1.553227e+12	0.000000e+00	3.962264e-01	5.941935e+13	2.337943e+14	2.013916e+14	8.008167e+03	5.613380e+03	3.049996e+03	0	4.763686e-04
1.160000e+09	1.526769e+12	0.000000e+00	3.962264e-01	5.881918e+13	2.340010e+14	2.005219e+14	7.996787e+03	5.614168e+03	3.050424e+03	0	4.736482e-04
1.170000e+09	1.500760e+12	0.000000e+00	3.962264e-01	5.822894e+13	2.341950e+14	1.996580e+14	7.985522e+03	5.614907e+03	3.050825e+03	0	4.709432e-04
1.180000e+09	1.475191e+12	0.000000e+00	3.962264e-01	5.764843e+13	2.343762e+14	1.987998e+14	7.974369e+03	5.615596e+03	3.051200e+03	0	4.682533e-04
1.190000e+09	1.450052e+12	0.000000e+00	3.962264e-01	5.707742e+13	2.345448e+14	1.979474e+14	7.963328e+03	5.616238e+03	3.051549e+03	0	4.655782e-04
1.200000e+09	1.425333e+12	0.000000e+00	3.962264e-01	5.651573e+13	2.347012e+14	1.971006e+14	7.952395e+03	5.616833e+03	3.051872e+03	0	4.629175e-04
1.210000e+09	1.401026e+12	0.000000e+00	3.962264e-01	5.596313e+13	2.348455e+14	1.962594e+14	7.941570e+03	5.617381e+03	3.052170e+03	0	4.602710e-04
1.220000e+09	1.377122e+12	0.000000e+00	3.962264e-01	5.541945e+13	2.349778e+14	1.954238e+14	7.930850e+03	5.617884e+03	3.052443e+03	0	4.576382e-04
1.230000e+09	1.353612e+12	0.000000e+00	3.962264e-01	5.488450e+13	2.350985e+14	1.945937e+14	7.920234e+03	5.618342e+03	3.052692e+03	0	4.550190e-04
1.240000e+09	1.330488e+12	0.000000e+00	3.962264e-01	5.435808e+13	2.352075e+14	1.937692e+14	7.909720e+03	5.618756e+03	3.052917e+03	0	4.524130e-04
1.250000e+09	1.307741e+12	0.000000e+00	3.962264e-01	5.384003e+13	2.353053e+14	1.929500e+14	7.899306e+03	5.619127e+03	3.053119e+03	0	4.498200e-04
1.260000e+09	1.285364e+12	0.000000e+00	3.962264e-01	5.333016e+13	2.353919e+14	1.921363e+14	7.888992e+03	5.619456e+03	3.053297e+03	0	4.472396e-04
1.270000e+09	1.263349e+12	0.000000e+00	3.962264e-01	5.282831e+13	2.354674e+14	1.913279e+14	7.878775e+03	5.619742e+03	3.053453e+03	0	4.446715e-04
1.280000e+09	1.241688e+12	0.000000e+00	3.962264e-01	5.233431e+13	2.355322e+14	1.905249e+14	7.868654e+03	5.619988e+03	3.053586e+03	0	4.421154e-04
1.290000e+09	1.220374e+12	0.000000e+00	3.962264e-01	5.184800e+13	2.355864e+14	1.897271e+14	7.858627e+03	5.620193e+03	3.053698e+03	0	4.395711e-04
1.300000e+09	1.199400e+12	0.000000e+00	3.962264e-01	5.136922e+13	2.356301e+14	1.889345e+14	7.848693e+03	5.620359e+03	3.053788e+03	0	4.370383e-04
1.310000e+09	1.178759e+12	0.000000e+00	3.962264e-01	5.089782e+13	2.356636e+14	1.881472e+14	7.838851e+03	5.620486e+03	3.053857e+03	0	4.345167e-04
1.320000e+09	1.158444e+12	0.000000e+00	3.962264e-01	5.043365e+13	2.356870e+14	1.873650e+14	7.829098e+03	5.620575e+03	3.053905e+03	0	4.320060e-04
1.330000e+09	1.138448e+12	0.000000e+00	3.962264e-01	4.997656e+13	2.357005e+14	1.865879e+14	7.819435e+03	5.620626e+03	3.053933e+03	0	4.295059e-04
1.340000e+09	1.118764e+12	0.000000e+00	3.962264e-01	4.952642e+13	2.357042e+14	1.858159e+14	7.809858e+03	5.620640e+03	3.053940e+03	0	4.270162e-04
1.350000e+09	1.099388e+12	0.000000e+00	3.962264e-01	4.908307e+13	2.356984e+14	1.850489e+14	7.800368e+03	5.620618e+03	3.053928e+03	0	4.245365e-04
1.360000e+09	1.080311e+12	0.000000e+00	3.962264e-01	4.864639e+13	2.356831e+14	1.842870e+14	7.790962e+03	5.620560e+03	3.053897e+03	0	4.220667e-04
