#t		Qconv[W]	Ri[Rp]		R*[Rp]		Qc[W]		Qm[W]		Qr[W]		Tcmb[K]		Tl[K]		Tup[K]		RiFlag		Bs[T]
0.000000e+00	3.413001e+13	0.000000e+00	3.962265e-01	6.838361e+14	7.654670e+13	4.475167e+14	1.348819e+04	5.265659e+03	2.685819e+03	0	1.318293e-03
1.000000e+07	3.289399e+13	0.000000e+00	3.962265e-01	6.611416e+14	7.923157e+13	4.450371e+14	1.338902e+04	5.291201e+03	2.698847e+03	0	1.302182e-03
2.000000e+07	3.172596e+13	0.000000e+00	3.962265e-01	6.396837e+14	8.191463e+13	4.425761e+14	1.329309e+04	5.316067e+03	2.711530e+03	0	1.286583e-03
3.000000e+07	3.062072e+13	0.000000e+00	3.962265e-01	6.193683e+14	8.459485e+13	4.401334e+14	1.320023e+04	5.340288e+03	2.723884e+03	0	1.271466e-03
4.000000e+07	2.957358e+13	0.000000e+00	3.962265e-01	6.001104e+14	8.727128e+13	4.377091e+14	1.311029e+04	5.363891e+03	2.735924e+03	0	1.256804e-03
5.000000e+07	2.858031e+13	0.000000e+00	3.962265e-01	5.818333e+14	8.994303e+13	4.353027e+14	1.302311e+04	5.386903e+03	2.747661e+03	0	1.242573e-03
6.000000e+07	2.763705e+13	0.000000e+00	3.962265e-01	5.644670e+14	9.260919e+13	4.329144e+14	1.293856e+04	5.409349e+03	2.759110e+03	0	1.228750e-03
7.000000e+07	2.674030e+13	0.000000e+00	3.962265e-01	5.479480e+14	9.526892e+13	4.305438e+14	1.285650e+04	5.431251e+03	2.770281e+03	0	1.215314e-03
8.000000e+07	2.588686e+13	0.000000e+00	3.962265e-01	5.322185e+14	9.792143e+13	4.281908e+14	1.277681e+04	5.452629e+03	2.781186e+03	0	1.202244e-03
9.000000e+07	2.507382e+13	0.000000e+00	3.962265e-01	5.172256e+14	1.005659e+14	4.258553e+14	1.269939e+04	5.473505e+03	2.791834e+03	0	1.189524e-03
1.000000e+08	2.429853e+13	0.000000e+00	3.962265e-01	5.029210e+14	1.032016e+14	4.235372e+14	1.262412e+04	5.493897e+03	2.802235e+03	0	1.177135e-03
1.100000e+08	2.355853e+13	0.000000e+00	3.962265e-01	4.892604e+14	1.058279e+14	4.212363e+14	1.255092e+04	5.513821e+03	2.812397e+03	0	1.165062e-03
1.200000e+08	2.285159e+13	0.000000e+00	3.962265e-01	4.762031e+14	1.084439e+14	4.189524e+14	1.247968e+04	5.533294e+03	2.822330e+03	0	1.153290e-03
1.300000e+08	2.217565e+13	0.000000e+00	3.962265e-01	4.637118e+14	1.110490e+14	4.166855e+14	1.241032e+04	5.552332e+03	2.832040e+03	0	1.141805e-03
1.400000e+08	2.152881e+13	0.000000e+00	3.962265e-01	4.517520e+14	1.136427e+14	4.144353e+14	1.234277e+04	5.570948e+03	2.841536e+03	0	1.130593e-03
1.500000e+08	2.090933e+13	0.000000e+00	3.962265e-01	4.402920e+14	1.162242e+14	4.122017e+14	1.227693e+04	5.589157e+03	2.850824e+03	0	1.119643e-03
1.600000e+08	2.031560e+13	0.000000e+00	3.962265e-01	4.293025e+14	1.187930e+14	4.099847e+14	1.221276e+04	5.606972e+03	2.859910e+03	0	1.108944e-03
1.700000e+08	1.974611e+13	0.000000e+00	3.962265e-01	4.187564e+14	1.213484e+14	4.077840e+14	1.215017e+04	5.624404e+03	2.868801e+03	0	1.098483e-03
1.800000e+08	1.919950e+13	0.000000e+00	3.962265e-01	4.086285e+14	1.238899e+14	4.055995e+14	1.208910e+04	5.641464e+03	2.877503e+03	0	1.088252e-03
1.900000e+08	1.867447e+13	0.000000e+00	3.962265e-01	3.988956e+14	1.264170e+14	4.034311e+14	1.202950e+04	5.658165e+03	2.886022e+03	0	1.078241e-03
2.000000e+08	1.816985e+13	0.000000e+00	3.962265e-01	3.895361e+14	1.289291e+14	4.012787e+14	1.197130e+04	5.674515e+03	2.894362e+03	0	1.068440e-03
2.100000e+08	1.768452e+13	0.000000e+00	3.962265e-01	3.805297e+14	1.314258e+14	3.991421e+14	1.191446e+04	5.690526e+03	2.902528e+03	0	1.058841e-03
2.200000e+08	1.721745e+13	0.000000e+00	3.962265e-01	3.718579e+14	1.339065e+14	3.970212e+14	1.185892e+04	5.706206e+03	2.910526e+03	0	1.049436e-03
2.300000e+08	1.676770e+13	0.000000e+00	3.962265e-01	3.635032e+14	1.363708e+14	3.949159e+14	1.180463e+04	5.721564e+03	2.918359e+03	0	1.040217e-03
2.400000e+08	1.633436e+13	0.000000e+00	3.962265e-01	3.554493e+14	1.388182e+14	3.928260e+14	1.175156e+04	5.736608e+03	2.926033e+03	0	1.031178e-03
2.500000e+08	1.591660e+13	0.000000e+00	3.962265e-01	3.476811e+14	1.412483e+14	3.907514e+14	1.169965e+04	5.751348e+03	2.933551e+03	0	1.022311e-03
2.600000e+08	1.551364e+13	0.000000e+00	3.962265e-01	3.401842e+14	1.436607e+14	3.886920e+14	1.164886e+04	5.765790e+03	2.940917e+03	0	1.013610e-03
2.700000e+08	1.512475e+13	0.000000e+00	3.962265e-01	3.329455e+14	1.460549e+14	3.866476e+14	1.159917e+04	5.779942e+03	2.948136e+03	0	1.005069e-03
2.800000e+08	1.474925e+13	0.000000e+00	3.962265e-01	3.259525e+14	1.484307e+14	3.846182e+14	1.155052e+04	5.793810e+03	2.955210e+03	0	9.966813e-04
2.900000e+08	1.438650e+13	0.000000e+00	3.962265e-01	3.191934e+14	1.507875e+14	3.826036e+14	1.150288e+04	5.807403e+03	2.962143e+03	0	9.884423e-04
3.000000e+08	1.403589e+13	0.000000e+00	3.962265e-01	3.126574e+14	1.531252e+14	3.806037e+14	1.145623e+04	5.820725e+03	2.968938e+03	0	9.803465e-04
3.100000e+08	1.369686e+13	0.000000e+00	3.962265e-01	3.063340e+14	1.554432e+14	3.786183e+14	1.141052e+04	5.833785e+03	2.975599e+03	0	9.723888e-04
3.200000e+08	1.336888e+13	0.000000e+00	3.962265e-01	3.002138e+14	1.577414e+14	3.766474e+14	1.136573e+04	5.846586e+03	2.982129e+03	0	9.645645e-04
3.300000e+08	1.305145e+13	0.000000e+00	3.962265e-01	2.942874e+14	1.600194e+14	3.746908e+14	1.132183e+04	5.859136e+03	2.988530e+03	0	9.568691e-04
3.400000e+08	1.274410e+13	0.000000e+00	3.962265e-01	2.885464e+14	1.622768e+14	3.727485e+14	1.127879e+04	5.871440e+03	2.994805e+03	0	9.492982e-04
3.500000e+08	1.244638e+13	0.000000e+00	3.962265e-01	2.829827e+14	1.645135e+14	3.708202e+14	1.123659e+04	5.883502e+03	3.000958e+03	0	9.418477e-04
3.600000e+08	1.215788e+13	0.000000e+00	3.962265e-01	2.775885e+14	1.667292e+14	3.689059e+14	1.119519e+04	5.895329e+03	3.006991e+03	0	9.345136e-04
3.700000e+08	1.187821e+13	0.000000e+00	3.962265e-01	2.723568e+14	1.689235e+14	3.670055e+14	1.115458e+04	5.906926e+03	3.012906e+03	0	9.272923e-04
3.800000e+08	1.160698e+13	0.000000e+00	3.962265e-01	2.672806e+14	1.710964e+14	3.651188e+14	1.111472e+04	5.918296e+03	3.018705e+03	0	9.201800e-04
3.900000e+08	1.134386e+13	0.000000e+00	3.962265e-01	2.623536e+14	1.732475e+14	3.632457e+14	1.107560e+04	5.929445e+03	3.024392e+03	0	9.131733e-04
4.000000e+08	1.108849e+13	0.000000e+00	3.962265e-01	2.575696e+14	1.753766e+14	3.613862e+14	1.103720e+04	5.940377e+03	3.029968e+03	0	9.062691e-04
4.100000e+08	1.084058e+13	0.000000e+00	3.962265e-01	2.529229e+14	1.774835e+14	3.595401e+14	1.099950e+04	5.951096e+03	3.035435e+03	0	8.994640e-04
4.200000e+08	1.059981e+13	0.000000e+00	3.962265e-01	2.484080e+14	1.795681e+14	3.577073e+14	1.096247e+04	5.961608e+03	3.040797e+03	0	8.927551e-04
4.300000e+08	1.036591e+13	0.000000e+00	3.962265e-01	2.440197e+14	1.816302e+14	3.558877e+14	1.092610e+04	5.971915e+03	3.046054e+03	0	8.861395e-04
4.400000e+08	1.013860e+13	0.000000e+00	3.962265e-01	2.397531e+14	1.836696e+14	3.540812e+14	1.089037e+04	5.982021e+03	3.051209e+03	0	8.796144e-04
4.500000e+08	9.917635e+12	0.000000e+00	3.962265e-01	2.356035e+14	1.856861e+14	3.522877e+14	1.085526e+04	5.991931e+03	3.056264e+03	0	8.731771e-04
4.600000e+08	9.702766e+12	0.000000e+00	3.962265e-01	2.315665e+14	1.876798e+14	3.505070e+14	1.082075e+04	6.001649e+03	3.061220e+03	0	8.668251e-04
4.700000e+08	9.493764e+12	0.000000e+00	3.962265e-01	2.276378e+14	1.896502e+14	3.487391e+14	1.078683e+04	6.011177e+03	3.066080e+03	0	8.605560e-04
4.800000e+08	9.290410e+12	0.000000e+00	3.962265e-01	2.238134e+14	1.915975e+14	3.469839e+14	1.075348e+04	6.020520e+03	3.070846e+03	0	8.543673e-04
4.900000e+08	9.092494e+12	0.000000e+00	3.962265e-01	2.200895e+14	1.935214e+14	3.452413e+14	1.072069e+04	6.029680e+03	3.075518e+03	0	8.482567e-04
5.000000e+08	8.899818e+12	0.000000e+00	3.962265e-01	2.164625e+14	1.954219e+14	3.435111e+14	1.068844e+04	6.038661e+03	3.080099e+03	0	8.422222e-04
5.100000e+08	8.712193e+12	0.000000e+00	3.962265e-01	2.129289e+14	1.972989e+14	3.417932e+14	1.065672e+04	6.047467e+03	3.084590e+03	0	8.362616e-04
5.200000e+08	8.529438e+12	0.000000e+00	3.962265e-01	2.094854e+14	1.991524e+14	3.400877e+14	1.062551e+04	6.056100e+03	3.088994e+03	0	8.303728e-04
5.300000e+08	8.351381e+12	0.000000e+00	3.962265e-01	2.061288e+14	2.009822e+14	3.383943e+14	1.059481e+04	6.064563e+03	3.093311e+03	0	8.245539e-04
5.400000e+08	8.177857e+12	0.000000e+00	3.962265e-01	2.028561e+14	2.027883e+14	3.367129e+14	1.056459e+04	6.072860e+03	3.097543e+03	0	8.188031e-04
5.500000e+08	8.008710e+12	0.000000e+00	3.962265e-01	1.996644e+14	2.045707e+14	3.350435e+14	1.053486e+04	6.080993e+03	3.101691e+03	0	8.131185e-04
5.600000e+08	7.843789e+12	0.000000e+00	3.962265e-01	1.965510e+14	2.063293e+14	3.333860e+14	1.050558e+04	6.088965e+03	3.105757e+03	0	8.074983e-04
5.700000e+08	7.682953e+12	0.000000e+00	3.962265e-01	1.935132e+14	2.080641e+14	3.317403e+14	1.047677e+04	6.096780e+03	3.109743e+03	0	8.019409e-04
5.800000e+08	7.526062e+12	0.000000e+00	3.962265e-01	1.905486e+14	2.097751e+14	3.301062e+14	1.044839e+04	6.104439e+03	3.113650e+03	0	7.964446e-04
5.900000e+08	7.372988e+12	0.000000e+00	3.962265e-01	1.876547e+14	2.114622e+14	3.284837e+14	1.042045e+04	6.111945e+03	3.117478e+03	0	7.910079e-04
6.000000e+08	7.223603e+12	0.000000e+00	3.962265e-01	1.848293e+14	2.131256e+14	3.268728e+14	1.039293e+04	6.119301e+03	3.121230e+03	0	7.856292e-04
6.100000e+08	7.077788e+12	0.000000e+00	3.962265e-01	1.820700e+14	2.147652e+14	3.252732e+14	1.036582e+04	6.126509e+03	3.124907e+03	0	7.803070e-04
6.200000e+08	6.935429e+12	0.000000e+00	3.962265e-01	1.793749e+14	2.163809e+14	3.236849e+14	1.033911e+04	6.133572e+03	3.128510e+03	0	7.750400e-04
6.300000e+08	6.796414e+12	0.000000e+00	3.962265e-01	1.767418e+14	2.179729e+14	3.221078e+14	1.031280e+04	6.140493e+03	3.132040e+03	0	7.698266e-04
6.400000e+08	6.660639e+12	0.000000e+00	3.962265e-01	1.741689e+14	2.195411e+14	3.205418e+14	1.028687e+04	6.147273e+03	3.135498e+03	0	7.646657e-04
6.500000e+08	6.528001e+12	0.000000e+00	3.962265e-01	1.716542e+14	2.210857e+14	3.189869e+14	1.026132e+04	6.153915e+03	3.138886e+03	0	7.595559e-04
6.600000e+08	6.398403e+12	0.000000e+00	3.962265e-01	1.691960e+14	2.226066e+14	3.174429e+14	1.023614e+04	6.160421e+03	3.142204e+03	0	7.544958e-04
6.700000e+08	6.271753e+12	0.000000e+00	3.962265e-01	1.667926e+14	2.241039e+14	3.159097e+14	1.021131e+04	6.166793e+03	3.145454e+03	0	7.494844e-04
6.800000e+08	6.147960e+12	0.000000e+00	3.962265e-01	1.644423e+14	2.255776e+14	3.143874e+14	1.018684e+04	6.173034e+03	3.148638e+03	0	7.445205e-04
6.900000e+08	6.026937e+12	0.000000e+00	3.962265e-01	1.621435e+14	2.270279e+14	3.128757e+14	1.016270e+04	6.179145e+03	3.151755e+03	0	7.396028e-04
7.000000e+08	5.908603e+12	0.000000e+00	3.962265e-01	1.598947e+14	2.284548e+14	3.113746e+14	1.013891e+04	6.185130e+03	3.154807e+03	0	7.347302e-04
7.100000e+08	5.792877e+12	0.000000e+00	3.962265e-01	1.576945e+14	2.298584e+14	3.098840e+14	1.011544e+04	6.190989e+03	3.157796e+03	0	7.299018e-04
7.200000e+08	5.679684e+12	0.000000e+00	3.962265e-01	1.555413e+14	2.312387e+14	3.084039e+14	1.009229e+04	6.196724e+03	3.160721e+03	0	7.251163e-04
7.300000e+08	5.568948e+12	0.000000e+00	3.962265e-01	1.534339e+14	2.325959e+14	3.069341e+14	1.006946e+04	6.202339e+03	3.163585e+03	0	7.203729e-04
7.400000e+08	5.460599e+12	0.000000e+00	3.962265e-01	1.513710e+14	2.339300e+14	3.054745e+14	1.004694e+04	6.207834e+03	3.166388e+03	0	7.156705e-04
7.500000e+08	5.354570e+12	0.000000e+00	3.962265e-01	1.493512e+14	2.352413e+14	3.040251e+14	1.002472e+04	6.213211e+03	3.169131e+03	0	7.110080e-04
7.600000e+08	5.250793e+12	0.000000e+00	3.962265e-01	1.473735e+14	2.365296e+14	3.025858e+14	1.000279e+04	6.218473e+03	3.171815e+03	0	7.063847e-04
7.700000e+08	5.149205e+12	0.000000e+00	3.962265e-01	1.454365e+14	2.377952e+14	3.011566e+14	9.981153e+03	6.223621e+03	3.174440e+03	0	7.017995e-04
7.800000e+08	5.049746e+12	0.000000e+00	3.962265e-01	1.435392e+14	2.390383e+14	2.997372e+14	9.959798e+03	6.228657e+03	3.177009e+03	0	6.972516e-04
7.900000e+08	4.952356e+12	0.000000e+00	3.962265e-01	1.416805e+14	2.402588e+14	2.983278e+14	9.938721e+03	6.233583e+03	3.179522e+03	0	6.927400e-04
8.000000e+08	4.856979e+12	0.000000e+00	3.962265e-01	1.398593e+14	2.414569e+14	2.969281e+14	9.917915e+03	6.238400e+03	3.181979e+03	0	6.882640e-04
8.100000e+08	4.763559e+12	0.000000e+00	3.962265e-01	1.380747e+14	2.426329e+14	2.955380e+14	9.897376e+03	6.243111e+03	3.184381e+03	0	6.838227e-04
8.200000e+08	4.672044e+12	0.000000e+00	3.962265e-01	1.363255e+14	2.437867e+14	2.941577e+14	9.877098e+03	6.247716e+03	3.186730e+03	0	6.794152e-04
8.300000e+08	4.582382e+12	0.000000e+00	3.962265e-01	1.346110e+14	2.449186e+14	2.927868e+14	9.857076e+03	6.252217e+03	3.189026e+03	0	6.750409e-04
8.400000e+08	4.494524e+12	0.000000e+00	3.962265e-01	1.329302e+14	2.460287e+14	2.914255e+14	9.837305e+03	6.256617e+03	3.191270e+03	0	6.706988e-04
8.500000e+08	4.408423e+12	0.000000e+00	3.962265e-01	1.312822e+14	2.471170e+14	2.900735e+14	9.817779e+03	6.260916e+03	3.193463e+03	0	6.663883e-04
8.600000e+08	4.324032e+12	0.000000e+00	3.962265e-01	1.296662e+14	2.481838e+14	2.887308e+14	9.798494e+03	6.265116e+03	3.195605e+03	0	6.621087e-04
8.700000e+08	4.241306e+12	0.000000e+00	3.962265e-01	1.280812e+14	2.492293e+14	2.873974e+14	9.779446e+03	6.269219e+03	3.197698e+03	0	6.578590e-04
8.800000e+08	4.160203e+12	0.000000e+00	3.962265e-01	1.265266e+14	2.502535e+14	2.860732e+14	9.760630e+03	6.273226e+03	3.199742e+03	0	6.536388e-04
8.900000e+08	4.080680e+12	0.000000e+00	3.962265e-01	1.250016e+14	2.512567e+14	2.847580e+14	9.742042e+03	6.277139e+03	3.201738e+03	0	6.494472e-04
9.000000e+08	4.002699e+12	0.000000e+00	3.962265e-01	1.235054e+14	2.522389e+14	2.834519e+14	9.723676e+03	6.280958e+03	3.203686e+03	0	6.452836e-04
9.100000e+08	3.926218e+12	0.000000e+00	3.962265e-01	1.220372e+14	2.532004e+14	2.821547e+14	9.705530e+03	6.284687e+03	3.205588e+03	0	6.411473e-04
9.200000e+08	3.851202e+12	0.000000e+00	3.962265e-01	1.205965e+14	2.541414e+14	2.808664e+14	9.687598e+03	6.288325e+03	3.207443e+03	0	6.370376e-04
9.300000e+08	3.777612e+12	0.000000e+00	3.962265e-01	1.191825e+14	2.550619e+14	2.795870e+14	9.669877e+03	6.291874e+03	3.209254e+03	0	6.329540e-04
9.400000e+08	3.705415e+12	0.000000e+00	3.962265e-01	1.177945e+14	2.559622e+14	2.783163e+14	9.652364e+03	6.295336e+03	3.211019e+03	0	6.288957e-04
9.500000e+08	3.634575e+12	0.000000e+00	3.962265e-01	1.164320e+14	2.568423e+14	2.770542e+14	9.635053e+03	6.298712e+03	3.212741e+03	0	6.248621e-04
9.600000e+08	3.565059e+12	0.000000e+00	3.962265e-01	1.150943e+14	2.577026e+14	2.758008e+14	9.617942e+03	6.302003e+03	3.214420e+03	0	6.208527e-04
9.700000e+08	3.496835e+12	0.000000e+00	3.962265e-01	1.137808e+14	2.585432e+14	2.745558e+14	9.601027e+03	6.305211e+03	3.216056e+03	0	6.168668e-04
9.800000e+08	3.429872e+12	0.000000e+00	3.962265e-01	1.124909e+14	2.593642e+14	2.733194e+14	9.584304e+03	6.308337e+03	3.217651e+03	0	6.129038e-04
9.900000e+08	3.364140e+12	0.000000e+00	3.962265e-01	1.112241e+14	2.601659e+14	2.720914e+14	9.567770e+03	6.311381e+03	3.219204e+03	0	6.089631e-04
1.000000e+09	3.299608e+12	0.000000e+00	3.962265e-01	1.099798e+14	2.609483e+14	2.708717e+14	9.551422e+03	6.314346e+03	3.220716e+03	0	6.050442e-04
1.010000e+09	3.236250e+12	0.000000e+00	3.962265e-01	1.087576e+14	2.617118e+14	2.696603e+14	9.535256e+03	6.317233e+03	3.222188e+03	0	6.011465e-04
1.020000e+09	3.174036e+12	0.000000e+00	3.962265e-01	1.075568e+14	2.624564e+14	2.684570e+14	9.519269e+03	6.320042e+03	3.223621e+03	0	5.972694e-04
1.030000e+09	3.112941e+12	0.000000e+00	3.962265e-01	1.063770e+14	2.631824e+14	2.672620e+14	9.503457e+03	6.322775e+03	3.225015e+03	0	5.934124e-04
1.040000e+09	3.052938e+12	0.000000e+00	3.962265e-01	1.052177e+14	2.638899e+14	2.660750e+14	9.487819e+03	6.325434e+03	3.226371e+03	0	5.895749e-04
1.050000e+09	2.994002e+12	0.000000e+00	3.962265e-01	1.040785e+14	2.645792e+14	2.648960e+14	9.472351e+03	6.328018e+03	3.227689e+03	0	5.857563e-04
1.060000e+09	2.936108e+12	0.000000e+00	3.962265e-01	1.029588e+14	2.652503e+14	2.637249e+14	9.457049e+03	6.330530e+03	3.228970e+03	0	5.819563e-04
1.070000e+09	2.879233e+12	0.000000e+00	3.962265e-01	1.018583e+14	2.659036e+14	2.625618e+14	9.441911e+03	6.332970e+03	3.230215e+03	0	5.781741e-04
1.080000e+09	2.823354e+12	0.000000e+00	3.962265e-01	1.007765e+14	2.665391e+14	2.614065e+14	9.426935e+03	6.335340e+03	3.231424e+03	0	5.744092e-04
1.090000e+09	2.768447e+12	0.000000e+00	3.962265e-01	9.971296e+13	2.671571e+14	2.602589e+14	9.412117e+03	6.337640e+03	3.232597e+03	0	5.706613e-04
1.100000e+09	2.714492e+12	0.000000e+00	3.962265e-01	9.866733e+13	2.677578e+14	2.591191e+14	9.397455e+03	6.339872e+03	3.233735e+03	0	5.669297e-04
1.110000e+09	2.661467e+12	0.000000e+00	3.962265e-01	9.763919e+13	2.683413e+14	2.579869e+14	9.382947e+03	6.342036e+03	3.234839e+03	0	5.632138e-04
1.120000e+09	2.609350e+12	0.000000e+00	3.962265e-01	9.662816e+13	2.689079e+14	2.568623e+14	9.368589e+03	6.344134e+03	3.235910e+03	0	5.595133e-04
1.130000e+09	2.558123e+12	0.000000e+00	3.962265e-01	9.563386e+13	2.694577e+14	2.557452e+14	9.354379e+03	6.346167e+03	3.236947e+03	0	5.558276e-04
1.140000e+09	2.507766e+12	0.000000e+00	3.962265e-01	9.465594e+13	2.699909e+14	2.546356e+14	9.340315e+03	6.348136e+03	3.237951e+03	0	5.521562e-04
1.150000e+09	2.458259e+12	0.000000e+00	3.962265e-01	9.369403e+13	2.705077e+14	2.535333e+14	9.326394e+03	6.350041e+03	3.238922e+03	0	5.484986e-04
1.160000e+09	2.409584e+12	0.000000e+00	3.962265e-01	9.274780e+13	2.710083e+14	2.524385e+14	9.312614e+03	6.351884e+03	3.239862e+03	0	5.448543e-04
1.170000e+09	2.361724e+12	0.000000e+00	3.962265e-01	9.181690e+13	2.714929e+14	2.513509e+14	9.298973e+03	6.353666e+03	3.240771e+03	0	5.412227e-04
1.180000e+09	2.314660e+12	0.000000e+00	3.962265e-01	9.090102e+13	2.719616e+14	2.502706e+14	9.285469e+03	6.355387e+03	3.241649e+03	0	5.376034e-04
1.190000e+09	2.268375e+12	0.000000e+00	3.962265e-01	8.999983e+13	2.724147e+14	2.491974e+14	9.272098e+03	6.357048e+03	3.242496e+03	0	5.339959e-04
1.200000e+09	2.222854e+12	0.000000e+00	3.962265e-01	8.911303e+13	2.728523e+14	2.481314e+14	9.258860e+03	6.358651e+03	3.243314e+03	0	5.303997e-04
1.210000e+09	2.178079e+12	0.000000e+00	3.962265e-01	8.824032e+13	2.732747e+14	2.470724e+14	9.245752e+03	6.360196e+03	3.244102e+03	0	5.268143e-04
1.220000e+09	2.134036e+12	0.000000e+00	3.962265e-01	8.738139e+13	2.736820e+14	2.460205e+14	9.232772e+03	6.361684e+03	3.244861e+03	0	5.232391e-04
1.230000e+09	2.090708e+12	0.000000e+00	3.962265e-01	8.653598e+13	2.740744e+14	2.449755e+14	9.219918e+03	6.363116e+03	3.245592e+03	0	5.196737e-04
1.240000e+09	2.048081e+12	0.000000e+00	3.962265e-01	8.570379e+13	2.744521e+14	2.439375e+14	9.207188e+03	6.364493e+03	3.246294e+03	0	5.161176e-04
1.250000e+09	2.006141e+12	0.000000e+00	3.962265e-01	8.488456e+13	2.748152e+14	2.429062e+14	9.194580e+03	6.365816e+03	3.246969e+03	0	5.125703e-04
1.260000e+09	1.964873e+12	0.000000e+00	3.962265e-01	8.407803e+13	2.751640e+14	2.418818e+14	9.182092e+03	6.367085e+03	3.247616e+03	0	5.090312e-04
1.270000e+09	1.924263e+12	0.000000e+00	3.962265e-01	8.328393e+13	2.754987e+14	2.408641e+14	9.169722e+03	6.368302e+03	3.248237e+03	0	5.054999e-04
1.280000e+09	1.884298e+12	0.000000e+00	3.962265e-01	8.250202e+13	2.758194e+14	2.398532e+14	9.157469e+03	6.369467e+03	3.248831e+03	0	5.019758e-04
1.290000e+09	1.844964e+12	0.000000e+00	3.962265e-01	8.173204e+13	2.761262e+14	2.388488e+14	9.145331e+03	6.370580e+03	3.249399e+03	0	4.984585e-04
1.300000e+09	1.806250e+12	0.000000e+00	3.962265e-01	8.097377e+13	2.764195e+14	2.378511e+14	9.133305e+03	6.371644e+03	3.249941e+03	0	4.949473e-04
1.310000e+09	1.768142e+12	0.000000e+00	3.962265e-01	8.022697e+13	2.766993e+14	2.368599e+14	9.121391e+03	6.372658e+03	3.250458e+03	0	4.914417e-04
1.320000e+09	1.730629e+12	0.000000e+00	3.962265e-01	7.949141e+13	2.769659e+14	2.358752e+14	9.109586e+03	6.373623e+03	3.250951e+03	0	4.879413e-04
1.330000e+09	1.693698e+12	0.000000e+00	3.962265e-01	7.876687e+13	2.772194e+14	2.348969e+14	9.097889e+03	6.374540e+03	3.251418e+03	0	4.844455e-04
1.340000e+09	1.657337e+12	0.000000e+00	3.962265e-01	7.805313e+13	2.774600e+14	2.339250e+14	9.086299e+03	6.375410e+03	3.251862e+03	0	4.809537e-04
1.350000e+09	1.621537e+12	0.000000e+00	3.962265e-01	7.734998e+13	2.776879e+14	2.329595e+14	9.074813e+03	6.376233e+03	3.252282e+03	0	4.774654e-04
1.360000e+09	1.586285e+12	0.000000e+00	3.962265e-01	7.665722e+13	2.779032e+14	2.320002e+14	9.063431e+03	6.377011e+03	3.252679e+03	0	4.739800e-04
