#t		Qconv[W]	Ri[Rp]		R*[Rp]		Qc[W]		Qm[W]		Qr[W]		Tcmb[K]		Tl[K]		Tup[K]		RiFlag		Bs[T]
0.000000e+00	4.142893e+13	0.000000e+00	3.962263e-01	7.909506e+14	7.394207e+13	4.864351e+14	1.434889e+04	5.476959e+03	2.725825e+03	0	1.401603e-03
1.000000e+07	3.994666e+13	0.000000e+00	3.962263e-01	7.652567e+14	7.662244e+13	4.837399e+14	1.424491e+04	5.504066e+03	2.739316e+03	0	1.384683e-03
2.000000e+07	3.854446e+13	0.000000e+00	3.962263e-01	7.409360e+14	7.930517e+13	4.810649e+14	1.414426e+04	5.530472e+03	2.752458e+03	0	1.368288e-03
3.000000e+07	3.721631e+13	0.000000e+00	3.962263e-01	7.178860e+14	8.198915e+13	4.784098e+14	1.404677e+04	5.556209e+03	2.765267e+03	0	1.352388e-03
4.000000e+07	3.595679e+13	0.000000e+00	3.962263e-01	6.960141e+14	8.467341e+13	4.757746e+14	1.395228e+04	5.581304e+03	2.777756e+03	0	1.336956e-03
5.000000e+07	3.476096e+13	0.000000e+00	3.962263e-01	6.752360e+14	8.735691e+13	4.731590e+14	1.386063e+04	5.605786e+03	2.789941e+03	0	1.321968e-03
6.000000e+07	3.362436e+13	0.000000e+00	3.962263e-01	6.554752e+14	9.003874e+13	4.705629e+14	1.377169e+04	5.629680e+03	2.801833e+03	0	1.307400e-03
7.000000e+07	3.254290e+13	0.000000e+00	3.962263e-01	6.366620e+14	9.271797e+13	4.679861e+14	1.368532e+04	5.653008e+03	2.813443e+03	0	1.293230e-03
8.000000e+07	3.151285e+13	0.000000e+00	3.962263e-01	6.187327e+14	9.539374e+13	4.654285e+14	1.360140e+04	5.675794e+03	2.824783e+03	0	1.279439e-03
9.000000e+07	3.053082e+13	0.000000e+00	3.962263e-01	6.016292e+14	9.806520e+13	4.628900e+14	1.351981e+04	5.698057e+03	2.835863e+03	0	1.266008e-03
1.000000e+08	2.959369e+13	0.000000e+00	3.962263e-01	5.852981e+14	1.007316e+14	4.603703e+14	1.344046e+04	5.719816e+03	2.846692e+03	0	1.252920e-03
1.100000e+08	2.869859e+13	0.000000e+00	3.962263e-01	5.696905e+14	1.033920e+14	4.578692e+14	1.336324e+04	5.741090e+03	2.857280e+03	0	1.240158e-03
1.200000e+08	2.784291e+13	0.000000e+00	3.962263e-01	5.547613e+14	1.060458e+14	4.553867e+14	1.328806e+04	5.761895e+03	2.867635e+03	0	1.227708e-03
1.300000e+08	2.702421e+13	0.000000e+00	3.962263e-01	5.404693e+14	1.086922e+14	4.529226e+14	1.321483e+04	5.782248e+03	2.877764e+03	0	1.215555e-03
1.400000e+08	2.624027e+13	0.000000e+00	3.962263e-01	5.267761e+14	1.113305e+14	4.504768e+14	1.314346e+04	5.802162e+03	2.887675e+03	0	1.203686e-03
1.500000e+08	2.548904e+13	0.000000e+00	3.962263e-01	5.136467e+14	1.139601e+14	4.480490e+14	1.307389e+04	5.821654e+03	2.897376e+03	0	1.192087e-03
1.600000e+08	2.476860e+13	0.000000e+00	3.962263e-01	5.010482e+14	1.165802e+14	4.456391e+14	1.300604e+04	5.840735e+03	2.906872e+03	0	1.180749e-03
1.700000e+08	2.407720e+13	0.000000e+00	3.962263e-01	4.889507e+14	1.191902e+14	4.432470e+14	1.293983e+04	5.859418e+03	2.916171e+03	0	1.169658e-03
1.800000e+08	2.341320e+13	0.000000e+00	3.962263e-01	4.773260e+14	1.217896e+14	4.408726e+14	1.287520e+04	5.877716e+03	2.925277e+03	0	1.158806e-03
1.900000e+08	2.277510e+13	0.000000e+00	3.962263e-01	4.661482e+14	1.243777e+14	4.385157e+14	1.281210e+04	5.895639e+03	2.934198e+03	0	1.148181e-03
2.000000e+08	2.216147e+13	0.000000e+00	3.962263e-01	4.553932e+14	1.269540e+14	4.361761e+14	1.275047e+04	5.913198e+03	2.942937e+03	0	1.137775e-03
2.100000e+08	2.157102e+13	0.000000e+00	3.962263e-01	4.450385e+14	1.295178e+14	4.338536e+14	1.269024e+04	5.930405e+03	2.951500e+03	0	1.127580e-03
2.200000e+08	2.100252e+13	0.000000e+00	3.962263e-01	4.350631e+14	1.320687e+14	4.315483e+14	1.263137e+04	5.947267e+03	2.959892e+03	0	1.117586e-03
2.300000e+08	2.045483e+13	0.000000e+00	3.962263e-01	4.254474e+14	1.346061e+14	4.292599e+14	1.257381e+04	5.963795e+03	2.968118e+03	0	1.107785e-03
2.400000e+08	1.992688e+13	0.000000e+00	3.962263e-01	4.161734e+14	1.371296e+14	4.269882e+14	1.251751e+04	5.979997e+03	2.976182e+03	0	1.098171e-03
2.500000e+08	1.941770e+13	0.000000e+00	3.962263e-01	4.072239e+14	1.396386e+14	4.247332e+14	1.246243e+04	5.995882e+03	2.984088e+03	0	1.088737e-03
2.600000e+08	1.892634e+13	0.000000e+00	3.962263e-01	3.985829e+14	1.421327e+14	4.224947e+14	1.240852e+04	6.011458e+03	2.991839e+03	0	1.079475e-03
2.700000e+08	1.845195e+13	0.000000e+00	3.962263e-01	3.902355e+14	1.446114e+14	4.202726e+14	1.235575e+04	6.026732e+03	2.999441e+03	0	1.070379e-03
2.800000e+08	1.799369e+13	0.000000e+00	3.962263e-01	3.821678e+14	1.470743e+14	4.180667e+14	1.230407e+04	6.041712e+03	3.006897e+03	0	1.061444e-03
2.900000e+08	1.755082e+13	0.000000e+00	3.962263e-01	3.743665e+14	1.495210e+14	4.158768e+14	1.225346e+04	6.056405e+03	3.014209e+03	0	1.052663e-03
3.000000e+08	1.712261e+13	0.000000e+00	3.962263e-01	3.668193e+14	1.519510e+14	4.137030e+14	1.220387e+04	6.070817e+03	3.021382e+03	0	1.044032e-03
3.100000e+08	1.670838e+13	0.000000e+00	3.962263e-01	3.595147e+14	1.543640e+14	4.115450e+14	1.215527e+04	6.084956e+03	3.028419e+03	0	1.035544e-03
3.200000e+08	1.630750e+13	0.000000e+00	3.962263e-01	3.524416e+14	1.567597e+14	4.094027e+14	1.210763e+04	6.098827e+03	3.035322e+03	0	1.027195e-03
3.300000e+08	1.591938e+13	0.000000e+00	3.962263e-01	3.455898e+14	1.591375e+14	4.072759e+14	1.206092e+04	6.112436e+03	3.042095e+03	0	1.018980e-03
3.400000e+08	1.554344e+13	0.000000e+00	3.962263e-01	3.389496e+14	1.614973e+14	4.051647e+14	1.201512e+04	6.125789e+03	3.048741e+03	0	1.010895e-03
3.500000e+08	1.517917e+13	0.000000e+00	3.962263e-01	3.325118e+14	1.638386e+14	4.030687e+14	1.197019e+04	6.138891e+03	3.055262e+03	0	1.002935e-03
3.600000e+08	1.482604e+13	0.000000e+00	3.962263e-01	3.262678e+14	1.661612e+14	4.009879e+14	1.192610e+04	6.151749e+03	3.061661e+03	0	9.950970e-04
3.700000e+08	1.448361e+13	0.000000e+00	3.962263e-01	3.202095e+14	1.684646e+14	3.989222e+14	1.188284e+04	6.164366e+03	3.067940e+03	0	9.873760e-04
3.800000e+08	1.415141e+13	0.000000e+00	3.962263e-01	3.143291e+14	1.707488e+14	3.968714e+14	1.184038e+04	6.176749e+03	3.074103e+03	0	9.797686e-04
3.900000e+08	1.382902e+13	0.000000e+00	3.962263e-01	3.086194e+14	1.730134e+14	3.948355e+14	1.179869e+04	6.188901e+03	3.080151e+03	0	9.722712e-04
4.000000e+08	1.351604e+13	0.000000e+00	3.962263e-01	3.030734e+14	1.752580e+14	3.928143e+14	1.175775e+04	6.200827e+03	3.086087e+03	0	9.648804e-04
4.100000e+08	1.321209e+13	0.000000e+00	3.962263e-01	2.976845e+14	1.774825e+14	3.908076e+14	1.171754e+04	6.212533e+03	3.091912e+03	0	9.575928e-04
4.200000e+08	1.291682e+13	0.000000e+00	3.962263e-01	2.924466e+14	1.796866e+14	3.888154e+14	1.167805e+04	6.224022e+03	3.097630e+03	0	9.504052e-04
4.300000e+08	1.262987e+13	0.000000e+00	3.962263e-01	2.873538e+14	1.818701e+14	3.868376e+14	1.163924e+04	6.235298e+03	3.103242e+03	0	9.433148e-04
4.400000e+08	1.235094e+13	0.000000e+00	3.962263e-01	2.824005e+14	1.840328e+14	3.848740e+14	1.160111e+04	6.246365e+03	3.108750e+03	0	9.363185e-04
4.500000e+08	1.207970e+13	0.000000e+00	3.962263e-01	2.775814e+14	1.861745e+14	3.829245e+14	1.156363e+04	6.257228e+03	3.114157e+03	0	9.294135e-04
4.600000e+08	1.181586e+13	0.000000e+00	3.962263e-01	2.728913e+14	1.882949e+14	3.809890e+14	1.152678e+04	6.267891e+03	3.119463e+03	0	9.225972e-04
4.700000e+08	1.155916e+13	0.000000e+00	3.962263e-01	2.683257e+14	1.903939e+14	3.790673e+14	1.149056e+04	6.278356e+03	3.124672e+03	0	9.158670e-04
4.800000e+08	1.130932e+13	0.000000e+00	3.962263e-01	2.638797e+14	1.924714e+14	3.771595e+14	1.145494e+04	6.288628e+03	3.129784e+03	0	9.092203e-04
4.900000e+08	1.106609e+13	0.000000e+00	3.962263e-01	2.595492e+14	1.945272e+14	3.752653e+14	1.141990e+04	6.298710e+03	3.134802e+03	0	9.026549e-04
5.000000e+08	1.082924e+13	0.000000e+00	3.962263e-01	2.553299e+14	1.965611e+14	3.733846e+14	1.138543e+04	6.308605e+03	3.139726e+03	0	8.961683e-04
5.100000e+08	1.059852e+13	0.000000e+00	3.962263e-01	2.512179e+14	1.985729e+14	3.715174e+14	1.135153e+04	6.318317e+03	3.144560e+03	0	8.897584e-04
5.200000e+08	1.037374e+13	0.000000e+00	3.962263e-01	2.472094e+14	2.005627e+14	3.696635e+14	1.131816e+04	6.327849e+03	3.149304e+03	0	8.834231e-04
5.300000e+08	1.015467e+13	0.000000e+00	3.962263e-01	2.433009e+14	2.025301e+14	3.678228e+14	1.128533e+04	6.337204e+03	3.153960e+03	0	8.771602e-04
5.400000e+08	9.941120e+12	0.000000e+00	3.962263e-01	2.394888e+14	2.044753e+14	3.659953e+14	1.125301e+04	6.346386e+03	3.158530e+03	0	8.709678e-04
5.500000e+08	9.732901e+12	0.000000e+00	3.962263e-01	2.357700e+14	2.063979e+14	3.641807e+14	1.122119e+04	6.355396e+03	3.163014e+03	0	8.648439e-04
5.600000e+08	9.529830e+12	0.000000e+00	3.962263e-01	2.321412e+14	2.082981e+14	3.623791e+14	1.118987e+04	6.364239e+03	3.167415e+03	0	8.587868e-04
5.700000e+08	9.331734e+12	0.000000e+00	3.962263e-01	2.285996e+14	2.101756e+14	3.605902e+14	1.115902e+04	6.372917e+03	3.171734e+03	0	8.527946e-04
5.800000e+08	9.138448e+12	0.000000e+00	3.962263e-01	2.251421e+14	2.120304e+14	3.588140e+14	1.112865e+04	6.381432e+03	3.175972e+03	0	8.468656e-04
5.900000e+08	8.949813e+12	0.000000e+00	3.962263e-01	2.217660e+14	2.138625e+14	3.570504e+14	1.109873e+04	6.389788e+03	3.180130e+03	0	8.409980e-04
6.000000e+08	8.765678e+12	0.000000e+00	3.962263e-01	2.184689e+14	2.156718e+14	3.552993e+14	1.106925e+04	6.397986e+03	3.184211e+03	0	8.351904e-04
6.100000e+08	8.585897e+12	0.000000e+00	3.962263e-01	2.152480e+14	2.174583e+14	3.535606e+14	1.104022e+04	6.406031e+03	3.188214e+03	0	8.294411e-04
6.200000e+08	8.410330e+12	0.000000e+00	3.962263e-01	2.121010e+14	2.192219e+14	3.518342e+14	1.101160e+04	6.413923e+03	3.192142e+03	0	8.237486e-04
6.300000e+08	8.238845e+12	0.000000e+00	3.962263e-01	2.090255e+14	2.209626e+14	3.501200e+14	1.098341e+04	6.421666e+03	3.195996e+03	0	8.181114e-04
6.400000e+08	8.071312e+12	0.000000e+00	3.962263e-01	2.060194e+14	2.226804e+14	3.484178e+14	1.095562e+04	6.429262e+03	3.199776e+03	0	8.125281e-04
6.500000e+08	7.907610e+12	0.000000e+00	3.962263e-01	2.030806e+14	2.243753e+14	3.467277e+14	1.092823e+04	6.436713e+03	3.203484e+03	0	8.069973e-04
6.600000e+08	7.747621e+12	0.000000e+00	3.962263e-01	2.002069e+14	2.260473e+14	3.450494e+14	1.090123e+04	6.444022e+03	3.207122e+03	0	8.015177e-04
6.700000e+08	7.591230e+12	0.000000e+00	3.962263e-01	1.973964e+14	2.276964e+14	3.433829e+14	1.087461e+04	6.451190e+03	3.210690e+03	0	7.960879e-04
6.800000e+08	7.438330e+12	0.000000e+00	3.962263e-01	1.946472e+14	2.293225e+14	3.417282e+14	1.084836e+04	6.458221e+03	3.214189e+03	0	7.907068e-04
6.900000e+08	7.288816e+12	0.000000e+00	3.962263e-01	1.919575e+14	2.309258e+14	3.400850e+14	1.082247e+04	6.465116e+03	3.217620e+03	0	7.853730e-04
7.000000e+08	7.142587e+12	0.000000e+00	3.962263e-01	1.893255e+14	2.325062e+14	3.384534e+14	1.079694e+04	6.471878e+03	3.220986e+03	0	7.800854e-04
7.100000e+08	6.999547e+12	0.000000e+00	3.962263e-01	1.867497e+14	2.340638e+14	3.368332e+14	1.077176e+04	6.478508e+03	3.224285e+03	0	7.748428e-04
7.200000e+08	6.859602e+12	0.000000e+00	3.962263e-01	1.842282e+14	2.355986e+14	3.352243e+14	1.074692e+04	6.485008e+03	3.227520e+03	0	7.696441e-04
7.300000e+08	6.722663e+12	0.000000e+00	3.962263e-01	1.817597e+14	2.371107e+14	3.336267e+14	1.072241e+04	6.491381e+03	3.230692e+03	0	7.644882e-04
7.400000e+08	6.588645e+12	0.000000e+00	3.962263e-01	1.793425e+14	2.386001e+14	3.320402e+14	1.069823e+04	6.497628e+03	3.233801e+03	0	7.593739e-04
7.500000e+08	6.457463e+12	0.000000e+00	3.962263e-01	1.769753e+14	2.400669e+14	3.304648e+14	1.067438e+04	6.503752e+03	3.236849e+03	0	7.543003e-04
7.600000e+08	6.329039e+12	0.000000e+00	3.962263e-01	1.746567e+14	2.415111e+14	3.289003e+14	1.065083e+04	6.509754e+03	3.239836e+03	0	7.492664e-04
7.700000e+08	6.203294e+12	0.000000e+00	3.962263e-01	1.723853e+14	2.429329e+14	3.273467e+14	1.062759e+04	6.515636e+03	3.242764e+03	0	7.442710e-04
7.800000e+08	6.080155e+12	0.000000e+00	3.962263e-01	1.701598e+14	2.443322e+14	3.258040e+14	1.060465e+04	6.521400e+03	3.245632e+03	0	7.393133e-04
7.900000e+08	5.959550e+12	0.000000e+00	3.962263e-01	1.679789e+14	2.457092e+14	3.242719e+14	1.058201e+04	6.527048e+03	3.248443e+03	0	7.343924e-04
8.000000e+08	5.841410e+12	0.000000e+00	3.962263e-01	1.658416e+14	2.470639e+14	3.227505e+14	1.055966e+04	6.532581e+03	3.251197e+03	0	7.295072e-04
8.100000e+08	5.725669e+12	0.000000e+00	3.962263e-01	1.637465e+14	2.483965e+14	3.212396e+14	1.053759e+04	6.538001e+03	3.253895e+03	0	7.246568e-04
8.200000e+08	5.612261e+12	0.000000e+00	3.962263e-01	1.616926e+14	2.497070e+14	3.197392e+14	1.051579e+04	6.543311e+03	3.256537e+03	0	7.198405e-04
8.300000e+08	5.501125e+12	0.000000e+00	3.962263e-01	1.596788e+14	2.509956e+14	3.182491e+14	1.049427e+04	6.548511e+03	3.259125e+03	0	7.150573e-04
8.400000e+08	5.392200e+12	0.000000e+00	3.962263e-01	1.577041e+14	2.522623e+14	3.167694e+14	1.047302e+04	6.553603e+03	3.261659e+03	0	7.103063e-04
8.500000e+08	5.285429e+12	0.000000e+00	3.962263e-01	1.557673e+14	2.535072e+14	3.152998e+14	1.045203e+04	6.558588e+03	3.264140e+03	0	7.055867e-04
8.600000e+08	5.180756e+12	0.000000e+00	3.962263e-01	1.538677e+14	2.547304e+14	3.138404e+14	1.043129e+04	6.563469e+03	3.266570e+03	0	7.008978e-04
8.700000e+08	5.078126e+12	0.000000e+00	3.962263e-01	1.520041e+14	2.559322e+14	3.123910e+14	1.041081e+04	6.568247e+03	3.268948e+03	0	6.962387e-04
8.800000e+08	4.977486e+12	0.000000e+00	3.962263e-01	1.501758e+14	2.571126e+14	3.109516e+14	1.039057e+04	6.572924e+03	3.271275e+03	0	6.916085e-04
8.900000e+08	4.878787e+12	0.000000e+00	3.962263e-01	1.483818e+14	2.582717e+14	3.095221e+14	1.037058e+04	6.577500e+03	3.273553e+03	0	6.870067e-04
9.000000e+08	4.781979e+12	0.000000e+00	3.962263e-01	1.466212e+14	2.594096e+14	3.081024e+14	1.035082e+04	6.581978e+03	3.275781e+03	0	6.824322e-04
9.100000e+08	4.687014e+12	0.000000e+00	3.962263e-01	1.448932e+14	2.605264e+14	3.066924e+14	1.033130e+04	6.586359e+03	3.277962e+03	0	6.778846e-04
9.200000e+08	4.593847e+12	0.000000e+00	3.962263e-01	1.431970e+14	2.616224e+14	3.052921e+14	1.031201e+04	6.590644e+03	3.280094e+03	0	6.733629e-04
9.300000e+08	4.502434e+12	0.000000e+00	3.962263e-01	1.415319e+14	2.626977e+14	3.039013e+14	1.029294e+04	6.594834e+03	3.282180e+03	0	6.688665e-04
9.400000e+08	4.412730e+12	0.000000e+00	3.962263e-01	1.398971e+14	2.637522e+14	3.025201e+14	1.027409e+04	6.598932e+03	3.284219e+03	0	6.643946e-04
9.500000e+08	4.324694e+12	0.000000e+00	3.962263e-01	1.382918e+14	2.647864e+14	3.011483e+14	1.025546e+04	6.602938e+03	3.286213e+03	0	6.599466e-04
9.600000e+08	4.238287e+12	0.000000e+00	3.962263e-01	1.367154e+14	2.658002e+14	2.997859e+14	1.023704e+04	6.606854e+03	3.288162e+03	0	6.555217e-04
9.700000e+08	4.153467e+12	0.000000e+00	3.962263e-01	1.351671e+14	2.667937e+14	2.984327e+14	1.021884e+04	6.610681e+03	3.290067e+03	0	6.511193e-04
9.800000e+08	4.070198e+12	0.000000e+00	3.962263e-01	1.336463e+14	2.677673e+14	2.970887e+14	1.020083e+04	6.614421e+03	3.291928e+03	0	6.467387e-04
9.900000e+08	3.988443e+12	0.000000e+00	3.962263e-01	1.321524e+14	2.687209e+14	2.957539e+14	1.018303e+04	6.618074e+03	3.293746e+03	0	6.423792e-04
1.000000e+09	3.908166e+12	0.000000e+00	3.962263e-01	1.306846e+14	2.696549e+14	2.944281e+14	1.016543e+04	6.621642e+03	3.295522e+03	0	6.380401e-04
1.010000e+09	3.829332e+12	0.000000e+00	3.962263e-01	1.292425e+14	2.705692e+14	2.931113e+14	1.014802e+04	6.625126e+03	3.297256e+03	0	6.337208e-04
1.020000e+09	3.751907e+12	0.000000e+00	3.962263e-01	1.278254e+14	2.714641e+14	2.918035e+14	1.013081e+04	6.628528e+03	3.298949e+03	0	6.294207e-04
1.030000e+09	3.675859e+12	0.000000e+00	3.962263e-01	1.264328e+14	2.723398e+14	2.905045e+14	1.011378e+04	6.631848e+03	3.300601e+03	0	6.251390e-04
1.040000e+09	3.601156e+12	0.000000e+00	3.962263e-01	1.250640e+14	2.731964e+14	2.892142e+14	1.009693e+04	6.635088e+03	3.302214e+03	0	6.208752e-04
1.050000e+09	3.527768e+12	0.000000e+00	3.962263e-01	1.237186e+14	2.740339e+14	2.879327e+14	1.008027e+04	6.638249e+03	3.303787e+03	0	6.166286e-04
1.060000e+09	3.455663e+12	0.000000e+00	3.962263e-01	1.223961e+14	2.748527e+14	2.866599e+14	1.006379e+04	6.641332e+03	3.305321e+03	0	6.123985e-04
1.070000e+09	3.384814e+12	0.000000e+00	3.962263e-01	1.210958e+14	2.756530e+14	2.853956e+14	1.004748e+04	6.644339e+03	3.306818e+03	0	6.081844e-04
1.080000e+09	3.315192e+12	0.000000e+00	3.962263e-01	1.198174e+14	2.764347e+14	2.841398e+14	1.003135e+04	6.647269e+03	3.308276e+03	0	6.039856e-04
1.090000e+09	3.246770e+12	0.000000e+00	3.962263e-01	1.185603e+14	2.771982e+14	2.828924e+14	1.001538e+04	6.650126e+03	3.309698e+03	0	5.998014e-04
1.100000e+09	3.179520e+12	0.000000e+00	3.962263e-01	1.173240e+14	2.779436e+14	2.816535e+14	9.999584e+03	6.652908e+03	3.311082e+03	0	5.956313e-04
1.110000e+09	3.113417e+12	0.000000e+00	3.962263e-01	1.161082e+14	2.786710e+14	2.804228e+14	9.983950e+03	6.655618e+03	3.312431e+03	0	5.914746e-04
1.120000e+09	3.048436e+12	0.000000e+00	3.962263e-01	1.149124e+14	2.793806e+14	2.792004e+14	9.968477e+03	6.658257e+03	3.313745e+03	0	5.873307e-04
1.130000e+09	2.984552e+12	0.000000e+00	3.962263e-01	1.137361e+14	2.800726e+14	2.779861e+14	9.953164e+03	6.660826e+03	3.315023e+03	0	5.831989e-04
1.140000e+09	2.921742e+12	0.000000e+00	3.962263e-01	1.125789e+14	2.807473e+14	2.767800e+14	9.938006e+03	6.663325e+03	3.316267e+03	0	5.790787e-04
1.150000e+09	2.859982e+12	0.000000e+00	3.962263e-01	1.114404e+14	2.814046e+14	2.755819e+14	9.923003e+03	6.665756e+03	3.317477e+03	0	5.749694e-04
1.160000e+09	2.799249e+12	0.000000e+00	3.962263e-01	1.103203e+14	2.820448e+14	2.743919e+14	9.908150e+03	6.668120e+03	3.318653e+03	0	5.708704e-04
1.170000e+09	2.739522e+12	0.000000e+00	3.962263e-01	1.092181e+14	2.826681e+14	2.732097e+14	9.893447e+03	6.670417e+03	3.319796e+03	0	5.667810e-04
1.180000e+09	2.680779e+12	0.000000e+00	3.962263e-01	1.081334e+14	2.832748e+14	2.720354e+14	9.878889e+03	6.672649e+03	3.320907e+03	0	5.627005e-04
1.190000e+09	2.623000e+12	0.000000e+00	3.962263e-01	1.070659e+14	2.838648e+14	2.708690e+14	9.864476e+03	6.674816e+03	3.321986e+03	0	5.586285e-04
1.200000e+09	2.566163e+12	0.000000e+00	3.962263e-01	1.060152e+14	2.844384e+14	2.697102e+14	9.850205e+03	6.676920e+03	3.323033e+03	0	5.545641e-04
1.210000e+09	2.510250e+12	0.000000e+00	3.962263e-01	1.049811e+14	2.849958e+14	2.685592e+14	9.836074e+03	6.678962e+03	3.324049e+03	0	5.505067e-04
1.220000e+09	2.455241e+12	0.000000e+00	3.962263e-01	1.039630e+14	2.855372e+14	2.674158e+14	9.822080e+03	6.680942e+03	3.325035e+03	0	5.464558e-04
1.230000e+09	2.401117e+12	0.000000e+00	3.962263e-01	1.029608e+14	2.860626e+14	2.662799e+14	9.808221e+03	6.682861e+03	3.325990e+03	0	5.424105e-04
1.240000e+09	2.347861e+12	0.000000e+00	3.962263e-01	1.019741e+14	2.865724e+14	2.651516e+14	9.794495e+03	6.684720e+03	3.326915e+03	0	5.383703e-04
1.250000e+09	2.295454e+12	0.000000e+00	3.962263e-01	1.010025e+14	2.870667e+14	2.640307e+14	9.780901e+03	6.686520e+03	3.327811e+03	0	5.343344e-04
1.260000e+09	2.243879e+12	0.000000e+00	3.962263e-01	1.000459e+14	2.875456e+14	2.629171e+14	9.767435e+03	6.688262e+03	3.328678e+03	0	5.303022e-04
1.270000e+09	2.193118e+12	0.000000e+00	3.962263e-01	9.910375e+13	2.880094e+14	2.618110e+14	9.754097e+03	6.689947e+03	3.329516e+03	0	5.262729e-04
1.280000e+09	2.143157e+12	0.000000e+00	3.962263e-01	9.817593e+13	2.884581e+14	2.607121e+14	9.740884e+03	6.691576e+03	3.330327e+03	0	5.222458e-04
1.290000e+09	2.093978e+12	0.000000e+00	3.962263e-01	9.726211e+13	2.888919e+14	2.596204e+14	9.727794e+03	6.693148e+03	3.331110e+03	0	5.182202e-04
1.300000e+09	2.045566e+12	0.000000e+00	3.962263e-01	9.636202e+13	2.893112e+14	2.585359e+14	9.714826e+03	6.694666e+03	3.331865e+03	0	5.141953e-04
1.310000e+09	1.997905e+12	0.000000e+00	3.962263e-01	9.547538e+13	2.897159e+14	2.574585e+14	9.701978e+03	6.696130e+03	3.332594e+03	0	5.101704e-04
1.320000e+09	1.950981e+12	0.000000e+00	3.962263e-01	9.460192e+13	2.901064e+14	2.563881e+14	9.689247e+03	6.697541e+03	3.333296e+03	0	5.061447e-04
1.330000e+09	1.904780e+12	0.000000e+00	3.962263e-01	9.374141e+13	2.904827e+14	2.553248e+14	9.676633e+03	6.698899e+03	3.333972e+03	0	5.021174e-04
1.340000e+09	1.859286e+12	0.000000e+00	3.962263e-01	9.289357e+13	2.908450e+14	2.542684e+14	9.664132e+03	6.700205e+03	3.334622e+03	0	4.980876e-04
1.350000e+09	1.814486e+12	0.000000e+00	3.962263e-01	9.205818e+13	2.911935e+14	2.532189e+14	9.651745e+03	6.701461e+03	3.335247e+03	0	4.940545e-04
1.360000e+09	1.770367e+12	0.000000e+00	3.962263e-01	9.123498e+13	2.915284e+14	2.521762e+14	9.639469e+03	6.702666e+03	3.335847e+03	0	4.900173e-04
