#t		Qconv[W]	Ri[Rp]		R*[Rp]		Qc[W]		Qm[W]		Qr[W]		Tcmb[K]		Tl[K]		Tup[K]		RiFlag		Bs[T]
0.000000e+00	4.583103e+13	0.000000e+00	3.962266e-01	8.518459e+14	7.179516e+13	5.116806e+14	1.488336e+04	5.608884e+03	2.752335e+03	0	1.447014e-03
1.000000e+07	4.421940e+13	0.000000e+00	3.962266e-01	8.248551e+14	7.442728e+13	5.088455e+14	1.477781e+04	5.636719e+03	2.765994e+03	0	1.429850e-03
2.000000e+07	4.269288e+13	0.000000e+00	3.962266e-01	7.992737e+14	7.706453e+13	5.060316e+14	1.467556e+04	5.663853e+03	2.779309e+03	0	1.413203e-03
3.000000e+07	4.124523e+13	0.000000e+00	3.962266e-01	7.749988e+14	7.970585e+13	5.032388e+14	1.457645e+04	5.690318e+03	2.792295e+03	0	1.397046e-03
4.000000e+07	3.987080e+13	0.000000e+00	3.962266e-01	7.519371e+14	8.235017e+13	5.004668e+14	1.448031e+04	5.716141e+03	2.804967e+03	0	1.381352e-03
5.000000e+07	3.856443e+13	0.000000e+00	3.962266e-01	7.300038e+14	8.499652e+13	4.977154e+14	1.438699e+04	5.741349e+03	2.817336e+03	0	1.366098e-03
6.000000e+07	3.732144e+13	0.000000e+00	3.962266e-01	7.091216e+14	8.764391e+13	4.949846e+14	1.429637e+04	5.765967e+03	2.829417e+03	0	1.351260e-03
7.000000e+07	3.613756e+13	0.000000e+00	3.962266e-01	6.892199e+14	9.029145e+13	4.922741e+14	1.420831e+04	5.790019e+03	2.841219e+03	0	1.336818e-03
8.000000e+07	3.500886e+13	0.000000e+00	3.962266e-01	6.702342e+14	9.293822e+13	4.895838e+14	1.412269e+04	5.813525e+03	2.852754e+03	0	1.322753e-03
9.000000e+07	3.393177e+13	0.000000e+00	3.962266e-01	6.521053e+14	9.558335e+13	4.869135e+14	1.403941e+04	5.836506e+03	2.864031e+03	0	1.309046e-03
1.000000e+08	3.290299e+13	0.000000e+00	3.962266e-01	6.347789e+14	9.822607e+13	4.842630e+14	1.395836e+04	5.858981e+03	2.875060e+03	0	1.295681e-03
1.100000e+08	3.191952e+13	0.000000e+00	3.962266e-01	6.182052e+14	1.008655e+14	4.816322e+14	1.387944e+04	5.880968e+03	2.885849e+03	0	1.282640e-03
1.200000e+08	3.097856e+13	0.000000e+00	3.962266e-01	6.023383e+14	1.035009e+14	4.790208e+14	1.380256e+04	5.902483e+03	2.896407e+03	0	1.269911e-03
1.300000e+08	3.007755e+13	0.000000e+00	3.962266e-01	5.871358e+14	1.061316e+14	4.764289e+14	1.372763e+04	5.923543e+03	2.906741e+03	0	1.257478e-03
1.400000e+08	2.921412e+13	0.000000e+00	3.962266e-01	5.725585e+14	1.087568e+14	4.738561e+14	1.365457e+04	5.944162e+03	2.916859e+03	0	1.245328e-03
1.500000e+08	2.838610e+13	0.000000e+00	3.962266e-01	5.585704e+14	1.113757e+14	4.713023e+14	1.358331e+04	5.964354e+03	2.926767e+03	0	1.233450e-03
1.600000e+08	2.759145e+13	0.000000e+00	3.962266e-01	5.451380e+14	1.139878e+14	4.687673e+14	1.351378e+04	5.984133e+03	2.936473e+03	0	1.221831e-03
1.700000e+08	2.682829e+13	0.000000e+00	3.962266e-01	5.322301e+14	1.165924e+14	4.662511e+14	1.344590e+04	6.003511e+03	2.945982e+03	0	1.210460e-03
1.800000e+08	2.609489e+13	0.000000e+00	3.962266e-01	5.198180e+14	1.191888e+14	4.637534e+14	1.337961e+04	6.022499e+03	2.955300e+03	0	1.199328e-03
1.900000e+08	2.538962e+13	0.000000e+00	3.962266e-01	5.078749e+14	1.217763e+14	4.612742e+14	1.331486e+04	6.041110e+03	2.964432e+03	0	1.188424e-03
2.000000e+08	2.471098e+13	0.000000e+00	3.962266e-01	4.963758e+14	1.243545e+14	4.588131e+14	1.325158e+04	6.059354e+03	2.973385e+03	0	1.177740e-03
2.100000e+08	2.405757e+13	0.000000e+00	3.962266e-01	4.852976e+14	1.269228e+14	4.563702e+14	1.318972e+04	6.077242e+03	2.982162e+03	0	1.167267e-03
2.200000e+08	2.342807e+13	0.000000e+00	3.962266e-01	4.746184e+14	1.294805e+14	4.539452e+14	1.312923e+04	6.094782e+03	2.990769e+03	0	1.156995e-03
2.300000e+08	2.282127e+13	0.000000e+00	3.962266e-01	4.643182e+14	1.320271e+14	4.515380e+14	1.307006e+04	6.111984e+03	2.999211e+03	0	1.146919e-03
2.400000e+08	2.223601e+13	0.000000e+00	3.962266e-01	4.543779e+14	1.345621e+14	4.491485e+14	1.301216e+04	6.128857e+03	3.007490e+03	0	1.137030e-03
2.500000e+08	2.167125e+13	0.000000e+00	3.962266e-01	4.447799e+14	1.370850e+14	4.467764e+14	1.295549e+04	6.145409e+03	3.015613e+03	0	1.127321e-03
2.600000e+08	2.112597e+13	0.000000e+00	3.962266e-01	4.355076e+14	1.395952e+14	4.444218e+14	1.290001e+04	6.161649e+03	3.023582e+03	0	1.117785e-03
2.700000e+08	2.059923e+13	0.000000e+00	3.962266e-01	4.265454e+14	1.420925e+14	4.420843e+14	1.284568e+04	6.177584e+03	3.031401e+03	0	1.108417e-03
2.800000e+08	2.009017e+13	0.000000e+00	3.962266e-01	4.178788e+14	1.445761e+14	4.397639e+14	1.279246e+04	6.193221e+03	3.039074e+03	0	1.099210e-03
2.900000e+08	1.959794e+13	0.000000e+00	3.962266e-01	4.094940e+14	1.470457e+14	4.374604e+14	1.274031e+04	6.208567e+03	3.046605e+03	0	1.090159e-03
3.000000e+08	1.912178e+13	0.000000e+00	3.962266e-01	4.013783e+14	1.495009e+14	4.351738e+14	1.268920e+04	6.223630e+03	3.053997e+03	0	1.081257e-03
3.100000e+08	1.866096e+13	0.000000e+00	3.962266e-01	3.935193e+14	1.519413e+14	4.329038e+14	1.263909e+04	6.238416e+03	3.061252e+03	0	1.072501e-03
3.200000e+08	1.821479e+13	0.000000e+00	3.962266e-01	3.859059e+14	1.543664e+14	4.306503e+14	1.258996e+04	6.252930e+03	3.068374e+03	0	1.063884e-03
3.300000e+08	1.778262e+13	0.000000e+00	3.962266e-01	3.785270e+14	1.567759e+14	4.284131e+14	1.254177e+04	6.267179e+03	3.075367e+03	0	1.055402e-03
3.400000e+08	1.736384e+13	0.000000e+00	3.962266e-01	3.713727e+14	1.591693e+14	4.261923e+14	1.249450e+04	6.281169e+03	3.082232e+03	0	1.047052e-03
3.500000e+08	1.695787e+13	0.000000e+00	3.962266e-01	3.644334e+14	1.615464e+14	4.239875e+14	1.244811e+04	6.294906e+03	3.088972e+03	0	1.038827e-03
3.600000e+08	1.656418e+13	0.000000e+00	3.962266e-01	3.576999e+14	1.639067e+14	4.217988e+14	1.240259e+04	6.308393e+03	3.095591e+03	0	1.030725e-03
3.700000e+08	1.618223e+13	0.000000e+00	3.962266e-01	3.511638e+14	1.662500e+14	4.196259e+14	1.235790e+04	6.321638e+03	3.102090e+03	0	1.022741e-03
3.800000e+08	1.581156e+13	0.000000e+00	3.962266e-01	3.448168e+14	1.685759e+14	4.174687e+14	1.231402e+04	6.334644e+03	3.108472e+03	0	1.014871e-03
3.900000e+08	1.545169e+13	0.000000e+00	3.962266e-01	3.386515e+14	1.708841e+14	4.153271e+14	1.227093e+04	6.347417e+03	3.114740e+03	0	1.007113e-03
4.000000e+08	1.510219e+13	0.000000e+00	3.962266e-01	3.326604e+14	1.731743e+14	4.132009e+14	1.222860e+04	6.359960e+03	3.120895e+03	0	9.994617e-04
4.100000e+08	1.476265e+13	0.000000e+00	3.962266e-01	3.268368e+14	1.754462e+14	4.110901e+14	1.218702e+04	6.372280e+03	3.126940e+03	0	9.919147e-04
4.200000e+08	1.443268e+13	0.000000e+00	3.962266e-01	3.211740e+14	1.776995e+14	4.089946e+14	1.214616e+04	6.384379e+03	3.132878e+03	0	9.844685e-04
4.300000e+08	1.411190e+13	0.000000e+00	3.962266e-01	3.156659e+14	1.799341e+14	4.069141e+14	1.210601e+04	6.396263e+03	3.138709e+03	0	9.771201e-04
4.400000e+08	1.379995e+13	0.000000e+00	3.962266e-01	3.103066e+14	1.821496e+14	4.048485e+14	1.206654e+04	6.407935e+03	3.144437e+03	0	9.698667e-04
4.500000e+08	1.349651e+13	0.000000e+00	3.962266e-01	3.050904e+14	1.843458e+14	4.027979e+14	1.202773e+04	6.419399e+03	3.150062e+03	0	9.627053e-04
4.600000e+08	1.320126e+13	0.000000e+00	3.962266e-01	3.000121e+14	1.865226e+14	4.007619e+14	1.198958e+04	6.430659e+03	3.155587e+03	0	9.556333e-04
4.700000e+08	1.291388e+13	0.000000e+00	3.962266e-01	2.950666e+14	1.886795e+14	3.987405e+14	1.195205e+04	6.441718e+03	3.161015e+03	0	9.486480e-04
4.800000e+08	1.263409e+13	0.000000e+00	3.962266e-01	2.902491e+14	1.908165e+14	3.967337e+14	1.191514e+04	6.452581e+03	3.166345e+03	0	9.417469e-04
4.900000e+08	1.236162e+13	0.000000e+00	3.962266e-01	2.855549e+14	1.929334e+14	3.947412e+14	1.187883e+04	6.463251e+03	3.171581e+03	0	9.349276e-04
5.000000e+08	1.209620e+13	0.000000e+00	3.962266e-01	2.809796e+14	1.950300e+14	3.927629e+14	1.184311e+04	6.473731e+03	3.176724e+03	0	9.281878e-04
5.100000e+08	1.183759e+13	0.000000e+00	3.962266e-01	2.765192e+14	1.971061e+14	3.907988e+14	1.180795e+04	6.484025e+03	3.181775e+03	0	9.215252e-04
5.200000e+08	1.158553e+13	0.000000e+00	3.962266e-01	2.721695e+14	1.991616e+14	3.888487e+14	1.177334e+04	6.494136e+03	3.186736e+03	0	9.149376e-04
5.300000e+08	1.133981e+13	0.000000e+00	3.962266e-01	2.679269e+14	2.011963e+14	3.869125e+14	1.173928e+04	6.504066e+03	3.191609e+03	0	9.084230e-04
5.400000e+08	1.110021e+13	0.000000e+00	3.962266e-01	2.637876e+14	2.032100e+14	3.849901e+14	1.170575e+04	6.513820e+03	3.196396e+03	0	9.019792e-04
5.500000e+08	1.086651e+13	0.000000e+00	3.962266e-01	2.597481e+14	2.052027e+14	3.830813e+14	1.167273e+04	6.523400e+03	3.201096e+03	0	8.956044e-04
5.600000e+08	1.063853e+13	0.000000e+00	3.962266e-01	2.558052e+14	2.071742e+14	3.811862e+14	1.164022e+04	6.532808e+03	3.205713e+03	0	8.892967e-04
5.700000e+08	1.041607e+13	0.000000e+00	3.962266e-01	2.519557e+14	2.091244e+14	3.793045e+14	1.160819e+04	6.542048e+03	3.210247e+03	0	8.830543e-04
5.800000e+08	1.019894e+13	0.000000e+00	3.962266e-01	2.481965e+14	2.110531e+14	3.774361e+14	1.157665e+04	6.551123e+03	3.214700e+03	0	8.768753e-04
5.900000e+08	9.986977e+12	0.000000e+00	3.962266e-01	2.445247e+14	2.129604e+14	3.755810e+14	1.154557e+04	6.560035e+03	3.219074e+03	0	8.707581e-04
6.000000e+08	9.780011e+12	0.000000e+00	3.962266e-01	2.409375e+14	2.148462e+14	3.737390e+14	1.151495e+04	6.568786e+03	3.223368e+03	0	8.647009e-04
6.100000e+08	9.577881e+12	0.000000e+00	3.962266e-01	2.374322e+14	2.167102e+14	3.719101e+14	1.148478e+04	6.577381e+03	3.227585e+03	0	8.587023e-04
6.200000e+08	9.380436e+12	0.000000e+00	3.962266e-01	2.340063e+14	2.185525e+14	3.700940e+14	1.145504e+04	6.585820e+03	3.231726e+03	0	8.527607e-04
6.300000e+08	9.187526e+12	0.000000e+00	3.962266e-01	2.306572e+14	2.203731e+14	3.682908e+14	1.142574e+04	6.594106e+03	3.235793e+03	0	8.468744e-04
6.400000e+08	8.999013e+12	0.000000e+00	3.962266e-01	2.273827e+14	2.221718e+14	3.665004e+14	1.139684e+04	6.602242e+03	3.239785e+03	0	8.410422e-04
6.500000e+08	8.814759e+12	0.000000e+00	3.962266e-01	2.241805e+14	2.239486e+14	3.647225e+14	1.136836e+04	6.610231e+03	3.243705e+03	0	8.352625e-04
6.600000e+08	8.634636e+12	0.000000e+00	3.962266e-01	2.210483e+14	2.257035e+14	3.629571e+14	1.134028e+04	6.618074e+03	3.247554e+03	0	8.295340e-04
6.700000e+08	8.458518e+12	0.000000e+00	3.962266e-01	2.179842e+14	2.274365e+14	3.612042e+14	1.131258e+04	6.625773e+03	3.251332e+03	0	8.238553e-04
6.800000e+08	8.286285e+12	0.000000e+00	3.962266e-01	2.149860e+14	2.291475e+14	3.594635e+14	1.128527e+04	6.633332e+03	3.255041e+03	0	8.182251e-04
6.900000e+08	8.117823e+12	0.000000e+00	3.962266e-01	2.120519e+14	2.308366e+14	3.577351e+14	1.125834e+04	6.640751e+03	3.258682e+03	0	8.126422e-04
7.000000e+08	7.953020e+12	0.000000e+00	3.962266e-01	2.091799e+14	2.325035e+14	3.560188e+14	1.123176e+04	6.648034e+03	3.262256e+03	0	8.071053e-04
7.100000e+08	7.791769e+12	0.000000e+00	3.962266e-01	2.063683e+14	2.341486e+14	3.543145e+14	1.120555e+04	6.655182e+03	3.265763e+03	0	8.016132e-04
7.200000e+08	7.633968e+12	0.000000e+00	3.962266e-01	2.036154e+14	2.357717e+14	3.526221e+14	1.117969e+04	6.662198e+03	3.269206e+03	0	7.961648e-04
7.300000e+08	7.479519e+12	0.000000e+00	3.962266e-01	2.009195e+14	2.373728e+14	3.509416e+14	1.115417e+04	6.669082e+03	3.272584e+03	0	7.907588e-04
7.400000e+08	7.328325e+12	0.000000e+00	3.962266e-01	1.982790e+14	2.389519e+14	3.492727e+14	1.112899e+04	6.675838e+03	3.275900e+03	0	7.853943e-04
7.500000e+08	7.180295e+12	0.000000e+00	3.962266e-01	1.956923e+14	2.405091e+14	3.476155e+14	1.110413e+04	6.682468e+03	3.279153e+03	0	7.800700e-04
7.600000e+08	7.035342e+12	0.000000e+00	3.962266e-01	1.931580e+14	2.420445e+14	3.459699e+14	1.107960e+04	6.688972e+03	3.282344e+03	0	7.747850e-04
7.700000e+08	6.893379e+12	0.000000e+00	3.962266e-01	1.906747e+14	2.435580e+14	3.443357e+14	1.105539e+04	6.695353e+03	3.285476e+03	0	7.695382e-04
7.800000e+08	6.754324e+12	0.000000e+00	3.962266e-01	1.882409e+14	2.450496e+14	3.427129e+14	1.103149e+04	6.701613e+03	3.288548e+03	0	7.643286e-04
7.900000e+08	6.618099e+12	0.000000e+00	3.962266e-01	1.858553e+14	2.465196e+14	3.411013e+14	1.100788e+04	6.707754e+03	3.291561e+03	0	7.591552e-04
8.000000e+08	6.484626e+12	0.000000e+00	3.962266e-01	1.835167e+14	2.479678e+14	3.395009e+14	1.098458e+04	6.713777e+03	3.294516e+03	0	7.540170e-04
8.100000e+08	6.353832e+12	0.000000e+00	3.962266e-01	1.812238e+14	2.493943e+14	3.379116e+14	1.096157e+04	6.719684e+03	3.297415e+03	0	7.489131e-04
8.200000e+08	6.225646e+12	0.000000e+00	3.962266e-01	1.789754e+14	2.507993e+14	3.363333e+14	1.093885e+04	6.725476e+03	3.300257e+03	0	7.438425e-04
8.300000e+08	6.099999e+12	0.000000e+00	3.962266e-01	1.767702e+14	2.521827e+14	3.347659e+14	1.091640e+04	6.731156e+03	3.303045e+03	0	7.388043e-04
8.400000e+08	5.976824e+12	0.000000e+00	3.962266e-01	1.746073e+14	2.535448e+14	3.332094e+14	1.089424e+04	6.736725e+03	3.305777e+03	0	7.337977e-04
8.500000e+08	5.856058e+12	0.000000e+00	3.962266e-01	1.724856e+14	2.548854e+14	3.316635e+14	1.087234e+04	6.742185e+03	3.308456e+03	0	7.288217e-04
8.600000e+08	5.737637e+12	0.000000e+00	3.962266e-01	1.704039e+14	2.562048e+14	3.301284e+14	1.085071e+04	6.747537e+03	3.311083e+03	0	7.238755e-04
8.700000e+08	5.621502e+12	0.000000e+00	3.962266e-01	1.683612e+14	2.575030e+14	3.286038e+14	1.082933e+04	6.752782e+03	3.313657e+03	0	7.189582e-04
8.800000e+08	5.507595e+12	0.000000e+00	3.962266e-01	1.663567e+14	2.587801e+14	3.270897e+14	1.080822e+04	6.757923e+03	3.316179e+03	0	7.140690e-04
8.900000e+08	5.395859e+12	0.000000e+00	3.962266e-01	1.643893e+14	2.600361e+14	3.255860e+14	1.078735e+04	6.762961e+03	3.318651e+03	0	7.092070e-04
9.000000e+08	5.286241e+12	0.000000e+00	3.962266e-01	1.624581e+14	2.612713e+14	3.240926e+14	1.076673e+04	6.767897e+03	3.321073e+03	0	7.043715e-04
9.100000e+08	5.178687e+12	0.000000e+00	3.962266e-01	1.605622e+14	2.624857e+14	3.226094e+14	1.074635e+04	6.772732e+03	3.323446e+03	0	6.995617e-04
9.200000e+08	5.073146e+12	0.000000e+00	3.962266e-01	1.587008e+14	2.636793e+14	3.211364e+14	1.072620e+04	6.777469e+03	3.325771e+03	0	6.947768e-04
9.300000e+08	4.969570e+12	0.000000e+00	3.962266e-01	1.568731e+14	2.648524e+14	3.196735e+14	1.070629e+04	6.782108e+03	3.328047e+03	0	6.900159e-04
9.400000e+08	4.867909e+12	0.000000e+00	3.962266e-01	1.550781e+14	2.660050e+14	3.182206e+14	1.068661e+04	6.786651e+03	3.330277e+03	0	6.852783e-04
9.500000e+08	4.768119e+12	0.000000e+00	3.962266e-01	1.533152e+14	2.671373e+14	3.167776e+14	1.066715e+04	6.791100e+03	3.332460e+03	0	6.805633e-04
9.600000e+08	4.670153e+12	0.000000e+00	3.962266e-01	1.515836e+14	2.682492e+14	3.153444e+14	1.064792e+04	6.795455e+03	3.334597e+03	0	6.758701e-04
9.700000e+08	4.573969e+12	0.000000e+00	3.962266e-01	1.498825e+14	2.693411e+14	3.139210e+14	1.062890e+04	6.799718e+03	3.336689e+03	0	6.711979e-04
9.800000e+08	4.479524e+12	0.000000e+00	3.962266e-01	1.482112e+14	2.704130e+14	3.125073e+14	1.061009e+04	6.803891e+03	3.338736e+03	0	6.665460e-04
9.900000e+08	4.386777e+12	0.000000e+00	3.962266e-01	1.465691e+14	2.714650e+14	3.111032e+14	1.059149e+04	6.807973e+03	3.340740e+03	0	6.619137e-04
1.000000e+09	4.295689e+12	0.000000e+00	3.962266e-01	1.449554e+14	2.724973e+14	3.097086e+14	1.057310e+04	6.811968e+03	3.342700e+03	0	6.573002e-04
1.010000e+09	4.206220e+12	0.000000e+00	3.962266e-01	1.433696e+14	2.735100e+14	3.083235e+14	1.055490e+04	6.815876e+03	3.344617e+03	0	6.527048e-04
1.020000e+09	4.118334e+12	0.000000e+00	3.962266e-01	1.418109e+14	2.745032e+14	3.069478e+14	1.053691e+04	6.819698e+03	3.346493e+03	0	6.481268e-04
1.030000e+09	4.031993e+12	0.000000e+00	3.962266e-01	1.402788e+14	2.754771e+14	3.055814e+14	1.051911e+04	6.823436e+03	3.348327e+03	0	6.435655e-04
1.040000e+09	3.947164e+12	0.000000e+00	3.962266e-01	1.387726e+14	2.764318e+14	3.042242e+14	1.050150e+04	6.827090e+03	3.350120e+03	0	6.390201e-04
1.050000e+09	3.863811e+12	0.000000e+00	3.962266e-01	1.372918e+14	2.773675e+14	3.028761e+14	1.048409e+04	6.830662e+03	3.351873e+03	0	6.344900e-04
1.060000e+09	3.781901e+12	0.000000e+00	3.962266e-01	1.358358e+14	2.782842e+14	3.015372e+14	1.046685e+04	6.834153e+03	3.353586e+03	0	6.299744e-04
1.070000e+09	3.701402e+12	0.000000e+00	3.962266e-01	1.344041e+14	2.791822e+14	3.002073e+14	1.044980e+04	6.837565e+03	3.355260e+03	0	6.254725e-04
1.080000e+09	3.622283e+12	0.000000e+00	3.962266e-01	1.329961e+14	2.800615e+14	2.988863e+14	1.043293e+04	6.840897e+03	3.356896e+03	0	6.209838e-04
1.090000e+09	3.544512e+12	0.000000e+00	3.962266e-01	1.316113e+14	2.809224e+14	2.975743e+14	1.041623e+04	6.844152e+03	3.358493e+03	0	6.165074e-04
1.100000e+09	3.468061e+12	0.000000e+00	3.962266e-01	1.302493e+14	2.817650e+14	2.962710e+14	1.039971e+04	6.847331e+03	3.360053e+03	0	6.120427e-04
1.110000e+09	3.392900e+12	0.000000e+00	3.962266e-01	1.289094e+14	2.825894e+14	2.949764e+14	1.038336e+04	6.850434e+03	3.361575e+03	0	6.075889e-04
1.120000e+09	3.319001e+12	0.000000e+00	3.962266e-01	1.275913e+14	2.833958e+14	2.936906e+14	1.036717e+04	6.853462e+03	3.363061e+03	0	6.031453e-04
1.130000e+09	3.246337e+12	0.000000e+00	3.962266e-01	1.262945e+14	2.841844e+14	2.924133e+14	1.035115e+04	6.856417e+03	3.364511e+03	0	5.987112e-04
1.140000e+09	3.174881e+12	0.000000e+00	3.962266e-01	1.250185e+14	2.849552e+14	2.911446e+14	1.033530e+04	6.859300e+03	3.365926e+03	0	5.942857e-04
1.150000e+09	3.104608e+12	0.000000e+00	3.962266e-01	1.237629e+14	2.857084e+14	2.898844e+14	1.031960e+04	6.862112e+03	3.367306e+03	0	5.898683e-04
1.160000e+09	3.035492e+12	0.000000e+00	3.962266e-01	1.225273e+14	2.864443e+14	2.886325e+14	1.030406e+04	6.864853e+03	3.368651e+03	0	5.854582e-04
1.170000e+09	2.967509e+12	0.000000e+00	3.962266e-01	1.213111e+14	2.871630e+14	2.873890e+14	1.028867e+04	6.867525e+03	3.369962e+03	0	5.810545e-04
1.180000e+09	2.900635e+12	0.000000e+00	3.962266e-01	1.201142e+14	2.878645e+14	2.861538e+14	1.027344e+04	6.870129e+03	3.371240e+03	0	5.766565e-04
1.190000e+09	2.834846e+12	0.000000e+00	3.962266e-01	1.189359e+14	2.885492e+14	2.849268e+14	1.025835e+04	6.872665e+03	3.372484e+03	0	5.722635e-04
1.200000e+09	2.770121e+12	0.000000e+00	3.962266e-01	1.177761e+14	2.892171e+14	2.837079e+14	1.024342e+04	6.875134e+03	3.373696e+03	0	5.678746e-04
1.210000e+09	2.706437e+12	0.000000e+00	3.962266e-01	1.166342e+14	2.898683e+14	2.824971e+14	1.022863e+04	6.877539e+03	3.374876e+03	0	5.634890e-04
1.220000e+09	2.643772e+12	0.000000e+00	3.962266e-01	1.155099e+14	2.905032e+14	2.812944e+14	1.021398e+04	6.879878e+03	3.376024e+03	0	5.591060e-04
1.230000e+09	2.582107e+12	0.000000e+00	3.962266e-01	1.144029e+14	2.911218e+14	2.800996e+14	1.019947e+04	6.882154e+03	3.377141e+03	0	5.547248e-04
1.240000e+09	2.521419e+12	0.000000e+00	3.962266e-01	1.133128e+14	2.917242e+14	2.789126e+14	1.018510e+04	6.884367e+03	3.378227e+03	0	5.503443e-04
1.250000e+09	2.461690e+12	0.000000e+00	3.962266e-01	1.122393e+14	2.923107e+14	2.777336e+14	1.017087e+04	6.886518e+03	3.379282e+03	0	5.459639e-04
1.260000e+09	2.402900e+12	0.000000e+00	3.962266e-01	1.111820e+14	2.928814e+14	2.765623e+14	1.015677e+04	6.888608e+03	3.380308e+03	0	5.415826e-04
1.270000e+09	2.345030e+12	0.000000e+00	3.962266e-01	1.101406e+14	2.934364e+14	2.753987e+14	1.014281e+04	6.890638e+03	3.381304e+03	0	5.371995e-04
1.280000e+09	2.288062e+12	0.000000e+00	3.962266e-01	1.091149e+14	2.939760e+14	2.742428e+14	1.012897e+04	6.892609e+03	3.382271e+03	0	5.328138e-04
1.290000e+09	2.231978e+12	0.000000e+00	3.962266e-01	1.081044e+14	2.945003e+14	2.730944e+14	1.011527e+04	6.894521e+03	3.383209e+03	0	5.284243e-04
1.300000e+09	2.176760e+12	0.000000e+00	3.962266e-01	1.071090e+14	2.950094e+14	2.719536e+14	1.010169e+04	6.896375e+03	3.384119e+03	0	5.240302e-04
1.310000e+09	2.122392e+12	0.000000e+00	3.962266e-01	1.061283e+14	2.955036e+14	2.708203e+14	1.008823e+04	6.898173e+03	3.385001e+03	0	5.196305e-04
1.320000e+09	2.068856e+12	0.000000e+00	3.962266e-01	1.051620e+14	2.959829e+14	2.696944e+14	1.007490e+04	6.899914e+03	3.385856e+03	0	5.152242e-04
1.330000e+09	2.016136e+12	0.000000e+00	3.962266e-01	1.042098e+14	2.964475e+14	2.685759e+14	1.006169e+04	6.901600e+03	3.386683e+03	0	5.108100e-04
1.340000e+09	1.964217e+12	0.000000e+00	3.962266e-01	1.032715e+14	2.968977e+14	2.674647e+14	1.004859e+04	6.903232e+03	3.387484e+03	0	5.063871e-04
1.350000e+09	1.913082e+12	0.000000e+00	3.962266e-01	1.023469e+14	2.973335e+14	2.663607e+14	1.003562e+04	6.904810e+03	3.388258e+03	0	5.019542e-04
1.360000e+09	1.862718e+12	0.000000e+00	3.962266e-01	1.014356e+14	2.977552e+14	2.652639e+14	1.002276e+04	6.906334e+03	3.389006e+03	0	4.975101e-04
