#t		Qconv[W]	Ri[Rp]		R*[Rp]		Qc[W]		Qm[W]		Qr[W]		Tcmb[K]		Tl[K]		Tup[K]		RiFlag		Bs[T]
0.000000e+00	4.896415e+13	0.000000e+00	3.924052e-01	9.132494e+14	6.512753e+13	5.433450e+14	1.582975e+04	5.792888e+03	2.804859e+03	0	1.490480e-03
1.000000e+07	4.729445e+13	0.000000e+00	3.924052e-01	8.855281e+14	6.753450e+13	5.403345e+14	1.572205e+04	5.821367e+03	2.818648e+03	0	1.473342e-03
2.000000e+07	4.570984e+13	0.000000e+00	3.924052e-01	8.592017e+14	6.995027e+13	5.373465e+14	1.561758e+04	5.849165e+03	2.832107e+03	0	1.456700e-03
3.000000e+07	4.420429e+13	0.000000e+00	3.924052e-01	8.341719e+14	7.237384e+13	5.343808e+14	1.551618e+04	5.876313e+03	2.845252e+03	0	1.440528e-03
4.000000e+07	4.277233e+13	0.000000e+00	3.924052e-01	8.103492e+14	7.480427e+13	5.314372e+14	1.541770e+04	5.902838e+03	2.858095e+03	0	1.424802e-03
5.000000e+07	4.140894e+13	0.000000e+00	3.924052e-01	7.876521e+14	7.724065e+13	5.285156e+14	1.532200e+04	5.928764e+03	2.870648e+03	0	1.409499e-03
6.000000e+07	4.010956e+13	0.000000e+00	3.924052e-01	7.660059e+14	7.968211e+13	5.256158e+14	1.522895e+04	5.954115e+03	2.882923e+03	0	1.394599e-03
7.000000e+07	3.886999e+13	0.000000e+00	3.924052e-01	7.453424e+14	8.212778e+13	5.227376e+14	1.513843e+04	5.978912e+03	2.894930e+03	0	1.380082e-03
8.000000e+07	3.768641e+13	0.000000e+00	3.924052e-01	7.255988e+14	8.457686e+13	5.198808e+14	1.505032e+04	6.003177e+03	2.906678e+03	0	1.365930e-03
9.000000e+07	3.655529e+13	0.000000e+00	3.924052e-01	7.067177e+14	8.702853e+13	5.170452e+14	1.496452e+04	6.026929e+03	2.918179e+03	0	1.352125e-03
1.000000e+08	3.547338e+13	0.000000e+00	3.924052e-01	6.886459e+14	8.948204e+13	5.142307e+14	1.488094e+04	6.050185e+03	2.929439e+03	0	1.338652e-03
1.100000e+08	3.443769e+13	0.000000e+00	3.924052e-01	6.713348e+14	9.193664e+13	5.114371e+14	1.479947e+04	6.072962e+03	2.940468e+03	0	1.325495e-03
1.200000e+08	3.344548e+13	0.000000e+00	3.924052e-01	6.547392e+14	9.439160e+13	5.086642e+14	1.472002e+04	6.095277e+03	2.951272e+03	0	1.312641e-03
1.300000e+08	3.249418e+13	0.000000e+00	3.924052e-01	6.388176e+14	9.684620e+13	5.059118e+14	1.464252e+04	6.117145e+03	2.961861e+03	0	1.300076e-03
1.400000e+08	3.158145e+13	0.000000e+00	3.924052e-01	6.235312e+14	9.929979e+13	5.031797e+14	1.456689e+04	6.138580e+03	2.972239e+03	0	1.287787e-03
1.500000e+08	3.070510e+13	0.000000e+00	3.924052e-01	6.088445e+14	1.017517e+14	5.004679e+14	1.449305e+04	6.159595e+03	2.982415e+03	0	1.275764e-03
1.600000e+08	2.986310e+13	0.000000e+00	3.924052e-01	5.947242e+14	1.042012e+14	4.977761e+14	1.442093e+04	6.180204e+03	2.992393e+03	0	1.263994e-03
1.700000e+08	2.905357e+13	0.000000e+00	3.924052e-01	5.811395e+14	1.066478e+14	4.951042e+14	1.435047e+04	6.200418e+03	3.002180e+03	0	1.252468e-03
1.800000e+08	2.827476e+13	0.000000e+00	3.924052e-01	5.680618e+14	1.090908e+14	4.924520e+14	1.428161e+04	6.220248e+03	3.011782e+03	0	1.241175e-03
1.900000e+08	2.752504e+13	0.000000e+00	3.924052e-01	5.554644e+14	1.115297e+14	4.898193e+14	1.421428e+04	6.239706e+03	3.021203e+03	0	1.230107e-03
2.000000e+08	2.680289e+13	0.000000e+00	3.924052e-01	5.433224e+14	1.139638e+14	4.872059e+14	1.414843e+04	6.258802e+03	3.030449e+03	0	1.219254e-03
2.100000e+08	2.610690e+13	0.000000e+00	3.924052e-01	5.316125e+14	1.163926e+14	4.846118e+14	1.408401e+04	6.277546e+03	3.039525e+03	0	1.208607e-03
2.200000e+08	2.543573e+13	0.000000e+00	3.924052e-01	5.203130e+14	1.188155e+14	4.820368e+14	1.402097e+04	6.295946e+03	3.048434e+03	0	1.198160e-03
2.300000e+08	2.478815e+13	0.000000e+00	3.924052e-01	5.094037e+14	1.212321e+14	4.794806e+14	1.395925e+04	6.314013e+03	3.057182e+03	0	1.187904e-03
2.400000e+08	2.416300e+13	0.000000e+00	3.924052e-01	4.988654e+14	1.236417e+14	4.769432e+14	1.389882e+04	6.331755e+03	3.065772e+03	0	1.177833e-03
2.500000e+08	2.355920e+13	0.000000e+00	3.924052e-01	4.886805e+14	1.260439e+14	4.744244e+14	1.383963e+04	6.349179e+03	3.074209e+03	0	1.167939e-03
2.600000e+08	2.297572e+13	0.000000e+00	3.924052e-01	4.788321e+14	1.284383e+14	4.719240e+14	1.378163e+04	6.366294e+03	3.082496e+03	0	1.158217e-03
2.700000e+08	2.241161e+13	0.000000e+00	3.924052e-01	4.693045e+14	1.308242e+14	4.694419e+14	1.372480e+04	6.383106e+03	3.090636e+03	0	1.148659e-03
2.800000e+08	2.186597e+13	0.000000e+00	3.924052e-01	4.600831e+14	1.332013e+14	4.669779e+14	1.366909e+04	6.399624e+03	3.098634e+03	0	1.139261e-03
2.900000e+08	2.133796e+13	0.000000e+00	3.924052e-01	4.511539e+14	1.355691e+14	4.645319e+14	1.361446e+04	6.415853e+03	3.106492e+03	0	1.130015e-03
3.000000e+08	2.082677e+13	0.000000e+00	3.924052e-01	4.425039e+14	1.379271e+14	4.621037e+14	1.356089e+04	6.431802e+03	3.114214e+03	0	1.120919e-03
3.100000e+08	2.033167e+13	0.000000e+00	3.924052e-01	4.341207e+14	1.402750e+14	4.596932e+14	1.350834e+04	6.447474e+03	3.121803e+03	0	1.111965e-03
3.200000e+08	1.985194e+13	0.000000e+00	3.924052e-01	4.259927e+14	1.426123e+14	4.573002e+14	1.345677e+04	6.462878e+03	3.129261e+03	0	1.103150e-03
3.300000e+08	1.938692e+13	0.000000e+00	3.924052e-01	4.181090e+14	1.449386e+14	4.549247e+14	1.340617e+04	6.478018e+03	3.136592e+03	0	1.094468e-03
3.400000e+08	1.893598e+13	0.000000e+00	3.924052e-01	4.104592e+14	1.472536e+14	4.525664e+14	1.335649e+04	6.492901e+03	3.143798e+03	0	1.085915e-03
3.500000e+08	1.849852e+13	0.000000e+00	3.924052e-01	4.030336e+14	1.495568e+14	4.502252e+14	1.330772e+04	6.507531e+03	3.150881e+03	0	1.077488e-03
3.600000e+08	1.807398e+13	0.000000e+00	3.924052e-01	3.958228e+14	1.518479e+14	4.479010e+14	1.325982e+04	6.521914e+03	3.157845e+03	0	1.069182e-03
3.700000e+08	1.766184e+13	0.000000e+00	3.924052e-01	3.888182e+14	1.541265e+14	4.455936e+14	1.321278e+04	6.536054e+03	3.164692e+03	0	1.060992e-03
3.800000e+08	1.726159e+13	0.000000e+00	3.924052e-01	3.820114e+14	1.563922e+14	4.433029e+14	1.316656e+04	6.549958e+03	3.171424e+03	0	1.052916e-03
3.900000e+08	1.687274e+13	0.000000e+00	3.924052e-01	3.753946e+14	1.586448e+14	4.410288e+14	1.312114e+04	6.563628e+03	3.178043e+03	0	1.044950e-03
4.000000e+08	1.649485e+13	0.000000e+00	3.924052e-01	3.689604e+14	1.608840e+14	4.387711e+14	1.307651e+04	6.577070e+03	3.184552e+03	0	1.037090e-03
4.100000e+08	1.612749e+13	0.000000e+00	3.924052e-01	3.627015e+14	1.631093e+14	4.365297e+14	1.303264e+04	6.590289e+03	3.190952e+03	0	1.029333e-03
4.200000e+08	1.577026e+13	0.000000e+00	3.924052e-01	3.566114e+14	1.653206e+14	4.343044e+14	1.298950e+04	6.603288e+03	3.197246e+03	0	1.021676e-03
4.300000e+08	1.542275e+13	0.000000e+00	3.924052e-01	3.506836e+14	1.675174e+14	4.320952e+14	1.294709e+04	6.616071e+03	3.203436e+03	0	1.014116e-03
4.400000e+08	1.508461e+13	0.000000e+00	3.924052e-01	3.449121e+14	1.696996e+14	4.299018e+14	1.290537e+04	6.628643e+03	3.209523e+03	0	1.006649e-03
4.500000e+08	1.475549e+13	0.000000e+00	3.924052e-01	3.392911e+14	1.718668e+14	4.277242e+14	1.286434e+04	6.641007e+03	3.215509e+03	0	9.992742e-04
4.600000e+08	1.443505e+13	0.000000e+00	3.924052e-01	3.338150e+14	1.740188e+14	4.255623e+14	1.282398e+04	6.653167e+03	3.221397e+03	0	9.919876e-04
4.700000e+08	1.412298e+13	0.000000e+00	3.924052e-01	3.284787e+14	1.761553e+14	4.234158e+14	1.278426e+04	6.665126e+03	3.227188e+03	0	9.847868e-04
4.800000e+08	1.381897e+13	0.000000e+00	3.924052e-01	3.232772e+14	1.782762e+14	4.212848e+14	1.274517e+04	6.676889e+03	3.232883e+03	0	9.776694e-04
4.900000e+08	1.352273e+13	0.000000e+00	3.924052e-01	3.182056e+14	1.803811e+14	4.191690e+14	1.270670e+04	6.688458e+03	3.238484e+03	0	9.706328e-04
5.000000e+08	1.323400e+13	0.000000e+00	3.924052e-01	3.132595e+14	1.824698e+14	4.170683e+14	1.266883e+04	6.699837e+03	3.243994e+03	0	9.636749e-04
5.100000e+08	1.295251e+13	0.000000e+00	3.924052e-01	3.084346e+14	1.845421e+14	4.149826e+14	1.263154e+04	6.711028e+03	3.249413e+03	0	9.567932e-04
5.200000e+08	1.267800e+13	0.000000e+00	3.924052e-01	3.037266e+14	1.865979e+14	4.129118e+14	1.259482e+04	6.722036e+03	3.254743e+03	0	9.499857e-04
5.300000e+08	1.241025e+13	0.000000e+00	3.924052e-01	2.991317e+14	1.886368e+14	4.108558e+14	1.255867e+04	6.732863e+03	3.259985e+03	0	9.432503e-04
5.400000e+08	1.214901e+13	0.000000e+00	3.924052e-01	2.946460e+14	1.906588e+14	4.088144e+14	1.252305e+04	6.743513e+03	3.265141e+03	0	9.365849e-04
5.500000e+08	1.189408e+13	0.000000e+00	3.924052e-01	2.902659e+14	1.926637e+14	4.067876e+14	1.248797e+04	6.753987e+03	3.270213e+03	0	9.299875e-04
5.600000e+08	1.164525e+13	0.000000e+00	3.924052e-01	2.859880e+14	1.946512e+14	4.047752e+14	1.245340e+04	6.764289e+03	3.275201e+03	0	9.234563e-04
5.700000e+08	1.140230e+13	0.000000e+00	3.924052e-01	2.818090e+14	1.966212e+14	4.027770e+14	1.241935e+04	6.774421e+03	3.280107e+03	0	9.169895e-04
5.800000e+08	1.116506e+13	0.000000e+00	3.924052e-01	2.777256e+14	1.985736e+14	4.007930e+14	1.238578e+04	6.784387e+03	3.284933e+03	0	9.105851e-04
5.900000e+08	1.093334e+13	0.000000e+00	3.924052e-01	2.737349e+14	2.005082e+14	3.988231e+14	1.235270e+04	6.794189e+03	3.289678e+03	0	9.042416e-04
6.000000e+08	1.070697e+13	0.000000e+00	3.924052e-01	2.698340e+14	2.024249e+14	3.968672e+14	1.232010e+04	6.803829e+03	3.294346e+03	0	8.979572e-04
6.100000e+08	1.048577e+13	0.000000e+00	3.924052e-01	2.660199e+14	2.043234e+14	3.949250e+14	1.228795e+04	6.813310e+03	3.298937e+03	0	8.917303e-04
6.200000e+08	1.026958e+13	0.000000e+00	3.924052e-01	2.622902e+14	2.062039e+14	3.929966e+14	1.225626e+04	6.822635e+03	3.303452e+03	0	8.855594e-04
6.300000e+08	1.005825e+13	0.000000e+00	3.924052e-01	2.586421e+14	2.080660e+14	3.910818e+14	1.222501e+04	6.831805e+03	3.307892e+03	0	8.794429e-04
6.400000e+08	9.851632e+12	0.000000e+00	3.924052e-01	2.550732e+14	2.099097e+14	3.891805e+14	1.219420e+04	6.840823e+03	3.312258e+03	0	8.733792e-04
6.500000e+08	9.649581e+12	0.000000e+00	3.924052e-01	2.515812e+14	2.117349e+14	3.872926e+14	1.216380e+04	6.849692e+03	3.316552e+03	0	8.673671e-04
6.600000e+08	9.451959e+12	0.000000e+00	3.924052e-01	2.481638e+14	2.135415e+14	3.854180e+14	1.213382e+04	6.858413e+03	3.320775e+03	0	8.614051e-04
6.700000e+08	9.258636e+12	0.000000e+00	3.924052e-01	2.448187e+14	2.153295e+14	3.835566e+14	1.210425e+04	6.866989e+03	3.324927e+03	0	8.554917e-04
6.800000e+08	9.069483e+12	0.000000e+00	3.924052e-01	2.415439e+14	2.170987e+14	3.817083e+14	1.207507e+04	6.875422e+03	3.329011e+03	0	8.496257e-04
6.900000e+08	8.884380e+12	0.000000e+00	3.924052e-01	2.383373e+14	2.188490e+14	3.798729e+14	1.204628e+04	6.883714e+03	3.333025e+03	0	8.438058e-04
7.000000e+08	8.703208e+12	0.000000e+00	3.924052e-01	2.351970e+14	2.205804e+14	3.780503e+14	1.201787e+04	6.891866e+03	3.336973e+03	0	8.380307e-04
7.100000e+08	8.525855e+12	0.000000e+00	3.924052e-01	2.321211e+14	2.222929e+14	3.762406e+14	1.198984e+04	6.899882e+03	3.340854e+03	0	8.322992e-04
7.200000e+08	8.352213e+12	0.000000e+00	3.924052e-01	2.291078e+14	2.239864e+14	3.744435e+14	1.196216e+04	6.907763e+03	3.344670e+03	0	8.266100e-04
7.300000e+08	8.182176e+12	0.000000e+00	3.924052e-01	2.261553e+14	2.256608e+14	3.726589e+14	1.193485e+04	6.915511e+03	3.348421e+03	0	8.209620e-04
7.400000e+08	8.015643e+12	0.000000e+00	3.924052e-01	2.232620e+14	2.273161e+14	3.708868e+14	1.190789e+04	6.923128e+03	3.352109e+03	0	8.153541e-04
7.500000e+08	7.852518e+12	0.000000e+00	3.924052e-01	2.204263e+14	2.289523e+14	3.691271e+14	1.188127e+04	6.930615e+03	3.355735e+03	0	8.097851e-04
7.600000e+08	7.692706e+12	0.000000e+00	3.924052e-01	2.176466e+14	2.305694e+14	3.673796e+14	1.185498e+04	6.937975e+03	3.359298e+03	0	8.042539e-04
7.700000e+08	7.536118e+12	0.000000e+00	3.924052e-01	2.149213e+14	2.321672e+14	3.656443e+14	1.182903e+04	6.945210e+03	3.362801e+03	0	7.987595e-04
7.800000e+08	7.382665e+12	0.000000e+00	3.924052e-01	2.122490e+14	2.337459e+14	3.639210e+14	1.180340e+04	6.952320e+03	3.366244e+03	0	7.933007e-04
7.900000e+08	7.232265e+12	0.000000e+00	3.924052e-01	2.096284e+14	2.353053e+14	3.622097e+14	1.177809e+04	6.959308e+03	3.369628e+03	0	7.878767e-04
8.000000e+08	7.084835e+12	0.000000e+00	3.924052e-01	2.070580e+14	2.368456e+14	3.605103e+14	1.175309e+04	6.966176e+03	3.372953e+03	0	7.824862e-04
8.100000e+08	6.940296e+12	0.000000e+00	3.924052e-01	2.045366e+14	2.383666e+14	3.588226e+14	1.172839e+04	6.972925e+03	3.376221e+03	0	7.771284e-04
8.200000e+08	6.798575e+12	0.000000e+00	3.924052e-01	2.020629e+14	2.398685e+14	3.571467e+14	1.170400e+04	6.979557e+03	3.379432e+03	0	7.718023e-04
8.300000e+08	6.659596e+12	0.000000e+00	3.924052e-01	1.996357e+14	2.413511e+14	3.554823e+14	1.167989e+04	6.986073e+03	3.382587e+03	0	7.665069e-04
8.400000e+08	6.523290e+12	0.000000e+00	3.924052e-01	1.972537e+14	2.428146e+14	3.538294e+14	1.165608e+04	6.992475e+03	3.385687e+03	0	7.612413e-04
8.500000e+08	6.389587e+12	0.000000e+00	3.924052e-01	1.949159e+14	2.442589e+14	3.521879e+14	1.163255e+04	6.998765e+03	3.388732e+03	0	7.560045e-04
8.600000e+08	6.258423e+12	0.000000e+00	3.924052e-01	1.926211e+14	2.456840e+14	3.505578e+14	1.160930e+04	7.004943e+03	3.391724e+03	0	7.507957e-04
8.700000e+08	6.129732e+12	0.000000e+00	3.924052e-01	1.903683e+14	2.470901e+14	3.489388e+14	1.158631e+04	7.011013e+03	3.394662e+03	0	7.456138e-04
8.800000e+08	6.003453e+12	0.000000e+00	3.924052e-01	1.881564e+14	2.484771e+14	3.473310e+14	1.156360e+04	7.016974e+03	3.397549e+03	0	7.404581e-04
8.900000e+08	5.879526e+12	0.000000e+00	3.924052e-01	1.859845e+14	2.498450e+14	3.457342e+14	1.154115e+04	7.022829e+03	3.400384e+03	0	7.353277e-04
9.000000e+08	5.757893e+12	0.000000e+00	3.924052e-01	1.838515e+14	2.511940e+14	3.441484e+14	1.151896e+04	7.028579e+03	3.403168e+03	0	7.302216e-04
9.100000e+08	5.638498e+12	0.000000e+00	3.924052e-01	1.817565e+14	2.525240e+14	3.425735e+14	1.149702e+04	7.034226e+03	3.405902e+03	0	7.251390e-04
9.200000e+08	5.521287e+12	0.000000e+00	3.924052e-01	1.796986e+14	2.538351e+14	3.410094e+14	1.147533e+04	7.039770e+03	3.408586e+03	0	7.200791e-04
9.300000e+08	5.406206e+12	0.000000e+00	3.924052e-01	1.776770e+14	2.551274e+14	3.394559e+14	1.145389e+04	7.045213e+03	3.411222e+03	0	7.150411e-04
9.400000e+08	5.293205e+12	0.000000e+00	3.924052e-01	1.756907e+14	2.564009e+14	3.379131e+14	1.143268e+04	7.050557e+03	3.413809e+03	0	7.100240e-04
9.500000e+08	5.182234e+12	0.000000e+00	3.924052e-01	1.737390e+14	2.576556e+14	3.363808e+14	1.141171e+04	7.055803e+03	3.416349e+03	0	7.050271e-04
9.600000e+08	5.073245e+12	0.000000e+00	3.924052e-01	1.718210e+14	2.588918e+14	3.348589e+14	1.139098e+04	7.060951e+03	3.418842e+03	0	7.000495e-04
9.700000e+08	4.966192e+12	0.000000e+00	3.924052e-01	1.699359e+14	2.601093e+14	3.333475e+14	1.137047e+04	7.066005e+03	3.421289e+03	0	6.950904e-04
9.800000e+08	4.861029e+12	0.000000e+00	3.924052e-01	1.680831e+14	2.613083e+14	3.318463e+14	1.135019e+04	7.070963e+03	3.423690e+03	0	6.901490e-04
9.900000e+08	4.757713e+12	0.000000e+00	3.924052e-01	1.662617e+14	2.624889e+14	3.303553e+14	1.133012e+04	7.075829e+03	3.426046e+03	0	6.852245e-04
1.000000e+09	4.656202e+12	0.000000e+00	3.924052e-01	1.644711e+14	2.636510e+14	3.288744e+14	1.131028e+04	7.080603e+03	3.428357e+03	0	6.803161e-04
1.010000e+09	4.556453e+12	0.000000e+00	3.924052e-01	1.627105e+14	2.647950e+14	3.274035e+14	1.129064e+04	7.085286e+03	3.430625e+03	0	6.754229e-04
1.020000e+09	4.458428e+12	0.000000e+00	3.924052e-01	1.609793e+14	2.659207e+14	3.259427e+14	1.127122e+04	7.089880e+03	3.432849e+03	0	6.705441e-04
1.030000e+09	4.362086e+12	0.000000e+00	3.924052e-01	1.592768e+14	2.670283e+14	3.244917e+14	1.125200e+04	7.094386e+03	3.435031e+03	0	6.656790e-04
1.040000e+09	4.267391e+12	0.000000e+00	3.924052e-01	1.576024e+14	2.681179e+14	3.230505e+14	1.123298e+04	7.098804e+03	3.437170e+03	0	6.608267e-04
1.050000e+09	4.174305e+12	0.000000e+00	3.924052e-01	1.559555e+14	2.691896e+14	3.216191e+14	1.121417e+04	7.103137e+03	3.439268e+03	0	6.559864e-04
1.060000e+09	4.082794e+12	0.000000e+00	3.924052e-01	1.543355e+14	2.702433e+14	3.201973e+14	1.119555e+04	7.107385e+03	3.441325e+03	0	6.511573e-04
1.070000e+09	3.992821e+12	0.000000e+00	3.924052e-01	1.527418e+14	2.712794e+14	3.187851e+14	1.117712e+04	7.111549e+03	3.443341e+03	0	6.463386e-04
1.080000e+09	3.904354e+12	0.000000e+00	3.924052e-01	1.511738e+14	2.722979e+14	3.173824e+14	1.115888e+04	7.115630e+03	3.445317e+03	0	6.415294e-04
1.090000e+09	3.817361e+12	0.000000e+00	3.924052e-01	1.496310e+14	2.732987e+14	3.159891e+14	1.114083e+04	7.119630e+03	3.447254e+03	0	6.367289e-04
1.100000e+09	3.731808e+12	0.000000e+00	3.924052e-01	1.481128e+14	2.742822e+14	3.146052e+14	1.112296e+04	7.123550e+03	3.449152e+03	0	6.319362e-04
1.110000e+09	3.647665e+12	0.000000e+00	3.924052e-01	1.466188e+14	2.752483e+14	3.132305e+14	1.110527e+04	7.127390e+03	3.451011e+03	0	6.271505e-04
1.120000e+09	3.564903e+12	0.000000e+00	3.924052e-01	1.451484e+14	2.761972e+14	3.118651e+14	1.108776e+04	7.131151e+03	3.452832e+03	0	6.223710e-04
1.130000e+09	3.483490e+12	0.000000e+00	3.924052e-01	1.437010e+14	2.771290e+14	3.105088e+14	1.107043e+04	7.134836e+03	3.454616e+03	0	6.175968e-04
1.140000e+09	3.403401e+12	0.000000e+00	3.924052e-01	1.422764e+14	2.780438e+14	3.091616e+14	1.105326e+04	7.138444e+03	3.456363e+03	0	6.128269e-04
1.150000e+09	3.324605e+12	0.000000e+00	3.924052e-01	1.408739e+14	2.789417e+14	3.078233e+14	1.103627e+04	7.141976e+03	3.458074e+03	0	6.080605e-04
1.160000e+09	3.247077e+12	0.000000e+00	3.924052e-01	1.394931e+14	2.798228e+14	3.064940e+14	1.101945e+04	7.145435e+03	3.459748e+03	0	6.032968e-04
1.170000e+09	3.170790e+12	0.000000e+00	3.924052e-01	1.381336e+14	2.806872e+14	3.051736e+14	1.100279e+04	7.148820e+03	3.461387e+03	0	5.985346e-04
1.180000e+09	3.095718e+12	0.000000e+00	3.924052e-01	1.367949e+14	2.815352e+14	3.038619e+14	1.098629e+04	7.152132e+03	3.462991e+03	0	5.937732e-04
1.190000e+09	3.021836e+12	0.000000e+00	3.924052e-01	1.354767e+14	2.823667e+14	3.025589e+14	1.096995e+04	7.155373e+03	3.464560e+03	0	5.890115e-04
1.200000e+09	2.949121e+12	0.000000e+00	3.924052e-01	1.341784e+14	2.831819e+14	3.012647e+14	1.095376e+04	7.158544e+03	3.466095e+03	0	5.842486e-04
1.210000e+09	2.877548e+12	0.000000e+00	3.924052e-01	1.328998e+14	2.839809e+14	2.999789e+14	1.093773e+04	7.161645e+03	3.467597e+03	0	5.794834e-04
1.220000e+09	2.807095e+12	0.000000e+00	3.924052e-01	1.316403e+14	2.847638e+14	2.987017e+14	1.092186e+04	7.164677e+03	3.469065e+03	0	5.747149e-04
1.230000e+09	2.737738e+12	0.000000e+00	3.924052e-01	1.303998e+14	2.855308e+14	2.974330e+14	1.090613e+04	7.167641e+03	3.470500e+03	0	5.699421e-04
1.240000e+09	2.669456e+12	0.000000e+00	3.924052e-01	1.291776e+14	2.862820e+14	2.961726e+14	1.089055e+04	7.170538e+03	3.471903e+03	0	5.651639e-04
1.250000e+09	2.602228e+12	0.000000e+00	3.924052e-01	1.279736e+14	2.870175e+14	2.949206e+14	1.087512e+04	7.173370e+03	3.473274e+03	0	5.603791e-04
1.260000e+09	2.536032e+12	0.000000e+00	3.924052e-01	1.267874e+14	2.877374e+14	2.936768e+14	1.085983e+04	7.176136e+03	3.474613e+03	0	5.555865e-04
1.270000e+09	2.470848e+12	0.000000e+00	3.924052e-01	1.256185e+14	2.884420e+14	2.924412e+14	1.084468e+04	7.178838e+03	3.475922e+03	0	5.507851e-04
1.280000e+09	2.406658e+12	0.000000e+00	3.924052e-01	1.244667e+14	2.891311e+14	2.912138e+14	1.082967e+04	7.181476e+03	3.477199e+03	0	5.459735e-04
1.290000e+09	2.343440e+12	0.000000e+00	3.924052e-01	1.233317e+14	2.898052e+14	2.899944e+14	1.081480e+04	7.184052e+03	3.478446e+03	0	5.411505e-04
1.300000e+09	2.281176e+12	0.000000e+00	3.924052e-01	1.222131e+14	2.904642e+14	2.887830e+14	1.080006e+04	7.186565e+03	3.479663e+03	0	5.363147e-04
1.310000e+09	2.219848e+12	0.000000e+00	3.924052e-01	1.211106e+14	2.911083e+14	2.875795e+14	1.078546e+04	7.189018e+03	3.480851e+03	0	5.314649e-04
1.320000e+09	2.159438e+12	0.000000e+00	3.924052e-01	1.200239e+14	2.917375e+14	2.863840e+14	1.077099e+04	7.191410e+03	3.482009e+03	0	5.265994e-04
1.330000e+09	2.099928e+12	0.000000e+00	3.924052e-01	1.189527e+14	2.923522e+14	2.851962e+14	1.075665e+04	7.193743e+03	3.483139e+03	0	5.217170e-04
1.340000e+09	2.041302e+12	0.000000e+00	3.924052e-01	1.178968e+14	2.929523e+14	2.840162e+14	1.074243e+04	7.196018e+03	3.484240e+03	0	5.168159e-04
1.350000e+09	1.983541e+12	0.000000e+00	3.924052e-01	1.168558e+14	2.935380e+14	2.828439e+14	1.072834e+04	7.198234e+03	3.485313e+03	0	5.118946e-04
1.360000e+09	1.926631e+12	0.000000e+00	3.924052e-01	1.158294e+14	2.941095e+14	2.816793e+14	1.071438e+04	7.200393e+03	3.486358e+03	0	5.069514e-04
