#t		Qconv[W]	Ri[Rp]		R*[Rp]		Qc[W]		Qm[W]		Qr[W]		Tcmb[K]		Tl[K]		Tup[K]		RiFlag		Bs[T]
0.000000e+00	8.067751e+13	0.000000e+00	3.924051e-01	1.331012e+15	5.552330e+13	6.750098e+14	1.867047e+04	6.433934e+03	2.911774e+03	0	1.746701e-03
1.000000e+07	7.795290e+13	0.000000e+00	3.924051e-01	1.292440e+15	5.775607e+13	6.712697e+14	1.854748e+04	6.467023e+03	2.926749e+03	0	1.726812e-03
2.000000e+07	7.536204e+13	0.000000e+00	3.924051e-01	1.255731e+15	6.000523e+13	6.675577e+14	1.842801e+04	6.499356e+03	2.941382e+03	0	1.707466e-03
3.000000e+07	7.289582e+13	0.000000e+00	3.924051e-01	1.220757e+15	6.226979e+13	6.638733e+14	1.831189e+04	6.530963e+03	2.955686e+03	0	1.688633e-03
4.000000e+07	7.054592e+13	0.000000e+00	3.924051e-01	1.187404e+15	6.454878e+13	6.602165e+14	1.819897e+04	6.561876e+03	2.969676e+03	0	1.670289e-03
5.000000e+07	6.830473e+13	0.000000e+00	3.924051e-01	1.155567e+15	6.684127e+13	6.565869e+14	1.808911e+04	6.592121e+03	2.983364e+03	0	1.652411e-03
6.000000e+07	6.616526e+13	0.000000e+00	3.924051e-01	1.125149e+15	6.914636e+13	6.529844e+14	1.798215e+04	6.621724e+03	2.996761e+03	0	1.634975e-03
7.000000e+07	6.412109e+13	0.000000e+00	3.924051e-01	1.096060e+15	7.146318e+13	6.494088e+14	1.787798e+04	6.650711e+03	3.009880e+03	0	1.617961e-03
8.000000e+07	6.216633e+13	0.000000e+00	3.924051e-01	1.068221e+15	7.379090e+13	6.458597e+14	1.777648e+04	6.679103e+03	3.022729e+03	0	1.601350e-03
9.000000e+07	6.029553e+13	0.000000e+00	3.924051e-01	1.041554e+15	7.612868e+13	6.423370e+14	1.767753e+04	6.706922e+03	3.035319e+03	0	1.585122e-03
1.000000e+08	5.850368e+13	0.000000e+00	3.924051e-01	1.015991e+15	7.847575e+13	6.388405e+14	1.758102e+04	6.734189e+03	3.047659e+03	0	1.569262e-03
1.100000e+08	5.678614e+13	0.000000e+00	3.924051e-01	9.914673e+14	8.083132e+13	6.353699e+14	1.748686e+04	6.760923e+03	3.059758e+03	0	1.553752e-03
1.200000e+08	5.513861e+13	0.000000e+00	3.924051e-01	9.679232e+14	8.319467e+13	6.319250e+14	1.739495e+04	6.787141e+03	3.071623e+03	0	1.538579e-03
1.300000e+08	5.355712e+13	0.000000e+00	3.924051e-01	9.453038e+14	8.556505e+13	6.285057e+14	1.730520e+04	6.812860e+03	3.083263e+03	0	1.523726e-03
1.400000e+08	5.203798e+13	0.000000e+00	3.924051e-01	9.235578e+14	8.794177e+13	6.251116e+14	1.721753e+04	6.838097e+03	3.094684e+03	0	1.509181e-03
1.500000e+08	5.057776e+13	0.000000e+00	3.924051e-01	9.026376e+14	9.032416e+13	6.217426e+14	1.713185e+04	6.862867e+03	3.105894e+03	0	1.494930e-03
1.600000e+08	4.917328e+13	0.000000e+00	3.924051e-01	8.824990e+14	9.271150e+13	6.183986e+14	1.704810e+04	6.887184e+03	3.116899e+03	0	1.480963e-03
1.700000e+08	4.782157e+13	0.000000e+00	3.924051e-01	8.631008e+14	9.510318e+13	6.150792e+14	1.696620e+04	6.911061e+03	3.127705e+03	0	1.467267e-03
1.800000e+08	4.651986e+13	0.000000e+00	3.924051e-01	8.444045e+14	9.749858e+13	6.117842e+14	1.688609e+04	6.934512e+03	3.138318e+03	0	1.453831e-03
1.900000e+08	4.526558e+13	0.000000e+00	3.924051e-01	8.263743e+14	9.989701e+13	6.085136e+14	1.680769e+04	6.957548e+03	3.148744e+03	0	1.440645e-03
2.000000e+08	4.405630e+13	0.000000e+00	3.924051e-01	8.089765e+14	1.022979e+14	6.052670e+14	1.673096e+04	6.980182e+03	3.158987e+03	0	1.427700e-03
2.100000e+08	4.288977e+13	0.000000e+00	3.924051e-01	7.921799e+14	1.047008e+14	6.020443e+14	1.665583e+04	7.002425e+03	3.169053e+03	0	1.414987e-03
2.200000e+08	4.176390e+13	0.000000e+00	3.924051e-01	7.759551e+14	1.071049e+14	5.988452e+14	1.658224e+04	7.024287e+03	3.178947e+03	0	1.402495e-03
2.300000e+08	4.067668e+13	0.000000e+00	3.924051e-01	7.602745e+14	1.095097e+14	5.956696e+14	1.651015e+04	7.045779e+03	3.188674e+03	0	1.390218e-03
2.400000e+08	3.962628e+13	0.000000e+00	3.924051e-01	7.451124e+14	1.119148e+14	5.925173e+14	1.643950e+04	7.066909e+03	3.198236e+03	0	1.378147e-03
2.500000e+08	3.861096e+13	0.000000e+00	3.924051e-01	7.304444e+14	1.143195e+14	5.893881e+14	1.637026e+04	7.087687e+03	3.207640e+03	0	1.366274e-03
2.600000e+08	3.762907e+13	0.000000e+00	3.924051e-01	7.162478e+14	1.167234e+14	5.862818e+14	1.630236e+04	7.108123e+03	3.216888e+03	0	1.354593e-03
2.700000e+08	3.667908e+13	0.000000e+00	3.924051e-01	7.025011e+14	1.191259e+14	5.831982e+14	1.623578e+04	7.128223e+03	3.225985e+03	0	1.343096e-03
2.800000e+08	3.575954e+13	0.000000e+00	3.924051e-01	6.891842e+14	1.215266e+14	5.801372e+14	1.617046e+04	7.147998e+03	3.234934e+03	0	1.331778e-03
2.900000e+08	3.486908e+13	0.000000e+00	3.924051e-01	6.762781e+14	1.239249e+14	5.770985e+14	1.610637e+04	7.167453e+03	3.243739e+03	0	1.320630e-03
3.000000e+08	3.400644e+13	0.000000e+00	3.924051e-01	6.637648e+14	1.263203e+14	5.740819e+14	1.604347e+04	7.186597e+03	3.252403e+03	0	1.309649e-03
3.100000e+08	3.317038e+13	0.000000e+00	3.924051e-01	6.516273e+14	1.287125e+14	5.710873e+14	1.598173e+04	7.205437e+03	3.260929e+03	0	1.298827e-03
3.200000e+08	3.235977e+13	0.000000e+00	3.924051e-01	6.398498e+14	1.311009e+14	5.681145e+14	1.592111e+04	7.223979e+03	3.269321e+03	0	1.288159e-03
3.300000e+08	3.157353e+13	0.000000e+00	3.924051e-01	6.284170e+14	1.334851e+14	5.651633e+14	1.586157e+04	7.242230e+03	3.277581e+03	0	1.277641e-03
3.400000e+08	3.081064e+13	0.000000e+00	3.924051e-01	6.173148e+14	1.358647e+14	5.622335e+14	1.580310e+04	7.260196e+03	3.285711e+03	0	1.267266e-03
3.500000e+08	3.007012e+13	0.000000e+00	3.924051e-01	6.065295e+14	1.382393e+14	5.593250e+14	1.574565e+04	7.277884e+03	3.293716e+03	0	1.257031e-03
3.600000e+08	2.935106e+13	0.000000e+00	3.924051e-01	5.960485e+14	1.406084e+14	5.564376e+14	1.568919e+04	7.295299e+03	3.301598e+03	0	1.246931e-03
3.700000e+08	2.865260e+13	0.000000e+00	3.924051e-01	5.858594e+14	1.429716e+14	5.535710e+14	1.563371e+04	7.312447e+03	3.309358e+03	0	1.236960e-03
3.800000e+08	2.797391e+13	0.000000e+00	3.924051e-01	5.759510e+14	1.453286e+14	5.507253e+14	1.557916e+04	7.329333e+03	3.317000e+03	0	1.227115e-03
3.900000e+08	2.731421e+13	0.000000e+00	3.924051e-01	5.663121e+14	1.476789e+14	5.479001e+14	1.552554e+04	7.345962e+03	3.324526e+03	0	1.217392e-03
4.000000e+08	2.667276e+13	0.000000e+00	3.924051e-01	5.569325e+14	1.500222e+14	5.450953e+14	1.547280e+04	7.362341e+03	3.331938e+03	0	1.207787e-03
4.100000e+08	2.604887e+13	0.000000e+00	3.924051e-01	5.478022e+14	1.523581e+14	5.423107e+14	1.542093e+04	7.378472e+03	3.339239e+03	0	1.198296e-03
4.200000e+08	2.544185e+13	0.000000e+00	3.924051e-01	5.389120e+14	1.546863e+14	5.395462e+14	1.536991e+04	7.394362e+03	3.346430e+03	0	1.188915e-03
4.300000e+08	2.485108e+13	0.000000e+00	3.924051e-01	5.302529e+14	1.570063e+14	5.368016e+14	1.531971e+04	7.410014e+03	3.353514e+03	0	1.179640e-03
4.400000e+08	2.427595e+13	0.000000e+00	3.924051e-01	5.218164e+14	1.593180e+14	5.340768e+14	1.527032e+04	7.425433e+03	3.360492e+03	0	1.170469e-03
4.500000e+08	2.371588e+13	0.000000e+00	3.924051e-01	5.135944e+14	1.616209e+14	5.313715e+14	1.522170e+04	7.440624e+03	3.367367e+03	0	1.161397e-03
4.600000e+08	2.317033e+13	0.000000e+00	3.924051e-01	5.055793e+14	1.639147e+14	5.286857e+14	1.517384e+04	7.455590e+03	3.374140e+03	0	1.152423e-03
4.700000e+08	2.263878e+13	0.000000e+00	3.924051e-01	4.977637e+14	1.661990e+14	5.260191e+14	1.512673e+04	7.470336e+03	3.380813e+03	0	1.143542e-03
4.800000e+08	2.212072e+13	0.000000e+00	3.924051e-01	4.901405e+14	1.684737e+14	5.233716e+14	1.508034e+04	7.484865e+03	3.387389e+03	0	1.134752e-03
4.900000e+08	2.161568e+13	0.000000e+00	3.924051e-01	4.827032e+14	1.707384e+14	5.207431e+14	1.503466e+04	7.499181e+03	3.393868e+03	0	1.126049e-03
5.000000e+08	2.112321e+13	0.000000e+00	3.924051e-01	4.754454e+14	1.729928e+14	5.181334e+14	1.498967e+04	7.513287e+03	3.400252e+03	0	1.117432e-03
5.100000e+08	2.064287e+13	0.000000e+00	3.924051e-01	4.683608e+14	1.752366e+14	5.155423e+14	1.494535e+04	7.527188e+03	3.406543e+03	0	1.108897e-03
5.200000e+08	2.017425e+13	0.000000e+00	3.924051e-01	4.614438e+14	1.774696e+14	5.129697e+14	1.490168e+04	7.540887e+03	3.412742e+03	0	1.100441e-03
5.300000e+08	1.971695e+13	0.000000e+00	3.924051e-01	4.546888e+14	1.796914e+14	5.104155e+14	1.485866e+04	7.554387e+03	3.418852e+03	0	1.092063e-03
5.400000e+08	1.927060e+13	0.000000e+00	3.924051e-01	4.480903e+14	1.819019e+14	5.078794e+14	1.481627e+04	7.567691e+03	3.424873e+03	0	1.083759e-03
5.500000e+08	1.883484e+13	0.000000e+00	3.924051e-01	4.416434e+14	1.841007e+14	5.053614e+14	1.477448e+04	7.580803e+03	3.430807e+03	0	1.075528e-03
5.600000e+08	1.840931e+13	0.000000e+00	3.924051e-01	4.353431e+14	1.862877e+14	5.028613e+14	1.473330e+04	7.593725e+03	3.436655e+03	0	1.067366e-03
5.700000e+08	1.799368e+13	0.000000e+00	3.924051e-01	4.291847e+14	1.884625e+14	5.003790e+14	1.469269e+04	7.606461e+03	3.442419e+03	0	1.059273e-03
5.800000e+08	1.758765e+13	0.000000e+00	3.924051e-01	4.231638e+14	1.906250e+14	4.979143e+14	1.465266e+04	7.619013e+03	3.448100e+03	0	1.051244e-03
5.900000e+08	1.719089e+13	0.000000e+00	3.924051e-01	4.172761e+14	1.927749e+14	4.954670e+14	1.461319e+04	7.631385e+03	3.453699e+03	0	1.043279e-03
6.000000e+08	1.680313e+13	0.000000e+00	3.924051e-01	4.115174e+14	1.949121e+14	4.930371e+14	1.457427e+04	7.643579e+03	3.459217e+03	0	1.035375e-03
6.100000e+08	1.642408e+13	0.000000e+00	3.924051e-01	4.058838e+14	1.970363e+14	4.906243e+14	1.453588e+04	7.655597e+03	3.464656e+03	0	1.027530e-03
6.200000e+08	1.605346e+13	0.000000e+00	3.924051e-01	4.003715e+14	1.991473e+14	4.882286e+14	1.449801e+04	7.667443e+03	3.470017e+03	0	1.019743e-03
6.300000e+08	1.569103e+13	0.000000e+00	3.924051e-01	3.949768e+14	2.012449e+14	4.858498e+14	1.446065e+04	7.679119e+03	3.475302e+03	0	1.012010e-03
6.400000e+08	1.533654e+13	0.000000e+00	3.924051e-01	3.896962e+14	2.033289e+14	4.834878e+14	1.442380e+04	7.690628e+03	3.480510e+03	0	1.004331e-03
6.500000e+08	1.498974e+13	0.000000e+00	3.924051e-01	3.845264e+14	2.053992e+14	4.811424e+14	1.438743e+04	7.701972e+03	3.485644e+03	0	9.967031e-04
6.600000e+08	1.465041e+13	0.000000e+00	3.924051e-01	3.794642e+14	2.074556e+14	4.788136e+14	1.435155e+04	7.713153e+03	3.490704e+03	0	9.891247e-04
6.700000e+08	1.431833e+13	0.000000e+00	3.924051e-01	3.745063e+14	2.094979e+14	4.765011e+14	1.431613e+04	7.724173e+03	3.495691e+03	0	9.815940e-04
6.800000e+08	1.399329e+13	0.000000e+00	3.924051e-01	3.696498e+14	2.115259e+14	4.742048e+14	1.428118e+04	7.735036e+03	3.500608e+03	0	9.741093e-04
6.900000e+08	1.367508e+13	0.000000e+00	3.924051e-01	3.648919e+14	2.135395e+14	4.719247e+14	1.424667e+04	7.745743e+03	3.505453e+03	0	9.666687e-04
7.000000e+08	1.336350e+13	0.000000e+00	3.924051e-01	3.602297e+14	2.155386e+14	4.696605e+14	1.421261e+04	7.756297e+03	3.510229e+03	0	9.592707e-04
7.100000e+08	1.305838e+13	0.000000e+00	3.924051e-01	3.556606e+14	2.175229e+14	4.674122e+14	1.417898e+04	7.766699e+03	3.514937e+03	0	9.519134e-04
7.200000e+08	1.275952e+13	0.000000e+00	3.924051e-01	3.511819e+14	2.194924e+14	4.651796e+14	1.414578e+04	7.776952e+03	3.519577e+03	0	9.445953e-04
7.300000e+08	1.246675e+13	0.000000e+00	3.924051e-01	3.467913e+14	2.214470e+14	4.629626e+14	1.411299e+04	7.787057e+03	3.524151e+03	0	9.373147e-04
7.400000e+08	1.217990e+13	0.000000e+00	3.924051e-01	3.424863e+14	2.233864e+14	4.607611e+14	1.408061e+04	7.797018e+03	3.528658e+03	0	9.300700e-04
7.500000e+08	1.189881e+13	0.000000e+00	3.924051e-01	3.382646e+14	2.253106e+14	4.585749e+14	1.404864e+04	7.806835e+03	3.533101e+03	0	9.228595e-04
7.600000e+08	1.162333e+13	0.000000e+00	3.924051e-01	3.341239e+14	2.272195e+14	4.564040e+14	1.401705e+04	7.816511e+03	3.537480e+03	0	9.156818e-04
7.700000e+08	1.135330e+13	0.000000e+00	3.924051e-01	3.300622e+14	2.291129e+14	4.542482e+14	1.398585e+04	7.826047e+03	3.541796e+03	0	9.085351e-04
7.800000e+08	1.108857e+13	0.000000e+00	3.924051e-01	3.260773e+14	2.309908e+14	4.521073e+14	1.395502e+04	7.835446e+03	3.546050e+03	0	9.014180e-04
7.900000e+08	1.082901e+13	0.000000e+00	3.924051e-01	3.221673e+14	2.328531e+14	4.499813e+14	1.392457e+04	7.844709e+03	3.550242e+03	0	8.943289e-04
8.000000e+08	1.057447e+13	0.000000e+00	3.924051e-01	3.183302e+14	2.346996e+14	4.478701e+14	1.389448e+04	7.853839e+03	3.554373e+03	0	8.872662e-04
8.100000e+08	1.032483e+13	0.000000e+00	3.924051e-01	3.145641e+14	2.365303e+14	4.457735e+14	1.386475e+04	7.862836e+03	3.558445e+03	0	8.802285e-04
8.200000e+08	1.007996e+13	0.000000e+00	3.924051e-01	3.108672e+14	2.383451e+14	4.436914e+14	1.383537e+04	7.871702e+03	3.562458e+03	0	8.732141e-04
8.300000e+08	9.839744e+12	0.000000e+00	3.924051e-01	3.072378e+14	2.401439e+14	4.416237e+14	1.380633e+04	7.880440e+03	3.566412e+03	0	8.662216e-04
8.400000e+08	9.604051e+12	0.000000e+00	3.924051e-01	3.036741e+14	2.419267e+14	4.395703e+14	1.377763e+04	7.889051e+03	3.570309e+03	0	8.592494e-04
8.500000e+08	9.372773e+12	0.000000e+00	3.924051e-01	3.001746e+14	2.436933e+14	4.375310e+14	1.374926e+04	7.897536e+03	3.574149e+03	0	8.522960e-04
8.600000e+08	9.145797e+12	0.000000e+00	3.924051e-01	2.967377e+14	2.454438e+14	4.355058e+14	1.372121e+04	7.905898e+03	3.577933e+03	0	8.453598e-04
8.700000e+08	8.923017e+12	0.000000e+00	3.924051e-01	2.933618e+14	2.471780e+14	4.334946e+14	1.369349e+04	7.914137e+03	3.581662e+03	0	8.384393e-04
8.800000e+08	8.704328e+12	0.000000e+00	3.924051e-01	2.900455e+14	2.488959e+14	4.314972e+14	1.366608e+04	7.922255e+03	3.585336e+03	0	8.315330e-04
8.900000e+08	8.489630e+12	0.000000e+00	3.924051e-01	2.867873e+14	2.505975e+14	4.295135e+14	1.363898e+04	7.930254e+03	3.588956e+03	0	8.246392e-04
9.000000e+08	8.278825e+12	0.000000e+00	3.924051e-01	2.835858e+14	2.522827e+14	4.275434e+14	1.361218e+04	7.938136e+03	3.592523e+03	0	8.177564e-04
9.100000e+08	8.071821e+12	0.000000e+00	3.924051e-01	2.804397e+14	2.539515e+14	4.255868e+14	1.358568e+04	7.945901e+03	3.596037e+03	0	8.108831e-04
9.200000e+08	7.868524e+12	0.000000e+00	3.924051e-01	2.773476e+14	2.556038e+14	4.236437e+14	1.355947e+04	7.953551e+03	3.599500e+03	0	8.040175e-04
9.300000e+08	7.668846e+12	0.000000e+00	3.924051e-01	2.743084e+14	2.572397e+14	4.217138e+14	1.353355e+04	7.961088e+03	3.602911e+03	0	7.971580e-04
9.400000e+08	7.472703e+12	0.000000e+00	3.924051e-01	2.713207e+14	2.588590e+14	4.197971e+14	1.350792e+04	7.968513e+03	3.606271e+03	0	7.903030e-04
9.500000e+08	7.280010e+12	0.000000e+00	3.924051e-01	2.683834e+14	2.604618e+14	4.178935e+14	1.348256e+04	7.975828e+03	3.609581e+03	0	7.834508e-04
9.600000e+08	7.090687e+12	0.000000e+00	3.924051e-01	2.654954e+14	2.620480e+14	4.160028e+14	1.345748e+04	7.983033e+03	3.612842e+03	0	7.765996e-04
9.700000e+08	6.904656e+12	0.000000e+00	3.924051e-01	2.626554e+14	2.636176e+14	4.141251e+14	1.343266e+04	7.990130e+03	3.616054e+03	0	7.697477e-04
9.800000e+08	6.721840e+12	0.000000e+00	3.924051e-01	2.598625e+14	2.651707e+14	4.122601e+14	1.340811e+04	7.997121e+03	3.619218e+03	0	7.628933e-04
9.900000e+08	6.542168e+12	0.000000e+00	3.924051e-01	2.571156e+14	2.667072e+14	4.104078e+14	1.338382e+04	8.004007e+03	3.622334e+03	0	7.560345e-04
1.000000e+09	6.365566e+12	0.000000e+00	3.924051e-01	2.544136e+14	2.682271e+14	4.085681e+14	1.335978e+04	8.010788e+03	3.625403e+03	0	7.491695e-04
1.010000e+09	6.191965e+12	0.000000e+00	3.924051e-01	2.517556e+14	2.697304e+14	4.067408e+14	1.333600e+04	8.017467e+03	3.628426e+03	0	7.422962e-04
1.020000e+09	6.021300e+12	0.000000e+00	3.924051e-01	2.491405e+14	2.712171e+14	4.049260e+14	1.331246e+04	8.024044e+03	3.631402e+03	0	7.354127e-04
1.030000e+09	5.853503e+12	0.000000e+00	3.924051e-01	2.465675e+14	2.726872e+14	4.031234e+14	1.328917e+04	8.030521e+03	3.634334e+03	0	7.285170e-04
1.040000e+09	5.688511e+12	0.000000e+00	3.924051e-01	2.440357e+14	2.741408e+14	4.013330e+14	1.326612e+04	8.036899e+03	3.637220e+03	0	7.216068e-04
1.050000e+09	5.526264e+12	0.000000e+00	3.924051e-01	2.415440e+14	2.755778e+14	3.995547e+14	1.324330e+04	8.043179e+03	3.640062e+03	0	7.146799e-04
1.060000e+09	5.366700e+12	0.000000e+00	3.924051e-01	2.390918e+14	2.769982e+14	3.977883e+14	1.322072e+04	8.049362e+03	3.642860e+03	0	7.077342e-04
1.070000e+09	5.209761e+12	0.000000e+00	3.924051e-01	2.366782e+14	2.784022e+14	3.960339e+14	1.319836e+04	8.055450e+03	3.645616e+03	0	7.007671e-04
1.080000e+09	5.055392e+12	0.000000e+00	3.924051e-01	2.343022e+14	2.797897e+14	3.942913e+14	1.317623e+04	8.061443e+03	3.648328e+03	0	6.937761e-04
1.090000e+09	4.903536e+12	0.000000e+00	3.924051e-01	2.319632e+14	2.811606e+14	3.925604e+14	1.315432e+04	8.067343e+03	3.650998e+03	0	6.867587e-04
1.100000e+09	4.754141e+12	0.000000e+00	3.924051e-01	2.296604e+14	2.825151e+14	3.908411e+14	1.313263e+04	8.073151e+03	3.653626e+03	0	6.797122e-04
1.110000e+09	4.607154e+12	0.000000e+00	3.924051e-01	2.273930e+14	2.838532e+14	3.891334e+14	1.311115e+04	8.078867e+03	3.656214e+03	0	6.726337e-04
1.120000e+09	4.462524e+12	0.000000e+00	3.924051e-01	2.251603e+14	2.851750e+14	3.874371e+14	1.308989e+04	8.084494e+03	3.658760e+03	0	6.655202e-04
1.130000e+09	4.320203e+12	0.000000e+00	3.924051e-01	2.229616e+14	2.864804e+14	3.857521e+14	1.306883e+04	8.090032e+03	3.661266e+03	0	6.583686e-04
1.140000e+09	4.180142e+12	0.000000e+00	3.924051e-01	2.207962e+14	2.877695e+14	3.840784e+14	1.304798e+04	8.095481e+03	3.663732e+03	0	6.511755e-04
1.150000e+09	4.042294e+12	0.000000e+00	3.924051e-01	2.186634e+14	2.890423e+14	3.824159e+14	1.302733e+04	8.100844e+03	3.666159e+03	0	6.439375e-04
1.160000e+09	3.906614e+12	0.000000e+00	3.924051e-01	2.165625e+14	2.902989e+14	3.807645e+14	1.300687e+04	8.106121e+03	3.668548e+03	0	6.366507e-04
1.170000e+09	3.773058e+12	0.000000e+00	3.924051e-01	2.144930e+14	2.915394e+14	3.791240e+14	1.298662e+04	8.111313e+03	3.670897e+03	0	6.293113e-04
1.180000e+09	3.641582e+12	0.000000e+00	3.924051e-01	2.124542e+14	2.927637e+14	3.774945e+14	1.296655e+04	8.116421e+03	3.673209e+03	0	6.219151e-04
1.190000e+09	3.512145e+12	0.000000e+00	3.924051e-01	2.104454e+14	2.939721e+14	3.758758e+14	1.294668e+04	8.121447e+03	3.675483e+03	0	6.144576e-04
1.200000e+09	3.384706e+12	0.000000e+00	3.924051e-01	2.084662e+14	2.951643e+14	3.742679e+14	1.292700e+04	8.126390e+03	3.677721e+03	0	6.069339e-04
1.210000e+09	3.259224e+12	0.000000e+00	3.924051e-01	2.065159e+14	2.963407e+14	3.726706e+14	1.290749e+04	8.131252e+03	3.679921e+03	0	5.993389e-04
1.220000e+09	3.135661e+12	0.000000e+00	3.924051e-01	2.045939e+14	2.975012e+14	3.710839e+14	1.288818e+04	8.136035e+03	3.682085e+03	0	5.916671e-04
1.230000e+09	3.013978e+12	0.000000e+00	3.924051e-01	2.026998e+14	2.986457e+14	3.695078e+14	1.286904e+04	8.140738e+03	3.684214e+03	0	5.839125e-04
1.240000e+09	2.894140e+12	0.000000e+00	3.924051e-01	2.008329e+14	2.997746e+14	3.679420e+14	1.285007e+04	8.145363e+03	3.686307e+03	0	5.760687e-04
1.250000e+09	2.776110e+12	0.000000e+00	3.924051e-01	1.989928e+14	3.008877e+14	3.663865e+14	1.283128e+04	8.149911e+03	3.688365e+03	0	5.681285e-04
1.260000e+09	2.659852e+12	0.000000e+00	3.924051e-01	1.971790e+14	3.019852e+14	3.648414e+14	1.281267e+04	8.154382e+03	3.690389e+03	0	5.600845e-04
1.270000e+09	2.545333e+12	0.000000e+00	3.924051e-01	1.953909e+14	3.030671e+14	3.633064e+14	1.279422e+04	8.158778e+03	3.692378e+03	0	5.519282e-04
1.280000e+09	2.432519e+12	0.000000e+00	3.924051e-01	1.936280e+14	3.041335e+14	3.617815e+14	1.277594e+04	8.163099e+03	3.694334e+03	0	5.436505e-04
1.290000e+09	2.321377e+12	0.000000e+00	3.924051e-01	1.918900e+14	3.051845e+14	3.602666e+14	1.275782e+04	8.167347e+03	3.696256e+03	0	5.352413e-04
1.300000e+09	2.211876e+12	0.000000e+00	3.924051e-01	1.901763e+14	3.062201e+14	3.587616e+14	1.273986e+04	8.171521e+03	3.698145e+03	0	5.266895e-04
1.310000e+09	2.103985e+12	0.000000e+00	3.924051e-01	1.884864e+14	3.072405e+14	3.572666e+14	1.272207e+04	8.175624e+03	3.700002e+03	0	5.179827e-04
1.320000e+09	1.997673e+12	0.000000e+00	3.924051e-01	1.868201e+14	3.082456e+14	3.557813e+14	1.270443e+04	8.179655e+03	3.701826e+03	0	5.091071e-04
1.330000e+09	1.892910e+12	0.000000e+00	3.924051e-01	1.851767e+14	3.092357e+14	3.543057e+14	1.268695e+04	8.183616e+03	3.703619e+03	0	5.000473e-04
1.340000e+09	1.789668e+12	0.000000e+00	3.924051e-01	1.835559e+14	3.102107e+14	3.528398e+14	1.266962e+04	8.187507e+03	3.705380e+03	0	4.907857e-04
1.350000e+09	1.687919e+12	0.000000e+00	3.924051e-01	1.819573e+14	3.111706e+14	3.513834e+14	1.265244e+04	8.191329e+03	3.707110e+03	0	4.813027e-04
1.360000e+09	1.587635e+12	0.000000e+00	3.924051e-01	1.803805e+14	3.121158e+14	3.499365e+14	1.263542e+04	8.195084e+03	3.708809e+03	0	4.715755e-04
