#t		Qconv[W]	Ri[Rp]		R*[Rp]		Qc[W]		Qm[W]		Qr[W]		Tcmb[K]		Tl[K]		Tup[K]		RiFlag		Bs[T]
0.000000e+00	8.577272e+13	0.000000e+00	3.924051e-01	1.396888e+15	5.328135e+13	7.003230e+14	1.919588e+04	6.552098e+03	2.932790e+03	0	1.781030e-03
1.000000e+07	8.291918e+13	0.000000e+00	3.924051e-01	1.357431e+15	5.543354e+13	6.964427e+14	1.907239e+04	6.585676e+03	2.947820e+03	0	1.761056e-03
2.000000e+07	8.020250e+13	0.000000e+00	3.924051e-01	1.319832e+15	5.760326e+13	6.925914e+14	1.895234e+04	6.618506e+03	2.962515e+03	0	1.741609e-03
3.000000e+07	7.761357e+13	0.000000e+00	3.924051e-01	1.283969e+15	5.978954e+13	6.887689e+14	1.883558e+04	6.650618e+03	2.976889e+03	0	1.722664e-03
4.000000e+07	7.514407e+13	0.000000e+00	3.924051e-01	1.249730e+15	6.199144e+13	6.849750e+14	1.872195e+04	6.682041e+03	2.990954e+03	0	1.704197e-03
5.000000e+07	7.278634e+13	0.000000e+00	3.924051e-01	1.217012e+15	6.420809e+13	6.812093e+14	1.861133e+04	6.712803e+03	3.004724e+03	0	1.686183e-03
6.000000e+07	7.053335e+13	0.000000e+00	3.924051e-01	1.185719e+15	6.643862e+13	6.774717e+14	1.850357e+04	6.742928e+03	3.018208e+03	0	1.668603e-03
7.000000e+07	6.837864e+13	0.000000e+00	3.924051e-01	1.155764e+15	6.868218e+13	6.737619e+14	1.839855e+04	6.772440e+03	3.031418e+03	0	1.651436e-03
8.000000e+07	6.631625e+13	0.000000e+00	3.924051e-01	1.127068e+15	7.093794e+13	6.700798e+14	1.829615e+04	6.801361e+03	3.044363e+03	0	1.634663e-03
9.000000e+07	6.434068e+13	0.000000e+00	3.924051e-01	1.099555e+15	7.320514e+13	6.664250e+14	1.819627e+04	6.829713e+03	3.057054e+03	0	1.618266e-03
1.000000e+08	6.244684e+13	0.000000e+00	3.924051e-01	1.073156e+15	7.548300e+13	6.627973e+14	1.809881e+04	6.857514e+03	3.069498e+03	0	1.602230e-03
1.100000e+08	6.063003e+13	0.000000e+00	3.924051e-01	1.047809e+15	7.777078e+13	6.591966e+14	1.800366e+04	6.884785e+03	3.081705e+03	0	1.586539e-03
1.200000e+08	5.888588e+13	0.000000e+00	3.924051e-01	1.023455e+15	8.006774e+13	6.556225e+14	1.791074e+04	6.911541e+03	3.093681e+03	0	1.571177e-03
1.300000e+08	5.721034e+13	0.000000e+00	3.924051e-01	1.000037e+15	8.237316e+13	6.520750e+14	1.781996e+04	6.937801e+03	3.105435e+03	0	1.556132e-03
1.400000e+08	5.559965e+13	0.000000e+00	3.924051e-01	9.775066e+14	8.468639e+13	6.485536e+14	1.773124e+04	6.963579e+03	3.116974e+03	0	1.541389e-03
1.500000e+08	5.405032e+13	0.000000e+00	3.924051e-01	9.558150e+14	8.700673e+13	6.450583e+14	1.764450e+04	6.988890e+03	3.128303e+03	0	1.526936e-03
1.600000e+08	5.255908e+13	0.000000e+00	3.924051e-01	9.349184e+14	8.933352e+13	6.415888e+14	1.755966e+04	7.013749e+03	3.139431e+03	0	1.512762e-03
1.700000e+08	5.112290e+13	0.000000e+00	3.924051e-01	9.147757e+14	9.166616e+13	6.381450e+14	1.747666e+04	7.038170e+03	3.150361e+03	0	1.498856e-03
1.800000e+08	4.973893e+13	0.000000e+00	3.924051e-01	8.953484e+14	9.400398e+13	6.347265e+14	1.739544e+04	7.062163e+03	3.161101e+03	0	1.485207e-03
1.900000e+08	4.840454e+13	0.000000e+00	3.924051e-01	8.766006e+14	9.634642e+13	6.313332e+14	1.731592e+04	7.085743e+03	3.171656e+03	0	1.471805e-03
2.000000e+08	4.711723e+13	0.000000e+00	3.924051e-01	8.584987e+14	9.869285e+13	6.279648e+14	1.723806e+04	7.108920e+03	3.182030e+03	0	1.458640e-03
2.100000e+08	4.587470e+13	0.000000e+00	3.924051e-01	8.410113e+14	1.010427e+14	6.246212e+14	1.716179e+04	7.131706e+03	3.192229e+03	0	1.445704e-03
2.200000e+08	4.467477e+13	0.000000e+00	3.924051e-01	8.241088e+14	1.033954e+14	6.213022e+14	1.708706e+04	7.154110e+03	3.202257e+03	0	1.432987e-03
2.300000e+08	4.351540e+13	0.000000e+00	3.924051e-01	8.077634e+14	1.057504e+14	6.180076e+14	1.701383e+04	7.176143e+03	3.212120e+03	0	1.420482e-03
2.400000e+08	4.239468e+13	0.000000e+00	3.924051e-01	7.919493e+14	1.081072e+14	6.147371e+14	1.694203e+04	7.197814e+03	3.221820e+03	0	1.408181e-03
2.500000e+08	4.131080e+13	0.000000e+00	3.924051e-01	7.766420e+14	1.104652e+14	6.114905e+14	1.687163e+04	7.219133e+03	3.231362e+03	0	1.396077e-03
2.600000e+08	4.026207e+13	0.000000e+00	3.924051e-01	7.618184e+14	1.128239e+14	6.082677e+14	1.680257e+04	7.240107e+03	3.240751e+03	0	1.384162e-03
2.700000e+08	3.924691e+13	0.000000e+00	3.924051e-01	7.474570e+14	1.151829e+14	6.050685e+14	1.673483e+04	7.260747e+03	3.249989e+03	0	1.372429e-03
2.800000e+08	3.826381e+13	0.000000e+00	3.924051e-01	7.335373e+14	1.175415e+14	6.018926e+14	1.666835e+04	7.281059e+03	3.259081e+03	0	1.360873e-03
2.900000e+08	3.731136e+13	0.000000e+00	3.924051e-01	7.200400e+14	1.198994e+14	5.987400e+14	1.660310e+04	7.301050e+03	3.268030e+03	0	1.349486e-03
3.000000e+08	3.638822e+13	0.000000e+00	3.924051e-01	7.069470e+14	1.222560e+14	5.956103e+14	1.653905e+04	7.320730e+03	3.276838e+03	0	1.338264e-03
3.100000e+08	3.549314e+13	0.000000e+00	3.924051e-01	6.942412e+14	1.246110e+14	5.925033e+14	1.647615e+04	7.340104e+03	3.285510e+03	0	1.327200e-03
3.200000e+08	3.462492e+13	0.000000e+00	3.924051e-01	6.819063e+14	1.269638e+14	5.894191e+14	1.641437e+04	7.359179e+03	3.294049e+03	0	1.316288e-03
3.300000e+08	3.378244e+13	0.000000e+00	3.924051e-01	6.699269e+14	1.293139e+14	5.863572e+14	1.635368e+04	7.377962e+03	3.302456e+03	0	1.305525e-03
3.400000e+08	3.296463e+13	0.000000e+00	3.924051e-01	6.582887e+14	1.316611e+14	5.833175e+14	1.629406e+04	7.396459e+03	3.310736e+03	0	1.294904e-03
3.500000e+08	3.217049e+13	0.000000e+00	3.924051e-01	6.469777e+14	1.340048e+14	5.803000e+14	1.623546e+04	7.414676e+03	3.318890e+03	0	1.284421e-03
3.600000e+08	3.139907e+13	0.000000e+00	3.924051e-01	6.359810e+14	1.363446e+14	5.773043e+14	1.617786e+04	7.432619e+03	3.326921e+03	0	1.274071e-03
3.700000e+08	3.064944e+13	0.000000e+00	3.924051e-01	6.252862e+14	1.386801e+14	5.743303e+14	1.612123e+04	7.450294e+03	3.334833e+03	0	1.263850e-03
3.800000e+08	2.992076e+13	0.000000e+00	3.924051e-01	6.148815e+14	1.410110e+14	5.713778e+14	1.606555e+04	7.467705e+03	3.342626e+03	0	1.253754e-03
3.900000e+08	2.921221e+13	0.000000e+00	3.924051e-01	6.047559e+14	1.433368e+14	5.684466e+14	1.601079e+04	7.484859e+03	3.350304e+03	0	1.243778e-03
4.000000e+08	2.852302e+13	0.000000e+00	3.924051e-01	5.948987e+14	1.456572e+14	5.655366e+14	1.595692e+04	7.501760e+03	3.357869e+03	0	1.233919e-03
4.100000e+08	2.785244e+13	0.000000e+00	3.924051e-01	5.852999e+14	1.479718e+14	5.626477e+14	1.590393e+04	7.518413e+03	3.365323e+03	0	1.224172e-03
4.200000e+08	2.719979e+13	0.000000e+00	3.924051e-01	5.759498e+14	1.502802e+14	5.597795e+14	1.585179e+04	7.534822e+03	3.372668e+03	0	1.214535e-03
4.300000e+08	2.656438e+13	0.000000e+00	3.924051e-01	5.668394e+14	1.525820e+14	5.569320e+14	1.580047e+04	7.550993e+03	3.379907e+03	0	1.205003e-03
4.400000e+08	2.594559e+13	0.000000e+00	3.924051e-01	5.579599e+14	1.548771e+14	5.541049e+14	1.574996e+04	7.566929e+03	3.387040e+03	0	1.195573e-03
4.500000e+08	2.534281e+13	0.000000e+00	3.924051e-01	5.493031e+14	1.571649e+14	5.512982e+14	1.570024e+04	7.582635e+03	3.394070e+03	0	1.186241e-03
4.600000e+08	2.475547e+13	0.000000e+00	3.924051e-01	5.408612e+14	1.594451e+14	5.485117e+14	1.565129e+04	7.598115e+03	3.400999e+03	0	1.177006e-03
4.700000e+08	2.418302e+13	0.000000e+00	3.924051e-01	5.326265e+14	1.617176e+14	5.457451e+14	1.560308e+04	7.613373e+03	3.407829e+03	0	1.167862e-03
4.800000e+08	2.362493e+13	0.000000e+00	3.924051e-01	5.245918e+14	1.639818e+14	5.429983e+14	1.555560e+04	7.628413e+03	3.414561e+03	0	1.158809e-03
4.900000e+08	2.308071e+13	0.000000e+00	3.924051e-01	5.167505e+14	1.662376e+14	5.402713e+14	1.550884e+04	7.643239e+03	3.421197e+03	0	1.149841e-03
5.000000e+08	2.254987e+13	0.000000e+00	3.924051e-01	5.090957e+14	1.684846e+14	5.375637e+14	1.546277e+04	7.657854e+03	3.427739e+03	0	1.140958e-03
5.100000e+08	2.203196e+13	0.000000e+00	3.924051e-01	5.016214e+14	1.707225e+14	5.348754e+14	1.541738e+04	7.672261e+03	3.434188e+03	0	1.132155e-03
5.200000e+08	2.152654e+13	0.000000e+00	3.924051e-01	4.943215e+14	1.729512e+14	5.322064e+14	1.537265e+04	7.686465e+03	3.440545e+03	0	1.123431e-03
5.300000e+08	2.103320e+13	0.000000e+00	3.924051e-01	4.871902e+14	1.751702e+14	5.295563e+14	1.532857e+04	7.700468e+03	3.446814e+03	0	1.114782e-03
5.400000e+08	2.055153e+13	0.000000e+00	3.924051e-01	4.802222e+14	1.773793e+14	5.269252e+14	1.528512e+04	7.714275e+03	3.452993e+03	0	1.106207e-03
5.500000e+08	2.008116e+13	0.000000e+00	3.924051e-01	4.734120e+14	1.795782e+14	5.243128e+14	1.524229e+04	7.727887e+03	3.459086e+03	0	1.097702e-03
5.600000e+08	1.962172e+13	0.000000e+00	3.924051e-01	4.667548e+14	1.817668e+14	5.217189e+14	1.520006e+04	7.741308e+03	3.465094e+03	0	1.089266e-03
5.700000e+08	1.917285e+13	0.000000e+00	3.924051e-01	4.602456e+14	1.839447e+14	5.191435e+14	1.515843e+04	7.754541e+03	3.471017e+03	0	1.080896e-03
5.800000e+08	1.873423e+13	0.000000e+00	3.924051e-01	4.538799e+14	1.861117e+14	5.165863e+14	1.511737e+04	7.767589e+03	3.476857e+03	0	1.072589e-03
5.900000e+08	1.830552e+13	0.000000e+00	3.924051e-01	4.476532e+14	1.882676e+14	5.140473e+14	1.507687e+04	7.780455e+03	3.482616e+03	0	1.064344e-03
6.000000e+08	1.788643e+13	0.000000e+00	3.924051e-01	4.415612e+14	1.904121e+14	5.115262e+14	1.503693e+04	7.793141e+03	3.488295e+03	0	1.056159e-03
6.100000e+08	1.747665e+13	0.000000e+00	3.924051e-01	4.355999e+14	1.925451e+14	5.090230e+14	1.499753e+04	7.805651e+03	3.493894e+03	0	1.048031e-03
6.200000e+08	1.707589e+13	0.000000e+00	3.924051e-01	4.297653e+14	1.946663e+14	5.065374e+14	1.495866e+04	7.817987e+03	3.499416e+03	0	1.039958e-03
6.300000e+08	1.668389e+13	0.000000e+00	3.924051e-01	4.240537e+14	1.967755e+14	5.040695e+14	1.492031e+04	7.830151e+03	3.504861e+03	0	1.031939e-03
6.400000e+08	1.630039e+13	0.000000e+00	3.924051e-01	4.184614e+14	1.988725e+14	5.016189e+14	1.488247e+04	7.842146e+03	3.510230e+03	0	1.023971e-03
6.500000e+08	1.592512e+13	0.000000e+00	3.924051e-01	4.129849e+14	2.009571e+14	4.991855e+14	1.484512e+04	7.853974e+03	3.515524e+03	0	1.016052e-03
6.600000e+08	1.555785e+13	0.000000e+00	3.924051e-01	4.076209e+14	2.030291e+14	4.967693e+14	1.480825e+04	7.865638e+03	3.520745e+03	0	1.008180e-03
6.700000e+08	1.519835e+13	0.000000e+00	3.924051e-01	4.023663e+14	2.050884e+14	4.943701e+14	1.477187e+04	7.877141e+03	3.525894e+03	0	1.000354e-03
6.800000e+08	1.484638e+13	0.000000e+00	3.924051e-01	3.972177e+14	2.071348e+14	4.919877e+14	1.473595e+04	7.888484e+03	3.530971e+03	0	9.925713e-04
6.900000e+08	1.450174e+13	0.000000e+00	3.924051e-01	3.921724e+14	2.091681e+14	4.896221e+14	1.470049e+04	7.899669e+03	3.535978e+03	0	9.848306e-04
7.000000e+08	1.416421e+13	0.000000e+00	3.924051e-01	3.872273e+14	2.111880e+14	4.872730e+14	1.466547e+04	7.910700e+03	3.540915e+03	0	9.771299e-04
7.100000e+08	1.383360e+13	0.000000e+00	3.924051e-01	3.823797e+14	2.131946e+14	4.849404e+14	1.463090e+04	7.921577e+03	3.545784e+03	0	9.694674e-04
7.200000e+08	1.350970e+13	0.000000e+00	3.924051e-01	3.776270e+14	2.151876e+14	4.826241e+14	1.459676e+04	7.932303e+03	3.550585e+03	0	9.618413e-04
7.300000e+08	1.319235e+13	0.000000e+00	3.924051e-01	3.729665e+14	2.171669e+14	4.803240e+14	1.456304e+04	7.942881e+03	3.555320e+03	0	9.542500e-04
7.400000e+08	1.288134e+13	0.000000e+00	3.924051e-01	3.683959e+14	2.191323e+14	4.780399e+14	1.452973e+04	7.953312e+03	3.559989e+03	0	9.466916e-04
7.500000e+08	1.257652e+13	0.000000e+00	3.924051e-01	3.639125e+14	2.210837e+14	4.757717e+14	1.449683e+04	7.963598e+03	3.564593e+03	0	9.391645e-04
7.600000e+08	1.227771e+13	0.000000e+00	3.924051e-01	3.595143e+14	2.230210e+14	4.735194e+14	1.446433e+04	7.973741e+03	3.569133e+03	0	9.316669e-04
7.700000e+08	1.198476e+13	0.000000e+00	3.924051e-01	3.551989e+14	2.249440e+14	4.712827e+14	1.443222e+04	7.983743e+03	3.573610e+03	0	9.241971e-04
7.800000e+08	1.169751e+13	0.000000e+00	3.924051e-01	3.509641e+14	2.268527e+14	4.690616e+14	1.440049e+04	7.993606e+03	3.578025e+03	0	9.167536e-04
7.900000e+08	1.141580e+13	0.000000e+00	3.924051e-01	3.468079e+14	2.287469e+14	4.668559e+14	1.436915e+04	8.003331e+03	3.582378e+03	0	9.093344e-04
8.000000e+08	1.113950e+13	0.000000e+00	3.924051e-01	3.427283e+14	2.306265e+14	4.646655e+14	1.433817e+04	8.012921e+03	3.586671e+03	0	9.019381e-04
8.100000e+08	1.086846e+13	0.000000e+00	3.924051e-01	3.387233e+14	2.324914e+14	4.624902e+14	1.430755e+04	8.022377e+03	3.590903e+03	0	8.945629e-04
8.200000e+08	1.060255e+13	0.000000e+00	3.924051e-01	3.347910e+14	2.343415e+14	4.603301e+14	1.427729e+04	8.031701e+03	3.595077e+03	0	8.872070e-04
8.300000e+08	1.034164e+13	0.000000e+00	3.924051e-01	3.309297e+14	2.361767e+14	4.581848e+14	1.424738e+04	8.040894e+03	3.599192e+03	0	8.798689e-04
8.400000e+08	1.008560e+13	0.000000e+00	3.924051e-01	3.271375e+14	2.379970e+14	4.560544e+14	1.421781e+04	8.049959e+03	3.603249e+03	0	8.725467e-04
8.500000e+08	9.834302e+12	0.000000e+00	3.924051e-01	3.234128e+14	2.398022e+14	4.539387e+14	1.418858e+04	8.058896e+03	3.607250e+03	0	8.652388e-04
8.600000e+08	9.587637e+12	0.000000e+00	3.924051e-01	3.197538e+14	2.415922e+14	4.518376e+14	1.415968e+04	8.067708e+03	3.611194e+03	0	8.579435e-04
8.700000e+08	9.345487e+12	0.000000e+00	3.924051e-01	3.161591e+14	2.433671e+14	4.497509e+14	1.413111e+04	8.076396e+03	3.615083e+03	0	8.506589e-04
8.800000e+08	9.107741e+12	0.000000e+00	3.924051e-01	3.126270e+14	2.451266e+14	4.476786e+14	1.410286e+04	8.084962e+03	3.618917e+03	0	8.433834e-04
8.900000e+08	8.874292e+12	0.000000e+00	3.924051e-01	3.091561e+14	2.468708e+14	4.456205e+14	1.407492e+04	8.093406e+03	3.622697e+03	0	8.361151e-04
9.000000e+08	8.645036e+12	0.000000e+00	3.924051e-01	3.057449e+14	2.485996e+14	4.435765e+14	1.404729e+04	8.101731e+03	3.626423e+03	0	8.288522e-04
9.100000e+08	8.419871e+12	0.000000e+00	3.924051e-01	3.023920e+14	2.503130e+14	4.415466e+14	1.401996e+04	8.109939e+03	3.630097e+03	0	8.215928e-04
9.200000e+08	8.198702e+12	0.000000e+00	3.924051e-01	2.990961e+14	2.520108e+14	4.395305e+14	1.399294e+04	8.118030e+03	3.633718e+03	0	8.143351e-04
9.300000e+08	7.981432e+12	0.000000e+00	3.924051e-01	2.958558e+14	2.536931e+14	4.375283e+14	1.396620e+04	8.126005e+03	3.637288e+03	0	8.070772e-04
9.400000e+08	7.767970e+12	0.000000e+00	3.924051e-01	2.926698e+14	2.553597e+14	4.355397e+14	1.393976e+04	8.133867e+03	3.640808e+03	0	7.998171e-04
9.500000e+08	7.558228e+12	0.000000e+00	3.924051e-01	2.895369e+14	2.570107e+14	4.335647e+14	1.391360e+04	8.141617e+03	3.644276e+03	0	7.925527e-04
9.600000e+08	7.352119e+12	0.000000e+00	3.924051e-01	2.864559e+14	2.586460e+14	4.316032e+14	1.388771e+04	8.149256e+03	3.647696e+03	0	7.852820e-04
9.700000e+08	7.149559e+12	0.000000e+00	3.924051e-01	2.834257e+14	2.602656e+14	4.296550e+14	1.386210e+04	8.156785e+03	3.651066e+03	0	7.780029e-04
9.800000e+08	6.950468e+12	0.000000e+00	3.924051e-01	2.804450e+14	2.618695e+14	4.277201e+14	1.383677e+04	8.164205e+03	3.654387e+03	0	7.707132e-04
9.900000e+08	6.754766e+12	0.000000e+00	3.924051e-01	2.775128e+14	2.634575e+14	4.257983e+14	1.381169e+04	8.171519e+03	3.657661e+03	0	7.634107e-04
1.000000e+09	6.562378e+12	0.000000e+00	3.924051e-01	2.746281e+14	2.650298e+14	4.238896e+14	1.378688e+04	8.178727e+03	3.660887e+03	0	7.560930e-04
1.010000e+09	6.373228e+12	0.000000e+00	3.924051e-01	2.717897e+14	2.665863e+14	4.219938e+14	1.376233e+04	8.185831e+03	3.664067e+03	0	7.487577e-04
1.020000e+09	6.187245e+12	0.000000e+00	3.924051e-01	2.689967e+14	2.681270e+14	4.201109e+14	1.373803e+04	8.192831e+03	3.667200e+03	0	7.414023e-04
1.030000e+09	6.004359e+12	0.000000e+00	3.924051e-01	2.662480e+14	2.696518e+14	4.182407e+14	1.371397e+04	8.199729e+03	3.670288e+03	0	7.340242e-04
1.040000e+09	5.824502e+12	0.000000e+00	3.924051e-01	2.635429e+14	2.711608e+14	4.163832e+14	1.369017e+04	8.206526e+03	3.673331e+03	0	7.266207e-04
1.050000e+09	5.647608e+12	0.000000e+00	3.924051e-01	2.608802e+14	2.726539e+14	4.145382e+14	1.366660e+04	8.213224e+03	3.676329e+03	0	7.191889e-04
1.060000e+09	5.473612e+12	0.000000e+00	3.924051e-01	2.582591e+14	2.741313e+14	4.127056e+14	1.364327e+04	8.219823e+03	3.679282e+03	0	7.117260e-04
1.070000e+09	5.302452e+12	0.000000e+00	3.924051e-01	2.556787e+14	2.755928e+14	4.108854e+14	1.362017e+04	8.226325e+03	3.682193e+03	0	7.042287e-04
1.080000e+09	5.134068e+12	0.000000e+00	3.924051e-01	2.531382e+14	2.770384e+14	4.090774e+14	1.359731e+04	8.232731e+03	3.685060e+03	0	6.966939e-04
1.090000e+09	4.968400e+12	0.000000e+00	3.924051e-01	2.506368e+14	2.784682e+14	4.072816e+14	1.357467e+04	8.239041e+03	3.687885e+03	0	6.891181e-04
1.100000e+09	4.805391e+12	0.000000e+00	3.924051e-01	2.481735e+14	2.798822e+14	4.054979e+14	1.355225e+04	8.245258e+03	3.690667e+03	0	6.814977e-04
1.110000e+09	4.644985e+12	0.000000e+00	3.924051e-01	2.457478e+14	2.812804e+14	4.037261e+14	1.353006e+04	8.251382e+03	3.693408e+03	0	6.738288e-04
1.120000e+09	4.487127e+12	0.000000e+00	3.924051e-01	2.433587e+14	2.826628e+14	4.019662e+14	1.350808e+04	8.257413e+03	3.696108e+03	0	6.661074e-04
1.130000e+09	4.331765e+12	0.000000e+00	3.924051e-01	2.410056e+14	2.840295e+14	4.002180e+14	1.348631e+04	8.263354e+03	3.698767e+03	0	6.583292e-04
1.140000e+09	4.178848e+12	0.000000e+00	3.924051e-01	2.386876e+14	2.853805e+14	3.984816e+14	1.346475e+04	8.269206e+03	3.701387e+03	0	6.504896e-04
1.150000e+09	4.028325e+12	0.000000e+00	3.924051e-01	2.364042e+14	2.867157e+14	3.967567e+14	1.344340e+04	8.274968e+03	3.703966e+03	0	6.425836e-04
1.160000e+09	3.880147e+12	0.000000e+00	3.924051e-01	2.341546e+14	2.880353e+14	3.950433e+14	1.342225e+04	8.280643e+03	3.706506e+03	0	6.346060e-04
1.170000e+09	3.734267e+12	0.000000e+00	3.924051e-01	2.319382e+14	2.893392e+14	3.933414e+14	1.340130e+04	8.286231e+03	3.709007e+03	0	6.265512e-04
1.180000e+09	3.590638e+12	0.000000e+00	3.924051e-01	2.297542e+14	2.906275e+14	3.916508e+14	1.338055e+04	8.291734e+03	3.711470e+03	0	6.184131e-04
1.190000e+09	3.449215e+12	0.000000e+00	3.924051e-01	2.276021e+14	2.919002e+14	3.899714e+14	1.336000e+04	8.297152e+03	3.713895e+03	0	6.101851e-04
1.200000e+09	3.309955e+12	0.000000e+00	3.924051e-01	2.254813e+14	2.931574e+14	3.883031e+14	1.333964e+04	8.302486e+03	3.716283e+03	0	6.018601e-04
1.210000e+09	3.172815e+12	0.000000e+00	3.924051e-01	2.233911e+14	2.943991e+14	3.866460e+14	1.331946e+04	8.307737e+03	3.718634e+03	0	5.934303e-04
1.220000e+09	3.037752e+12	0.000000e+00	3.924051e-01	2.213309e+14	2.956253e+14	3.849998e+14	1.329948e+04	8.312906e+03	3.720947e+03	0	5.848874e-04
1.230000e+09	2.904726e+12	0.000000e+00	3.924051e-01	2.193002e+14	2.968361e+14	3.833645e+14	1.327967e+04	8.317995e+03	3.723225e+03	0	5.762221e-04
1.240000e+09	2.773698e+12	0.000000e+00	3.924051e-01	2.172984e+14	2.980316e+14	3.817400e+14	1.326005e+04	8.323003e+03	3.725467e+03	0	5.674242e-04
1.250000e+09	2.644628e+12	0.000000e+00	3.924051e-01	2.153250e+14	2.992117e+14	3.801262e+14	1.324061e+04	8.327932e+03	3.727673e+03	0	5.584827e-04
1.260000e+09	2.517479e+12	0.000000e+00	3.924051e-01	2.133794e+14	3.003766e+14	3.785231e+14	1.322134e+04	8.332783e+03	3.729845e+03	0	5.493850e-04
1.270000e+09	2.392215e+12	0.000000e+00	3.924051e-01	2.114611e+14	3.015263e+14	3.769305e+14	1.320225e+04	8.337557e+03	3.731981e+03	0	5.401174e-04
1.280000e+09	2.268798e+12	0.000000e+00	3.924051e-01	2.095696e+14	3.026608e+14	3.753485e+14	1.318332e+04	8.342254e+03	3.734084e+03	0	5.306645e-04
1.290000e+09	2.147194e+12	0.000000e+00	3.924051e-01	2.077043e+14	3.037802e+14	3.737768e+14	1.316457e+04	8.346876e+03	3.736153e+03	0	5.210090e-04
1.300000e+09	2.027369e+12	0.000000e+00	3.924051e-01	2.058650e+14	3.048846e+14	3.722154e+14	1.314598e+04	8.351423e+03	3.738188e+03	0	5.111312e-04
1.310000e+09	1.909290e+12	0.000000e+00	3.924051e-01	2.040509e+14	3.059740e+14	3.706642e+14	1.312756e+04	8.355896e+03	3.740190e+03	0	5.010089e-04
1.320000e+09	1.792923e+12	0.000000e+00	3.924051e-01	2.022617e+14	3.070485e+14	3.691233e+14	1.310930e+04	8.360296e+03	3.742160e+03	0	4.906163e-04
1.330000e+09	1.678237e+12	0.000000e+00	3.924051e-01	2.004970e+14	3.081081e+14	3.675924e+14	1.309120e+04	8.364624e+03	3.744097e+03	0	4.799241e-04
1.340000e+09	1.565201e+12	0.000000e+00	3.924051e-01	1.987562e+14	3.091530e+14	3.660715e+14	1.307325e+04	8.368880e+03	3.746002e+03	0	4.688978e-04
1.350000e+09	1.453785e+12	0.000000e+00	3.924051e-01	1.970390e+14	3.101832e+14	3.645605e+14	1.305546e+04	8.373065e+03	3.747875e+03	0	4.574969e-04
1.360000e+09	1.343958e+12	0.000000e+00	3.924051e-01	1.953449e+14	3.111986e+14	3.630593e+14	1.303783e+04	8.377181e+03	3.749717e+03	0	4.456734e-04
