#t		Qconv[W]	Ri[Rp]		R*[Rp]		Qc[W]		Qm[W]		Qr[W]		Tcmb[K]		Tl[K]		Tup[K]		RiFlag		Bs[T]
0.000000e+00	1.372324e+14	0.000000e+00	3.949046e-01	2.040838e+15	4.480218e+13	8.271014e+14	2.221508e+04	7.106102e+03	3.017797e+03	0	2.061590e-03
1.000000e+07	1.326056e+14	0.000000e+00	3.949046e-01	1.984093e+15	4.686506e+13	8.225186e+14	2.207158e+04	7.146154e+03	3.034806e+03	0	2.038156e-03
2.000000e+07	1.281980e+14	0.000000e+00	3.949046e-01	1.929979e+15	4.895353e+13	8.179702e+14	2.193202e+04	7.185306e+03	3.051433e+03	0	2.015320e-03
3.000000e+07	1.239954e+14	0.000000e+00	3.949046e-01	1.878327e+15	5.106650e+13	8.134557e+14	2.179623e+04	7.223595e+03	3.067693e+03	0	1.993052e-03
4.000000e+07	1.199844e+14	0.000000e+00	3.949046e-01	1.828980e+15	5.320293e+13	8.089749e+14	2.166403e+04	7.261057e+03	3.083602e+03	0	1.971326e-03
5.000000e+07	1.161532e+14	0.000000e+00	3.949046e-01	1.781793e+15	5.536177e+13	8.045275e+14	2.153527e+04	7.297723e+03	3.099174e+03	0	1.950116e-03
6.000000e+07	1.124904e+14	0.000000e+00	3.949046e-01	1.736634e+15	5.754205e+13	8.001133e+14	2.140979e+04	7.333626e+03	3.114421e+03	0	1.929398e-03
7.000000e+07	1.089858e+14	0.000000e+00	3.949046e-01	1.693381e+15	5.974281e+13	7.957320e+14	2.128746e+04	7.368793e+03	3.129355e+03	0	1.909150e-03
8.000000e+07	1.056300e+14	0.000000e+00	3.949046e-01	1.651920e+15	6.196309e+13	7.913832e+14	2.116814e+04	7.403253e+03	3.143990e+03	0	1.889351e-03
9.000000e+07	1.024142e+14	0.000000e+00	3.949046e-01	1.612148e+15	6.420199e+13	7.870668e+14	2.105172e+04	7.437031e+03	3.158334e+03	0	1.869980e-03
1.000000e+08	9.933037e+13	0.000000e+00	3.949046e-01	1.573967e+15	6.645864e+13	7.827825e+14	2.093807e+04	7.470150e+03	3.172399e+03	0	1.851019e-03
1.100000e+08	9.637093e+13	0.000000e+00	3.949046e-01	1.537289e+15	6.873216e+13	7.785299e+14	2.082709e+04	7.502635e+03	3.186195e+03	0	1.832450e-03
1.200000e+08	9.352894e+13	0.000000e+00	3.949046e-01	1.502029e+15	7.102173e+13	7.743088e+14	2.071867e+04	7.534506e+03	3.199730e+03	0	1.814257e-03
1.300000e+08	9.079793e+13	0.000000e+00	3.949046e-01	1.468111e+15	7.332652e+13	7.701190e+14	2.061271e+04	7.565784e+03	3.213013e+03	0	1.796424e-03
1.400000e+08	8.817190e+13	0.000000e+00	3.949046e-01	1.435463e+15	7.564575e+13	7.659602e+14	2.050912e+04	7.596488e+03	3.226052e+03	0	1.778936e-03
1.500000e+08	8.564522e+13	0.000000e+00	3.949046e-01	1.404018e+15	7.797864e+13	7.618322e+14	2.040782e+04	7.626636e+03	3.238855e+03	0	1.761778e-03
1.600000e+08	8.321269e+13	0.000000e+00	3.949046e-01	1.373713e+15	8.032444e+13	7.577346e+14	2.030871e+04	7.656246e+03	3.251430e+03	0	1.744938e-03
1.700000e+08	8.086943e+13	0.000000e+00	3.949046e-01	1.344490e+15	8.268241e+13	7.536673e+14	2.021172e+04	7.685334e+03	3.263783e+03	0	1.728403e-03
1.800000e+08	7.861088e+13	0.000000e+00	3.949046e-01	1.316294e+15	8.505183e+13	7.496300e+14	2.011678e+04	7.713916e+03	3.275921e+03	0	1.712160e-03
1.900000e+08	7.643280e+13	0.000000e+00	3.949046e-01	1.289074e+15	8.743199e+13	7.456224e+14	2.002382e+04	7.742007e+03	3.287851e+03	0	1.696199e-03
2.000000e+08	7.433119e+13	0.000000e+00	3.949046e-01	1.262784e+15	8.982222e+13	7.416443e+14	1.993275e+04	7.769621e+03	3.299578e+03	0	1.680508e-03
2.100000e+08	7.230232e+13	0.000000e+00	3.949046e-01	1.237377e+15	9.222185e+13	7.376954e+14	1.984354e+04	7.796770e+03	3.311107e+03	0	1.665077e-03
2.200000e+08	7.034269e+13	0.000000e+00	3.949046e-01	1.212812e+15	9.463021e+13	7.337756e+14	1.975610e+04	7.823469e+03	3.322446e+03	0	1.649896e-03
2.300000e+08	6.844902e+13	0.000000e+00	3.949046e-01	1.189049e+15	9.704669e+13	7.298845e+14	1.967038e+04	7.849729e+03	3.333598e+03	0	1.634955e-03
2.400000e+08	6.661821e+13	0.000000e+00	3.949046e-01	1.166052e+15	9.947065e+13	7.260219e+14	1.958633e+04	7.875562e+03	3.344569e+03	0	1.620247e-03
2.500000e+08	6.484736e+13	0.000000e+00	3.949046e-01	1.143785e+15	1.019015e+14	7.221877e+14	1.950389e+04	7.900980e+03	3.355363e+03	0	1.605761e-03
2.600000e+08	6.313374e+13	0.000000e+00	3.949046e-01	1.122216e+15	1.043385e+14	7.183814e+14	1.942301e+04	7.925992e+03	3.365985e+03	0	1.591490e-03
2.700000e+08	6.147478e+13	0.000000e+00	3.949046e-01	1.101314e+15	1.067813e+14	7.146031e+14	1.934365e+04	7.950609e+03	3.376439e+03	0	1.577427e-03
2.800000e+08	5.986805e+13	0.000000e+00	3.949046e-01	1.081049e+15	1.092292e+14	7.108523e+14	1.926576e+04	7.974842e+03	3.386730e+03	0	1.563562e-03
2.900000e+08	5.831126e+13	0.000000e+00	3.949046e-01	1.061394e+15	1.116816e+14	7.071289e+14	1.918928e+04	7.998698e+03	3.396861e+03	0	1.549890e-03
3.000000e+08	5.680226e+13	0.000000e+00	3.949046e-01	1.042324e+15	1.141381e+14	7.034326e+14	1.911419e+04	8.022188e+03	3.406837e+03	0	1.536404e-03
3.100000e+08	5.533900e+13	0.000000e+00	3.949046e-01	1.023812e+15	1.165980e+14	6.997633e+14	1.904044e+04	8.045320e+03	3.416661e+03	0	1.523096e-03
3.200000e+08	5.391955e+13	0.000000e+00	3.949046e-01	1.005837e+15	1.190608e+14	6.961206e+14	1.896798e+04	8.068102e+03	3.426335e+03	0	1.509961e-03
3.300000e+08	5.254209e+13	0.000000e+00	3.949046e-01	9.883763e+14	1.215261e+14	6.925045e+14	1.889679e+04	8.090542e+03	3.435865e+03	0	1.496991e-03
3.400000e+08	5.120489e+13	0.000000e+00	3.949046e-01	9.714087e+14	1.239933e+14	6.889146e+14	1.882683e+04	8.112647e+03	3.445253e+03	0	1.484183e-03
3.500000e+08	4.990632e+13	0.000000e+00	3.949046e-01	9.549147e+14	1.264619e+14	6.853507e+14	1.875806e+04	8.134426e+03	3.454502e+03	0	1.471529e-03
3.600000e+08	4.864482e+13	0.000000e+00	3.949046e-01	9.388755e+14	1.289315e+14	6.818127e+14	1.869045e+04	8.155886e+03	3.463615e+03	0	1.459024e-03
3.700000e+08	4.741892e+13	0.000000e+00	3.949046e-01	9.232735e+14	1.314015e+14	6.783003e+14	1.862397e+04	8.177032e+03	3.472596e+03	0	1.446663e-03
3.800000e+08	4.622722e+13	0.000000e+00	3.949046e-01	9.080917e+14	1.338715e+14	6.748134e+14	1.855859e+04	8.197872e+03	3.481446e+03	0	1.434441e-03
3.900000e+08	4.506840e+13	0.000000e+00	3.949046e-01	8.933141e+14	1.363412e+14	6.713516e+14	1.849427e+04	8.218411e+03	3.490169e+03	0	1.422354e-03
4.000000e+08	4.394120e+13	0.000000e+00	3.949046e-01	8.789255e+14	1.388099e+14	6.679148e+14	1.843099e+04	8.238657e+03	3.498766e+03	0	1.410395e-03
4.100000e+08	4.284442e+13	0.000000e+00	3.949046e-01	8.649113e+14	1.412773e+14	6.645029e+14	1.836873e+04	8.258615e+03	3.507242e+03	0	1.398562e-03
4.200000e+08	4.177692e+13	0.000000e+00	3.949046e-01	8.512577e+14	1.437429e+14	6.611155e+14	1.830745e+04	8.278290e+03	3.515598e+03	0	1.386848e-03
4.300000e+08	4.073760e+13	0.000000e+00	3.949046e-01	8.379517e+14	1.462064e+14	6.577525e+14	1.824714e+04	8.297688e+03	3.523836e+03	0	1.375251e-03
4.400000e+08	3.972545e+13	0.000000e+00	3.949046e-01	8.249806e+14	1.486673e+14	6.544137e+14	1.818776e+04	8.316815e+03	3.531958e+03	0	1.363766e-03
4.500000e+08	3.873948e+13	0.000000e+00	3.949046e-01	8.123326e+14	1.511252e+14	6.510989e+14	1.812929e+04	8.335676e+03	3.539968e+03	0	1.352388e-03
4.600000e+08	3.777874e+13	0.000000e+00	3.949046e-01	7.999963e+14	1.535798e+14	6.478079e+14	1.807172e+04	8.354275e+03	3.547867e+03	0	1.341115e-03
4.700000e+08	3.684234e+13	0.000000e+00	3.949046e-01	7.879607e+14	1.560306e+14	6.445405e+14	1.801501e+04	8.372617e+03	3.555656e+03	0	1.329942e-03
4.800000e+08	3.592942e+13	0.000000e+00	3.949046e-01	7.762156e+14	1.584773e+14	6.412965e+14	1.795915e+04	8.390707e+03	3.563339e+03	0	1.318865e-03
4.900000e+08	3.503917e+13	0.000000e+00	3.949046e-01	7.647510e+14	1.609195e+14	6.380757e+14	1.790413e+04	8.408550e+03	3.570916e+03	0	1.307881e-03
5.000000e+08	3.417082e+13	0.000000e+00	3.949046e-01	7.535574e+14	1.633568e+14	6.348780e+14	1.784990e+04	8.426150e+03	3.578390e+03	0	1.296986e-03
5.100000e+08	3.332361e+13	0.000000e+00	3.949046e-01	7.426258e+14	1.657889e+14	6.317031e+14	1.779647e+04	8.443511e+03	3.585763e+03	0	1.286177e-03
5.200000e+08	3.249682e+13	0.000000e+00	3.949046e-01	7.319475e+14	1.682155e+14	6.285508e+14	1.774381e+04	8.460637e+03	3.593036e+03	0	1.275451e-03
5.300000e+08	3.168979e+13	0.000000e+00	3.949046e-01	7.215142e+14	1.706362e+14	6.254211e+14	1.769190e+04	8.477533e+03	3.600212e+03	0	1.264804e-03
5.400000e+08	3.090186e+13	0.000000e+00	3.949046e-01	7.113181e+14	1.730507e+14	6.223136e+14	1.764073e+04	8.494202e+03	3.607290e+03	0	1.254233e-03
5.500000e+08	3.013240e+13	0.000000e+00	3.949046e-01	7.013514e+14	1.754587e+14	6.192283e+14	1.759028e+04	8.510647e+03	3.614274e+03	0	1.243736e-03
5.600000e+08	2.938082e+13	0.000000e+00	3.949046e-01	6.916069e+14	1.778598e+14	6.161648e+14	1.754053e+04	8.526874e+03	3.621165e+03	0	1.233308e-03
5.700000e+08	2.864654e+13	0.000000e+00	3.949046e-01	6.820776e+14	1.802538e+14	6.131232e+14	1.749146e+04	8.542884e+03	3.627965e+03	0	1.222947e-03
5.800000e+08	2.792901e+13	0.000000e+00	3.949046e-01	6.727568e+14	1.826403e+14	6.101031e+14	1.744307e+04	8.558682e+03	3.634674e+03	0	1.212650e-03
5.900000e+08	2.722771e+13	0.000000e+00	3.949046e-01	6.636381e+14	1.850191e+14	6.071044e+14	1.739534e+04	8.574272e+03	3.641294e+03	0	1.202414e-03
6.000000e+08	2.654213e+13	0.000000e+00	3.949046e-01	6.547153e+14	1.873898e+14	6.041270e+14	1.734825e+04	8.589655e+03	3.647827e+03	0	1.192236e-03
6.100000e+08	2.587178e+13	0.000000e+00	3.949046e-01	6.459825e+14	1.897522e+14	6.011706e+14	1.730179e+04	8.604836e+03	3.654274e+03	0	1.182113e-03
6.200000e+08	2.521620e+13	0.000000e+00	3.949046e-01	6.374340e+14	1.921061e+14	5.982351e+14	1.725595e+04	8.619817e+03	3.660636e+03	0	1.172043e-03
6.300000e+08	2.457495e+13	0.000000e+00	3.949046e-01	6.290644e+14	1.944511e+14	5.953203e+14	1.721071e+04	8.634603e+03	3.666915e+03	0	1.162022e-03
6.400000e+08	2.394758e+13	0.000000e+00	3.949046e-01	6.208683e+14	1.967870e+14	5.924261e+14	1.716606e+04	8.649195e+03	3.673112e+03	0	1.152048e-03
6.500000e+08	2.333370e+13	0.000000e+00	3.949046e-01	6.128407e+14	1.991136e+14	5.895523e+14	1.712199e+04	8.663596e+03	3.679228e+03	0	1.142119e-03
6.600000e+08	2.273289e+13	0.000000e+00	3.949046e-01	6.049767e+14	2.014305e+14	5.866987e+14	1.707849e+04	8.677810e+03	3.685264e+03	0	1.132231e-03
6.700000e+08	2.214479e+13	0.000000e+00	3.949046e-01	5.972717e+14	2.037376e+14	5.838651e+14	1.703555e+04	8.691838e+03	3.691222e+03	0	1.122382e-03
6.800000e+08	2.156901e+13	0.000000e+00	3.949046e-01	5.897212e+14	2.060347e+14	5.810515e+14	1.699314e+04	8.705685e+03	3.697102e+03	0	1.112569e-03
6.900000e+08	2.100522e+13	0.000000e+00	3.949046e-01	5.823208e+14	2.083214e+14	5.782576e+14	1.695128e+04	8.719352e+03	3.702906e+03	0	1.102789e-03
7.000000e+08	2.045306e+13	0.000000e+00	3.949046e-01	5.750663e+14	2.105976e+14	5.754833e+14	1.690993e+04	8.732842e+03	3.708635e+03	0	1.093040e-03
7.100000e+08	1.991220e+13	0.000000e+00	3.949046e-01	5.679538e+14	2.128631e+14	5.727284e+14	1.686910e+04	8.746157e+03	3.714290e+03	0	1.083320e-03
7.200000e+08	1.938234e+13	0.000000e+00	3.949046e-01	5.609792e+14	2.151176e+14	5.699927e+14	1.682877e+04	8.759300e+03	3.719871e+03	0	1.073624e-03
7.300000e+08	1.886317e+13	0.000000e+00	3.949046e-01	5.541390e+14	2.173610e+14	5.672762e+14	1.678893e+04	8.772273e+03	3.725381e+03	0	1.063951e-03
7.400000e+08	1.835438e+13	0.000000e+00	3.949046e-01	5.474294e+14	2.195930e+14	5.645787e+14	1.674958e+04	8.785079e+03	3.730819e+03	0	1.054298e-03
7.500000e+08	1.785571e+13	0.000000e+00	3.949046e-01	5.408470e+14	2.218135e+14	5.618999e+14	1.671070e+04	8.797720e+03	3.736188e+03	0	1.044662e-03
7.600000e+08	1.736687e+13	0.000000e+00	3.949046e-01	5.343885e+14	2.240222e+14	5.592398e+14	1.667228e+04	8.810198e+03	3.741487e+03	0	1.035041e-03
7.700000e+08	1.688761e+13	0.000000e+00	3.949046e-01	5.280505e+14	2.262191e+14	5.565983e+14	1.663433e+04	8.822516e+03	3.746718e+03	0	1.025430e-03
7.800000e+08	1.641766e+13	0.000000e+00	3.949046e-01	5.218300e+14	2.284039e+14	5.539751e+14	1.659682e+04	8.834675e+03	3.751881e+03	0	1.015829e-03
7.900000e+08	1.595678e+13	0.000000e+00	3.949046e-01	5.157239e+14	2.305764e+14	5.513701e+14	1.655975e+04	8.846677e+03	3.756978e+03	0	1.006233e-03
8.000000e+08	1.550474e+13	0.000000e+00	3.949046e-01	5.097292e+14	2.327365e+14	5.487831e+14	1.652311e+04	8.858525e+03	3.762010e+03	0	9.966400e-04
8.100000e+08	1.506130e+13	0.000000e+00	3.949046e-01	5.038432e+14	2.348841e+14	5.462141e+14	1.648690e+04	8.870221e+03	3.766977e+03	0	9.870465e-04
8.200000e+08	1.462624e+13	0.000000e+00	3.949046e-01	4.980632e+14	2.370189e+14	5.436629e+14	1.645110e+04	8.881766e+03	3.771880e+03	0	9.774496e-04
8.300000e+08	1.419935e+13	0.000000e+00	3.949046e-01	4.923864e+14	2.391408e+14	5.411293e+14	1.641572e+04	8.893163e+03	3.776720e+03	0	9.678461e-04
8.400000e+08	1.378042e+13	0.000000e+00	3.949046e-01	4.868103e+14	2.412498e+14	5.386132e+14	1.638073e+04	8.904413e+03	3.781498e+03	0	9.582327e-04
8.500000e+08	1.336925e+13	0.000000e+00	3.949046e-01	4.813325e+14	2.433455e+14	5.361145e+14	1.634614e+04	8.915519e+03	3.786214e+03	0	9.486060e-04
8.600000e+08	1.296565e+13	0.000000e+00	3.949046e-01	4.759505e+14	2.454281e+14	5.336330e+14	1.631193e+04	8.926482e+03	3.790870e+03	0	9.389625e-04
8.700000e+08	1.256942e+13	0.000000e+00	3.949046e-01	4.706620e+14	2.474971e+14	5.311686e+14	1.627811e+04	8.937303e+03	3.795465e+03	0	9.292986e-04
8.800000e+08	1.218040e+13	0.000000e+00	3.949046e-01	4.654648e+14	2.495526e+14	5.287211e+14	1.624466e+04	8.947986e+03	3.800002e+03	0	9.196106e-04
8.900000e+08	1.179839e+13	0.000000e+00	3.949046e-01	4.603567e+14	2.515945e+14	5.262904e+14	1.621158e+04	8.958531e+03	3.804480e+03	0	9.098946e-04
9.000000e+08	1.142323e+13	0.000000e+00	3.949046e-01	4.553356e+14	2.536226e+14	5.238765e+14	1.617886e+04	8.968940e+03	3.808901e+03	0	9.001465e-04
9.100000e+08	1.105476e+13	0.000000e+00	3.949046e-01	4.503995e+14	2.556368e+14	5.214790e+14	1.614650e+04	8.979214e+03	3.813264e+03	0	8.903621e-04
9.200000e+08	1.069282e+13	0.000000e+00	3.949046e-01	4.455463e+14	2.576371e+14	5.190980e+14	1.611449e+04	8.989357e+03	3.817571e+03	0	8.805369e-04
9.300000e+08	1.033725e+13	0.000000e+00	3.949046e-01	4.407742e+14	2.596232e+14	5.167333e+14	1.608282e+04	8.999368e+03	3.821823e+03	0	8.706664e-04
9.400000e+08	9.987894e+12	0.000000e+00	3.949046e-01	4.360812e+14	2.615952e+14	5.143848e+14	1.605148e+04	9.009250e+03	3.826019e+03	0	8.607456e-04
9.500000e+08	9.644618e+12	0.000000e+00	3.949046e-01	4.314657e+14	2.635529e+14	5.120522e+14	1.602048e+04	9.019004e+03	3.830162e+03	0	8.507694e-04
9.600000e+08	9.307276e+12	0.000000e+00	3.949046e-01	4.269257e+14	2.654962e+14	5.097356e+14	1.598981e+04	9.028632e+03	3.834250e+03	0	8.407322e-04
9.700000e+08	8.975731e+12	0.000000e+00	3.949046e-01	4.224597e+14	2.674251e+14	5.074348e+14	1.595946e+04	9.038135e+03	3.838286e+03	0	8.306284e-04
9.800000e+08	8.649851e+12	0.000000e+00	3.949046e-01	4.180660e+14	2.693395e+14	5.051496e+14	1.592942e+04	9.047515e+03	3.842270e+03	0	8.204518e-04
9.900000e+08	8.329507e+12	0.000000e+00	3.949046e-01	4.137429e+14	2.712392e+14	5.028799e+14	1.589970e+04	9.056773e+03	3.846201e+03	0	8.101957e-04
1.000000e+09	8.014573e+12	0.000000e+00	3.949046e-01	4.094890e+14	2.731243e+14	5.006257e+14	1.587028e+04	9.065910e+03	3.850082e+03	0	7.998532e-04
1.010000e+09	7.704928e+12	0.000000e+00	3.949046e-01	4.053026e+14	2.749947e+14	4.983867e+14	1.584116e+04	9.074929e+03	3.853912e+03	0	7.894168e-04
1.020000e+09	7.400455e+12	0.000000e+00	3.949046e-01	4.011824e+14	2.768503e+14	4.961629e+14	1.581234e+04	9.083830e+03	3.857692e+03	0	7.788784e-04
1.030000e+09	7.101039e+12	0.000000e+00	3.949046e-01	3.971269e+14	2.786910e+14	4.939542e+14	1.578382e+04	9.092614e+03	3.861422e+03	0	7.682292e-04
1.040000e+09	6.806568e+12	0.000000e+00	3.949046e-01	3.931347e+14	2.805168e+14	4.917604e+14	1.575558e+04	9.101284e+03	3.865104e+03	0	7.574598e-04
1.050000e+09	6.516934e+12	0.000000e+00	3.949046e-01	3.892045e+14	2.823276e+14	4.895814e+14	1.572762e+04	9.109840e+03	3.868738e+03	0	7.465598e-04
1.060000e+09	6.232033e+12	0.000000e+00	3.949046e-01	3.853350e+14	2.841234e+14	4.874170e+14	1.569994e+04	9.118284e+03	3.872324e+03	0	7.355182e-04
1.070000e+09	5.951762e+12	0.000000e+00	3.949046e-01	3.815248e+14	2.859041e+14	4.852673e+14	1.567253e+04	9.126617e+03	3.875862e+03	0	7.243226e-04
1.080000e+09	5.676022e+12	0.000000e+00	3.949046e-01	3.777728e+14	2.876698e+14	4.831321e+14	1.564540e+04	9.134840e+03	3.879355e+03	0	7.129595e-04
1.090000e+09	5.404716e+12	0.000000e+00	3.949046e-01	3.740778e+14	2.894203e+14	4.810112e+14	1.561853e+04	9.142955e+03	3.882801e+03	0	7.014141e-04
1.100000e+09	5.137751e+12	0.000000e+00	3.949046e-01	3.704385e+14	2.911557e+14	4.789045e+14	1.559192e+04	9.150962e+03	3.886201e+03	0	6.896698e-04
1.110000e+09	4.875035e+12	0.000000e+00	3.949046e-01	3.668539e+14	2.928758e+14	4.768120e+14	1.556557e+04	9.158863e+03	3.889557e+03	0	6.777082e-04
1.120000e+09	4.616480e+12	0.000000e+00	3.949046e-01	3.633227e+14	2.945808e+14	4.747334e+14	1.553948e+04	9.166660e+03	3.892868e+03	0	6.655088e-04
1.130000e+09	4.361998e+12	0.000000e+00	3.949046e-01	3.598440e+14	2.962704e+14	4.726688e+14	1.551364e+04	9.174352e+03	3.896135e+03	0	6.530483e-04
1.140000e+09	4.111506e+12	0.000000e+00	3.949046e-01	3.564167e+14	2.979448e+14	4.706180e+14	1.548804e+04	9.181943e+03	3.899358e+03	0	6.403005e-04
1.150000e+09	3.864923e+12	0.000000e+00	3.949046e-01	3.530397e+14	2.996039e+14	4.685809e+14	1.546268e+04	9.189431e+03	3.902538e+03	0	6.272352e-04
1.160000e+09	3.622167e+12	0.000000e+00	3.949046e-01	3.497121e+14	3.012477e+14	4.665574e+14	1.543757e+04	9.196820e+03	3.905676e+03	0	6.138181e-04
1.170000e+09	3.383161e+12	0.000000e+00	3.949046e-01	3.464329e+14	3.028762e+14	4.645473e+14	1.541269e+04	9.204109e+03	3.908772e+03	0	6.000090e-04
1.180000e+09	3.147831e+12	0.000000e+00	3.949046e-01	3.432011e+14	3.044893e+14	4.625507e+14	1.538804e+04	9.211301e+03	3.911826e+03	0	5.857613e-04
1.190000e+09	2.916102e+12	0.000000e+00	3.949046e-01	3.400158e+14	3.060872e+14	4.605673e+14	1.536362e+04	9.218395e+03	3.914839e+03	0	5.710197e-04
1.200000e+09	2.687902e+12	0.000000e+00	3.949046e-01	3.368761e+14	3.076697e+14	4.585970e+14	1.533943e+04	9.225394e+03	3.917811e+03	0	5.557182e-04
1.210000e+09	2.463161e+12	0.000000e+00	3.949046e-01	3.337812e+14	3.092368e+14	4.566399e+14	1.531546e+04	9.232297e+03	3.920742e+03	0	5.397771e-04
1.220000e+09	2.241812e+12	0.000000e+00	3.949046e-01	3.307301e+14	3.107886e+14	4.546957e+14	1.529171e+04	9.239107e+03	3.923634e+03	0	5.230982e-04
1.230000e+09	2.023787e+12	0.000000e+00	3.949046e-01	3.277220e+14	3.123251e+14	4.527643e+14	1.526818e+04	9.245824e+03	3.926487e+03	0	5.055589e-04
1.240000e+09	1.809022e+12	0.000000e+00	3.949046e-01	3.247562e+14	3.138462e+14	4.508458e+14	1.524486e+04	9.252449e+03	3.929301e+03	0	4.870028e-04
1.250000e+09	1.597455e+12	0.000000e+00	3.949046e-01	3.218318e+14	3.153521e+14	4.489399e+14	1.522175e+04	9.258984e+03	3.932076e+03	0	4.672253e-04
1.260000e+09	1.389022e+12	0.000000e+00	3.949046e-01	3.189480e+14	3.168427e+14	4.470465e+14	1.519885e+04	9.265429e+03	3.934812e+03	0	4.459504e-04
1.270000e+09	1.183665e+12	0.000000e+00	3.949046e-01	3.161041e+14	3.183179e+14	4.451657e+14	1.517615e+04	9.271784e+03	3.937512e+03	0	4.227917e-04
1.280000e+09	9.813238e+11	0.000000e+00	3.949046e-01	3.132994e+14	3.197779e+14	4.432972e+14	1.515366e+04	9.278052e+03	3.940174e+03	0	3.971802e-04
1.290000e+09	7.819421e+11	0.000000e+00	3.949046e-01	3.105331e+14	3.212227e+14	4.414410e+14	1.513136e+04	9.284233e+03	3.942798e+03	0	3.682209e-04
1.300000e+09	5.854640e+11	0.000000e+00	3.949046e-01	3.078045e+14	3.226522e+14	4.395969e+14	1.510926e+04	9.290328e+03	3.945387e+03	0	3.343620e-04
1.310000e+09	3.918349e+11	0.000000e+00	3.949046e-01	3.051130e+14	3.240665e+14	4.377650e+14	1.508735e+04	9.296338e+03	3.947939e+03	0	2.924722e-04
1.320000e+09	2.010017e+11	0.000000e+00	3.949046e-01	3.024579e+14	3.254656e+14	4.359450e+14	1.506564e+04	9.302264e+03	3.950456e+03	0	2.341262e-04
1.330000e+09	1.291238e+10	0.000000e+00	3.949046e-01	2.998384e+14	3.268496e+14	4.341370e+14	1.504411e+04	9.308107e+03	3.952937e+03	0	9.376749e-05
1.340000e+09	-1.724836e+11	0.000000e+00	3.949046e-01	2.972540e+14	3.282185e+14	4.323408e+14	1.502277e+04	9.313867e+03	3.955383e+03	0	nan
