#t		Qconv[W]	Ri[Rp]		R*[Rp]		Qc[W]		Qm[W]		Qr[W]		Tcmb[K]		Tl[K]		Tup[K]		RiFlag		Bs[T]
0.000000e+00	6.111916e+11	0.000000e+00	8.160919e-01	1.850777e+13	1.739103e+14	1.651143e+13	4.667743e+03	2.375172e+03	2.190896e+03	0	2.627080e-04
1.000000e+07	5.954596e+11	0.000000e+00	8.160919e-01	1.806776e+13	1.496751e+14	1.641995e+13	4.662662e+03	2.313362e+03	2.133881e+03	0	2.604343e-04
2.000000e+07	5.810036e+11	0.000000e+00	8.160919e-01	1.766334e+13	1.311759e+14	1.632915e+13	4.657701e+03	2.261670e+03	2.086200e+03	0	2.583095e-04
3.000000e+07	5.677703e+11	0.000000e+00	8.160919e-01	1.729304e+13	1.166883e+14	1.623902e+13	4.652851e+03	2.217758e+03	2.045695e+03	0	2.563333e-04
4.000000e+07	5.556539e+11	0.000000e+00	8.160919e-01	1.695389e+13	1.050972e+14	1.614957e+13	4.648102e+03	2.179971e+03	2.010839e+03	0	2.544967e-04
5.000000e+07	5.445363e+11	0.000000e+00	8.160919e-01	1.664261e+13	9.565430e+13	1.606079e+13	4.643447e+03	2.147100e+03	1.980518e+03	0	2.527880e-04
6.000000e+07	5.343043e+11	0.000000e+00	8.160919e-01	1.635603e+13	8.784171e+13	1.597267e+13	4.638876e+03	2.118240e+03	1.953898e+03	0	2.511946e-04
7.000000e+07	5.248550e+11	0.000000e+00	8.160919e-01	1.609128e+13	8.129106e+13	1.588521e+13	4.634384e+03	2.092701e+03	1.930340e+03	0	2.497050e-04
8.000000e+07	5.160977e+11	0.000000e+00	8.160919e-01	1.584584e+13	7.573420e+13	1.579839e+13	4.629965e+03	2.069943e+03	1.909348e+03	0	2.483084e-04
9.000000e+07	5.079531e+11	0.000000e+00	8.160919e-01	1.561750e+13	7.097188e+13	1.571222e+13	4.625613e+03	2.049542e+03	1.890530e+03	0	2.469953e-04
1.000000e+08	5.003527e+11	0.000000e+00	8.160919e-01	1.540435e+13	6.685334e+13	1.562669e+13	4.621323e+03	2.031156e+03	1.873570e+03	0	2.457572e-04
1.100000e+08	4.932369e+11	0.000000e+00	8.160919e-01	1.520472e+13	6.326265e+13	1.554180e+13	4.617092e+03	2.014506e+03	1.858211e+03	0	2.445866e-04
1.200000e+08	4.865544e+11	0.000000e+00	8.160919e-01	1.501717e+13	6.010936e+13	1.545753e+13	4.612916e+03	1.999363e+03	1.844244e+03	0	2.434770e-04
1.300000e+08	4.802602e+11	0.000000e+00	8.160919e-01	1.484047e+13	5.732202e+13	1.537389e+13	4.608791e+03	1.985539e+03	1.831492e+03	0	2.424225e-04
1.400000e+08	4.743156e+11	0.000000e+00	8.160919e-01	1.467352e+13	5.484348e+13	1.529087e+13	4.604715e+03	1.972874e+03	1.819810e+03	0	2.414181e-04
1.500000e+08	4.686863e+11	0.000000e+00	8.160919e-01	1.451538e+13	5.262756e+13	1.520846e+13	4.600684e+03	1.961234e+03	1.809073e+03	0	2.404593e-04
1.600000e+08	4.633428e+11	0.000000e+00	8.160919e-01	1.436521e+13	5.063660e+13	1.512666e+13	4.596696e+03	1.950504e+03	1.799175e+03	0	2.395420e-04
1.700000e+08	4.582586e+11	0.000000e+00	8.160919e-01	1.422228e+13	4.883959e+13	1.504547e+13	4.592750e+03	1.940586e+03	1.790026e+03	0	2.386626e-04
1.800000e+08	4.534108e+11	0.000000e+00	8.160919e-01	1.408595e+13	4.721079e+13	1.496487e+13	4.588843e+03	1.931395e+03	1.781549e+03	0	2.378180e-04
1.900000e+08	4.487787e+11	0.000000e+00	8.160919e-01	1.395565e+13	4.572867e+13	1.488487e+13	4.584974e+03	1.922859e+03	1.773675e+03	0	2.370054e-04
2.000000e+08	4.443443e+11	0.000000e+00	8.160919e-01	1.383086e+13	4.437514e+13	1.480545e+13	4.581140e+03	1.914913e+03	1.766345e+03	0	2.362222e-04
2.100000e+08	4.400913e+11	0.000000e+00	8.160919e-01	1.371114e+13	4.313484e+13	1.472662e+13	4.577340e+03	1.907501e+03	1.759509e+03	0	2.354661e-04
2.200000e+08	4.360052e+11	0.000000e+00	8.160919e-01	1.359608e+13	4.199468e+13	1.464837e+13	4.573573e+03	1.900574e+03	1.753119e+03	0	2.347351e-04
2.300000e+08	4.320730e+11	0.000000e+00	8.160919e-01	1.348532e+13	4.094346e+13	1.457069e+13	4.569838e+03	1.894088e+03	1.747136e+03	0	2.340273e-04
2.400000e+08	4.282832e+11	0.000000e+00	8.160919e-01	1.337854e+13	3.997151e+13	1.449358e+13	4.566133e+03	1.888004e+03	1.741524e+03	0	2.333411e-04
2.500000e+08	4.246252e+11	0.000000e+00	8.160919e-01	1.327544e+13	3.907047e+13	1.441704e+13	4.562457e+03	1.882288e+03	1.736252e+03	0	2.326748e-04
2.600000e+08	4.210896e+11	0.000000e+00	8.160919e-01	1.317576e+13	3.823308e+13	1.434106e+13	4.558810e+03	1.876910e+03	1.731291e+03	0	2.320272e-04
2.700000e+08	4.176677e+11	0.000000e+00	8.160919e-01	1.307926e+13	3.745298e+13	1.426563e+13	4.555190e+03	1.871840e+03	1.726615e+03	0	2.313970e-04
2.800000e+08	4.143517e+11	0.000000e+00	8.160919e-01	1.298572e+13	3.672460e+13	1.419075e+13	4.551597e+03	1.867056e+03	1.722202e+03	0	2.307830e-04
2.900000e+08	4.111347e+11	0.000000e+00	8.160919e-01	1.289494e+13	3.604305e+13	1.411642e+13	4.548029e+03	1.862534e+03	1.718030e+03	0	2.301842e-04
3.000000e+08	4.080100e+11	0.000000e+00	8.160919e-01	1.280675e+13	3.540400e+13	1.404263e+13	4.544486e+03	1.858254e+03	1.714083e+03	0	2.295996e-04
3.100000e+08	4.049720e+11	0.000000e+00	8.160919e-01	1.272097e+13	3.480362e+13	1.396938e+13	4.540967e+03	1.854198e+03	1.710341e+03	0	2.290283e-04
3.200000e+08	4.020151e+11	0.000000e+00	8.160919e-01	1.263747e+13	3.423850e+13	1.389666e+13	4.537472e+03	1.850350e+03	1.706791e+03	0	2.284695e-04
3.300000e+08	3.991344e+11	0.000000e+00	8.160919e-01	1.255609e+13	3.370560e+13	1.382447e+13	4.533999e+03	1.846693e+03	1.703418e+03	0	2.279225e-04
3.400000e+08	3.963255e+11	0.000000e+00	8.160919e-01	1.247673e+13	3.320221e+13	1.375281e+13	4.530549e+03	1.843215e+03	1.700210e+03	0	2.273866e-04
3.500000e+08	3.935841e+11	0.000000e+00	8.160919e-01	1.239925e+13	3.272590e+13	1.368166e+13	4.527121e+03	1.839902e+03	1.697154e+03	0	2.268611e-04
3.600000e+08	3.909065e+11	0.000000e+00	8.160919e-01	1.232356e+13	3.227447e+13	1.361103e+13	4.523714e+03	1.836744e+03	1.694241e+03	0	2.263454e-04
3.700000e+08	3.882891e+11	0.000000e+00	8.160919e-01	1.224954e+13	3.184596e+13	1.354092e+13	4.520328e+03	1.833729e+03	1.691460e+03	0	2.258391e-04
3.800000e+08	3.857286e+11	0.000000e+00	8.160919e-01	1.217713e+13	3.143859e+13	1.347131e+13	4.516962e+03	1.830848e+03	1.688803e+03	0	2.253416e-04
3.900000e+08	3.832221e+11	0.000000e+00	8.160919e-01	1.210622e+13	3.105075e+13	1.340220e+13	4.513616e+03	1.828093e+03	1.686261e+03	0	2.248525e-04
4.000000e+08	3.807667e+11	0.000000e+00	8.160919e-01	1.203675e+13	3.068098e+13	1.333359e+13	4.510289e+03	1.825454e+03	1.683827e+03	0	2.243712e-04
4.100000e+08	3.783599e+11	0.000000e+00	8.160919e-01	1.196863e+13	3.032796e+13	1.326548e+13	4.506982e+03	1.822924e+03	1.681494e+03	0	2.238975e-04
4.200000e+08	3.759992e+11	0.000000e+00	8.160919e-01	1.190181e+13	2.999048e+13	1.319785e+13	4.503693e+03	1.820497e+03	1.679255e+03	0	2.234308e-04
4.300000e+08	3.736825e+11	0.000000e+00	8.160919e-01	1.183621e+13	2.966744e+13	1.313072e+13	4.500422e+03	1.818166e+03	1.677104e+03	0	2.229710e-04
4.400000e+08	3.714077e+11	0.000000e+00	8.160919e-01	1.177179e+13	2.935785e+13	1.306407e+13	4.497170e+03	1.815924e+03	1.675037e+03	0	2.225176e-04
4.500000e+08	3.691728e+11	0.000000e+00	8.160919e-01	1.170849e+13	2.906077e+13	1.299789e+13	4.493935e+03	1.813767e+03	1.673047e+03	0	2.220704e-04
4.600000e+08	3.669760e+11	0.000000e+00	8.160919e-01	1.164625e+13	2.877536e+13	1.293219e+13	4.490717e+03	1.811689e+03	1.671130e+03	0	2.216291e-04
4.700000e+08	3.648157e+11	0.000000e+00	8.160919e-01	1.158504e+13	2.850087e+13	1.286697e+13	4.487517e+03	1.809686e+03	1.669282e+03	0	2.211933e-04
4.800000e+08	3.626903e+11	0.000000e+00	8.160919e-01	1.152481e+13	2.823658e+13	1.280221e+13	4.484333e+03	1.807752e+03	1.667499e+03	0	2.207629e-04
4.900000e+08	3.605983e+11	0.000000e+00	8.160919e-01	1.146551e+13	2.798183e+13	1.273791e+13	4.481166e+03	1.805884e+03	1.665776e+03	0	2.203376e-04
5.000000e+08	3.585384e+11	0.000000e+00	8.160919e-01	1.140711e+13	2.773602e+13	1.267407e+13	4.478015e+03	1.804079e+03	1.664110e+03	0	2.199173e-04
5.100000e+08	3.565092e+11	0.000000e+00	8.160919e-01	1.134957e+13	2.749861e+13	1.261069e+13	4.474881e+03	1.802332e+03	1.662499e+03	0	2.195016e-04
5.200000e+08	3.545095e+11	0.000000e+00	8.160919e-01	1.129286e+13	2.726907e+13	1.254777e+13	4.471762e+03	1.800640e+03	1.660938e+03	0	2.190904e-04
5.300000e+08	3.525383e+11	0.000000e+00	8.160919e-01	1.123694e+13	2.704694e+13	1.248529e+13	4.468658e+03	1.799000e+03	1.659425e+03	0	2.186836e-04
5.400000e+08	3.505944e+11	0.000000e+00	8.160919e-01	1.118180e+13	2.683177e+13	1.242325e+13	4.465570e+03	1.797409e+03	1.657958e+03	0	2.182809e-04
5.500000e+08	3.486769e+11	0.000000e+00	8.160919e-01	1.112739e+13	2.662317e+13	1.236166e+13	4.462497e+03	1.795865e+03	1.656533e+03	0	2.178822e-04
5.600000e+08	3.467848e+11	0.000000e+00	8.160919e-01	1.107370e+13	2.642075e+13	1.230050e+13	4.459439e+03	1.794364e+03	1.655149e+03	0	2.174874e-04
5.700000e+08	3.449172e+11	0.000000e+00	8.160919e-01	1.102069e+13	2.622417e+13	1.223978e+13	4.456396e+03	1.792905e+03	1.653803e+03	0	2.170963e-04
5.800000e+08	3.430733e+11	0.000000e+00	8.160919e-01	1.096835e+13	2.603310e+13	1.217949e+13	4.453367e+03	1.791485e+03	1.652494e+03	0	2.167087e-04
5.900000e+08	3.412523e+11	0.000000e+00	8.160919e-01	1.091665e+13	2.584723e+13	1.211963e+13	4.450353e+03	1.790103e+03	1.651219e+03	0	2.163246e-04
6.000000e+08	3.394534e+11	0.000000e+00	8.160919e-01	1.086557e+13	2.566630e+13	1.206019e+13	4.447352e+03	1.788755e+03	1.649976e+03	0	2.159438e-04
6.100000e+08	3.376760e+11	0.000000e+00	8.160919e-01	1.081510e+13	2.549003e+13	1.200117e+13	4.444366e+03	1.787442e+03	1.648764e+03	0	2.155663e-04
6.200000e+08	3.359193e+11	0.000000e+00	8.160919e-01	1.076520e+13	2.531818e+13	1.194257e+13	4.441394e+03	1.786159e+03	1.647581e+03	0	2.151918e-04
6.300000e+08	3.341828e+11	0.000000e+00	8.160919e-01	1.071588e+13	2.515052e+13	1.188439e+13	4.438435e+03	1.784907e+03	1.646426e+03	0	2.148204e-04
6.400000e+08	3.324658e+11	0.000000e+00	8.160919e-01	1.066710e+13	2.498685e+13	1.182661e+13	4.435490e+03	1.783684e+03	1.645297e+03	0	2.144519e-04
6.500000e+08	3.307679e+11	0.000000e+00	8.160919e-01	1.061885e+13	2.482695e+13	1.176924e+13	4.432558e+03	1.782487e+03	1.644194e+03	0	2.140861e-04
6.600000e+08	3.290883e+11	0.000000e+00	8.160919e-01	1.057113e+13	2.467065e+13	1.171227e+13	4.429640e+03	1.781316e+03	1.643114e+03	0	2.137232e-04
6.700000e+08	3.274267e+11	0.000000e+00	8.160919e-01	1.052391e+13	2.451777e+13	1.165571e+13	4.426735e+03	1.780170e+03	1.642057e+03	0	2.133629e-04
6.800000e+08	3.257826e+11	0.000000e+00	8.160919e-01	1.047717e+13	2.436814e+13	1.159954e+13	4.423842e+03	1.779047e+03	1.641021e+03	0	2.130051e-04
6.900000e+08	3.241554e+11	0.000000e+00	8.160919e-01	1.043092e+13	2.422162e+13	1.154376e+13	4.420963e+03	1.777946e+03	1.640005e+03	0	2.126499e-04
7.000000e+08	3.225448e+11	0.000000e+00	8.160919e-01	1.038513e+13	2.407806e+13	1.148838e+13	4.418096e+03	1.776867e+03	1.639010e+03	0	2.122971e-04
7.100000e+08	3.209503e+11	0.000000e+00	8.160919e-01	1.033979e+13	2.393732e+13	1.143338e+13	4.415241e+03	1.775807e+03	1.638032e+03	0	2.119467e-04
7.200000e+08	3.193715e+11	0.000000e+00	8.160919e-01	1.029490e+13	2.379928e+13	1.137877e+13	4.412399e+03	1.774767e+03	1.637073e+03	0	2.115986e-04
7.300000e+08	3.178081e+11	0.000000e+00	8.160919e-01	1.025044e+13	2.366383e+13	1.132454e+13	4.409570e+03	1.773745e+03	1.636130e+03	0	2.112528e-04
7.400000e+08	3.162596e+11	0.000000e+00	8.160919e-01	1.020640e+13	2.353084e+13	1.127069e+13	4.406753e+03	1.772741e+03	1.635204e+03	0	2.109091e-04
7.500000e+08	3.147259e+11	0.000000e+00	8.160919e-01	1.016277e+13	2.340021e+13	1.121721e+13	4.403947e+03	1.771753e+03	1.634293e+03	0	2.105676e-04
7.600000e+08	3.132064e+11	0.000000e+00	8.160919e-01	1.011954e+13	2.327184e+13	1.116411e+13	4.401154e+03	1.770781e+03	1.633396e+03	0	2.102282e-04
7.700000e+08	3.117009e+11	0.000000e+00	8.160919e-01	1.007671e+13	2.314564e+13	1.111138e+13	4.398373e+03	1.769825e+03	1.632514e+03	0	2.098908e-04
7.800000e+08	3.102091e+11	0.000000e+00	8.160919e-01	1.003426e+13	2.302153e+13	1.105901e+13	4.395603e+03	1.768883e+03	1.631645e+03	0	2.095555e-04
7.900000e+08	3.087307e+11	0.000000e+00	8.160919e-01	9.992191e+12	2.289941e+13	1.100701e+13	4.392845e+03	1.767955e+03	1.630789e+03	0	2.092220e-04
8.000000e+08	3.072655e+11	0.000000e+00	8.160919e-01	9.950490e+12	2.277922e+13	1.095536e+13	4.390098e+03	1.767040e+03	1.629945e+03	0	2.088905e-04
8.100000e+08	3.058131e+11	0.000000e+00	8.160919e-01	9.909152e+12	2.266087e+13	1.090408e+13	4.387363e+03	1.766138e+03	1.629113e+03	0	2.085609e-04
8.200000e+08	3.043733e+11	0.000000e+00	8.160919e-01	9.868168e+12	2.254429e+13	1.085315e+13	4.384640e+03	1.765248e+03	1.628293e+03	0	2.082330e-04
8.300000e+08	3.029458e+11	0.000000e+00	8.160919e-01	9.827532e+12	2.242943e+13	1.080257e+13	4.381927e+03	1.764370e+03	1.627483e+03	0	2.079070e-04
8.400000e+08	3.015305e+11	0.000000e+00	8.160919e-01	9.787237e+12	2.231621e+13	1.075234e+13	4.379226e+03	1.763504e+03	1.626683e+03	0	2.075827e-04
8.500000e+08	3.001271e+11	0.000000e+00	8.160919e-01	9.747278e+12	2.220458e+13	1.070246e+13	4.376536e+03	1.762648e+03	1.625894e+03	0	2.072602e-04
8.600000e+08	2.987354e+11	0.000000e+00	8.160919e-01	9.707647e+12	2.209448e+13	1.065292e+13	4.373856e+03	1.761802e+03	1.625114e+03	0	2.069393e-04
8.700000e+08	2.973551e+11	0.000000e+00	8.160919e-01	9.668339e+12	2.198586e+13	1.060372e+13	4.371188e+03	1.760967e+03	1.624343e+03	0	2.066201e-04
8.800000e+08	2.959861e+11	0.000000e+00	8.160919e-01	9.629349e+12	2.187868e+13	1.055486e+13	4.368530e+03	1.760141e+03	1.623581e+03	0	2.063025e-04
8.900000e+08	2.946281e+11	0.000000e+00	8.160919e-01	9.590670e+12	2.177287e+13	1.050634e+13	4.365884e+03	1.759324e+03	1.622828e+03	0	2.059865e-04
9.000000e+08	2.932811e+11	0.000000e+00	8.160919e-01	9.552298e+12	2.166840e+13	1.045815e+13	4.363247e+03	1.758516e+03	1.622083e+03	0	2.056721e-04
9.100000e+08	2.919447e+11	0.000000e+00	8.160919e-01	9.514228e+12	2.156522e+13	1.041029e+13	4.360622e+03	1.757717e+03	1.621346e+03	0	2.053593e-04
9.200000e+08	2.906189e+11	0.000000e+00	8.160919e-01	9.476454e+12	2.146329e+13	1.036276e+13	4.358006e+03	1.756926e+03	1.620616e+03	0	2.050479e-04
9.300000e+08	2.893034e+11	0.000000e+00	8.160919e-01	9.438972e+12	2.136258e+13	1.031555e+13	4.355401e+03	1.756143e+03	1.619893e+03	0	2.047381e-04
9.400000e+08	2.879981e+11	0.000000e+00	8.160919e-01	9.401778e+12	2.126305e+13	1.026867e+13	4.352807e+03	1.755367e+03	1.619178e+03	0	2.044297e-04
9.500000e+08	2.867029e+11	0.000000e+00	8.160919e-01	9.364866e+12	2.116466e+13	1.022210e+13	4.350222e+03	1.754599e+03	1.618469e+03	0	2.041228e-04
9.600000e+08	2.854175e+11	0.000000e+00	8.160919e-01	9.328233e+12	2.106737e+13	1.017586e+13	4.347648e+03	1.753838e+03	1.617767e+03	0	2.038173e-04
9.700000e+08	2.841419e+11	0.000000e+00	8.160919e-01	9.291874e+12	2.097116e+13	1.012993e+13	4.345084e+03	1.753084e+03	1.617072e+03	0	2.035132e-04
9.800000e+08	2.828758e+11	0.000000e+00	8.160919e-01	9.255786e+12	2.087600e+13	1.008431e+13	4.342530e+03	1.752336e+03	1.616382e+03	0	2.032105e-04
9.900000e+08	2.816192e+11	0.000000e+00	8.160919e-01	9.219964e+12	2.078186e+13	1.003900e+13	4.339985e+03	1.751595e+03	1.615699e+03	0	2.029091e-04
1.000000e+09	2.803719e+11	0.000000e+00	8.160919e-01	9.184404e+12	2.068871e+13	9.993995e+12	4.337451e+03	1.750860e+03	1.615021e+03	0	2.026091e-04
1.010000e+09	2.791338e+11	0.000000e+00	8.160919e-01	9.149104e+12	2.059652e+13	9.949299e+12	4.334926e+03	1.750131e+03	1.614348e+03	0	2.023104e-04
1.020000e+09	2.779048e+11	0.000000e+00	8.160919e-01	9.114059e+12	2.050528e+13	9.904905e+12	4.332411e+03	1.749408e+03	1.613681e+03	0	2.020131e-04
1.030000e+09	2.766847e+11	0.000000e+00	8.160919e-01	9.079266e+12	2.041494e+13	9.860812e+12	4.329906e+03	1.748691e+03	1.613020e+03	0	2.017170e-04
1.040000e+09	2.754734e+11	0.000000e+00	8.160919e-01	9.044722e+12	2.032550e+13	9.817017e+12	4.327410e+03	1.747979e+03	1.612363e+03	0	2.014222e-04
1.050000e+09	2.742708e+11	0.000000e+00	8.160919e-01	9.010423e+12	2.023693e+13	9.773517e+12	4.324923e+03	1.747272e+03	1.611711e+03	0	2.011287e-04
1.060000e+09	2.730767e+11	0.000000e+00	8.160919e-01	8.976366e+12	2.014922e+13	9.730311e+12	4.322447e+03	1.746571e+03	1.611064e+03	0	2.008364e-04
1.070000e+09	2.718912e+11	0.000000e+00	8.160919e-01	8.942548e+12	2.006233e+13	9.687396e+12	4.319979e+03	1.745874e+03	1.610421e+03	0	2.005453e-04
1.080000e+09	2.707140e+11	0.000000e+00	8.160919e-01	8.908966e+12	1.997625e+13	9.644770e+12	4.317521e+03	1.745182e+03	1.609783e+03	0	2.002555e-04
1.090000e+09	2.695451e+11	0.000000e+00	8.160919e-01	8.875617e+12	1.989097e+13	9.602430e+12	4.315072e+03	1.744495e+03	1.609150e+03	0	1.999668e-04
1.100000e+09	2.683843e+11	0.000000e+00	8.160919e-01	8.842497e+12	1.980646e+13	9.560375e+12	4.312632e+03	1.743813e+03	1.608520e+03	0	1.996793e-04
1.110000e+09	2.672315e+11	0.000000e+00	8.160919e-01	8.809606e+12	1.972271e+13	9.518602e+12	4.310201e+03	1.743135e+03	1.607895e+03	0	1.993931e-04
1.120000e+09	2.660867e+11	0.000000e+00	8.160919e-01	8.776939e+12	1.963970e+13	9.477108e+12	4.307779e+03	1.742462e+03	1.607274e+03	0	1.991079e-04
1.130000e+09	2.649498e+11	0.000000e+00	8.160919e-01	8.744493e+12	1.955742e+13	9.435893e+12	4.305366e+03	1.741792e+03	1.606656e+03	0	1.988239e-04
1.140000e+09	2.638207e+11	0.000000e+00	8.160919e-01	8.712267e+12	1.947585e+13	9.394952e+12	4.302962e+03	1.741127e+03	1.606043e+03	0	1.985411e-04
1.150000e+09	2.626992e+11	0.000000e+00	8.160919e-01	8.680258e+12	1.939498e+13	9.354285e+12	4.300567e+03	1.740466e+03	1.605433e+03	0	1.982594e-04
1.160000e+09	2.615853e+11	0.000000e+00	8.160919e-01	8.648463e+12	1.931480e+13	9.313890e+12	4.298181e+03	1.739808e+03	1.604826e+03	0	1.979787e-04
1.170000e+09	2.604789e+11	0.000000e+00	8.160919e-01	8.616879e+12	1.923528e+13	9.273763e+12	4.295803e+03	1.739155e+03	1.604224e+03	0	1.976992e-04
1.180000e+09	2.593800e+11	0.000000e+00	8.160919e-01	8.585505e+12	1.915643e+13	9.233904e+12	4.293434e+03	1.738505e+03	1.603624e+03	0	1.974208e-04
1.190000e+09	2.582883e+11	0.000000e+00	8.160919e-01	8.554339e+12	1.907822e+13	9.194309e+12	4.291074e+03	1.737859e+03	1.603028e+03	0	1.971435e-04
1.200000e+09	2.572039e+11	0.000000e+00	8.160919e-01	8.523376e+12	1.900065e+13	9.154977e+12	4.288722e+03	1.737217e+03	1.602436e+03	0	1.968672e-04
1.210000e+09	2.561267e+11	0.000000e+00	8.160919e-01	8.492617e+12	1.892369e+13	9.115906e+12	4.286379e+03	1.736577e+03	1.601846e+03	0	1.965920e-04
1.220000e+09	2.550566e+11	0.000000e+00	8.160919e-01	8.462057e+12	1.884736e+13	9.077094e+12	4.284044e+03	1.735942e+03	1.601260e+03	0	1.963178e-04
1.230000e+09	2.539935e+11	0.000000e+00	8.160919e-01	8.431696e+12	1.877162e+13	9.038539e+12	4.281718e+03	1.735309e+03	1.600676e+03	0	1.960446e-04
1.240000e+09	2.529373e+11	0.000000e+00	8.160919e-01	8.401531e+12	1.869647e+13	9.000239e+12	4.279400e+03	1.734680e+03	1.600096e+03	0	1.957725e-04
1.250000e+09	2.518880e+11	0.000000e+00	8.160919e-01	8.371560e+12	1.862191e+13	8.962191e+12	4.277090e+03	1.734055e+03	1.599519e+03	0	1.955014e-04
1.260000e+09	2.508455e+11	0.000000e+00	8.160919e-01	8.341781e+12	1.854792e+13	8.924394e+12	4.274788e+03	1.733432e+03	1.598945e+03	0	1.952314e-04
1.270000e+09	2.498097e+11	0.000000e+00	8.160919e-01	8.312192e+12	1.847449e+13	8.886847e+12	4.272495e+03	1.732812e+03	1.598373e+03	0	1.949623e-04
1.280000e+09	2.487806e+11	0.000000e+00	8.160919e-01	8.282791e+12	1.840162e+13	8.849546e+12	4.270210e+03	1.732196e+03	1.597804e+03	0	1.946942e-04
1.290000e+09	2.477581e+11	0.000000e+00	8.160919e-01	8.253577e+12	1.832929e+13	8.812490e+12	4.267933e+03	1.731582e+03	1.597238e+03	0	1.944271e-04
1.300000e+09	2.467421e+11	0.000000e+00	8.160919e-01	8.224546e+12	1.825750e+13	8.775678e+12	4.265663e+03	1.730971e+03	1.596675e+03	0	1.941609e-04
1.310000e+09	2.457325e+11	0.000000e+00	8.160919e-01	8.195698e+12	1.818624e+13	8.739107e+12	4.263402e+03	1.730363e+03	1.596114e+03	0	1.938958e-04
1.320000e+09	2.447293e+11	0.000000e+00	8.160919e-01	8.167030e+12	1.811551e+13	8.702775e+12	4.261149e+03	1.729758e+03	1.595556e+03	0	1.936316e-04
1.330000e+09	2.437325e+11	0.000000e+00	8.160919e-01	8.138542e+12	1.804528e+13	8.666681e+12	4.258904e+03	1.729156e+03	1.595000e+03	0	1.933683e-04
1.340000e+09	2.427419e+11	0.000000e+00	8.160919e-01	8.110230e+12	1.797557e+13	8.630823e+12	4.256666e+03	1.728556e+03	1.594447e+03	0	1.931060e-04
1.350000e+09	2.417576e+11	0.000000e+00	8.160919e-01	8.082094e+12	1.790635e+13	8.595199e+12	4.254436e+03	1.727959e+03	1.593896e+03	0	1.928446e-04
1.360000e+09	2.407793e+11	0.000000e+00	8.160919e-01	8.054131e+12	1.783763e+13	8.559807e+12	4.252214e+03	1.727365e+03	1.593348e+03	0	1.925841e-04
