#t		Qconv[W]	Ri[Rp]		R*[Rp]		Qc[W]		Qm[W]		Qr[W]		Tcmb[K]		Tl[K]		Tup[K]		RiFlag		Bs[T]
0.000000e+00	3.474653e+13	0.000000e+00	8.045977e-01	5.869604e+14	5.829771e+14	3.983661e+13	1.106952e+04	2.979068e+03	2.479770e+03	0	9.694415e-04
1.000000e+07	3.391558e+13	0.000000e+00	8.045977e-01	5.732641e+14	5.880974e+14	3.961589e+13	1.100445e+04	2.987307e+03	2.486628e+03	0	9.616511e-04
2.000000e+07	3.309744e+13	0.000000e+00	8.045977e-01	5.597801e+14	5.890325e+14	3.939682e+13	1.094089e+04	2.991960e+03	2.490501e+03	0	9.538556e-04
3.000000e+07	3.229637e+13	0.000000e+00	8.045977e-01	5.465775e+14	5.867760e+14	3.917938e+13	1.087881e+04	2.993857e+03	2.492080e+03	0	9.460971e-04
4.000000e+07	3.151522e+13	0.000000e+00	8.045977e-01	5.337029e+14	5.821371e+14	3.896357e+13	1.081819e+04	2.993651e+03	2.491908e+03	0	9.384070e-04
5.000000e+07	3.075577e+13	0.000000e+00	8.045977e-01	5.211857e+14	5.757571e+14	3.874936e+13	1.075898e+04	2.991849e+03	2.490409e+03	0	9.308078e-04
6.000000e+07	3.001904e+13	0.000000e+00	8.045977e-01	5.090422e+14	5.681355e+14	3.853676e+13	1.070115e+04	2.988846e+03	2.487909e+03	0	9.233153e-04
7.000000e+07	2.930547e+13	0.000000e+00	8.045977e-01	4.972797e+14	5.596556e+14	3.832573e+13	1.064466e+04	2.984944e+03	2.484660e+03	0	9.159407e-04
8.000000e+07	2.861510e+13	0.000000e+00	8.045977e-01	4.858987e+14	5.506085e+14	3.811628e+13	1.058946e+04	2.980373e+03	2.480856e+03	0	9.086910e-04
9.000000e+07	2.794767e+13	0.000000e+00	8.045977e-01	4.748949e+14	5.412136e+14	3.790838e+13	1.053552e+04	2.975314e+03	2.476645e+03	0	9.015705e-04
1.000000e+08	2.730273e+13	0.000000e+00	8.045977e-01	4.642608e+14	5.316349e+14	3.770203e+13	1.048279e+04	2.969901e+03	2.472139e+03	0	8.945813e-04
1.100000e+08	2.667969e+13	0.000000e+00	8.045977e-01	4.539867e+14	5.219940e+14	3.749721e+13	1.043123e+04	2.964240e+03	2.467427e+03	0	8.877242e-04
1.200000e+08	2.607787e+13	0.000000e+00	8.045977e-01	4.440616e+14	5.123804e+14	3.729391e+13	1.038081e+04	2.958411e+03	2.462574e+03	0	8.809985e-04
1.300000e+08	2.549655e+13	0.000000e+00	8.045977e-01	4.344734e+14	5.028589e+14	3.709211e+13	1.033148e+04	2.952474e+03	2.457633e+03	0	8.744029e-04
1.400000e+08	2.493497e+13	0.000000e+00	8.045977e-01	4.252098e+14	4.934764e+14	3.689180e+13	1.028320e+04	2.946476e+03	2.452640e+03	0	8.679355e-04
1.500000e+08	2.439238e+13	0.000000e+00	8.045977e-01	4.162584e+14	4.842657e+14	3.669298e+13	1.023595e+04	2.940454e+03	2.447628e+03	0	8.615937e-04
1.600000e+08	2.386801e+13	0.000000e+00	8.045977e-01	4.076066e+14	4.752491e+14	3.649562e+13	1.018969e+04	2.934435e+03	2.442617e+03	0	8.553750e-04
1.700000e+08	2.336113e+13	0.000000e+00	8.045977e-01	3.992422e+14	4.664413e+14	3.629973e+13	1.014439e+04	2.928439e+03	2.437626e+03	0	8.492764e-04
1.800000e+08	2.287101e+13	0.000000e+00	8.045977e-01	3.911536e+14	4.578510e+14	3.610527e+13	1.010001e+04	2.922482e+03	2.432668e+03	0	8.432951e-04
1.900000e+08	2.239695e+13	0.000000e+00	8.045977e-01	3.833290e+14	4.494828e+14	3.591225e+13	1.005652e+04	2.916576e+03	2.427751e+03	0	8.374279e-04
2.000000e+08	2.193828e+13	0.000000e+00	8.045977e-01	3.757575e+14	4.413379e+14	3.572065e+13	1.001389e+04	2.910729e+03	2.422885e+03	0	8.316719e-04
2.100000e+08	2.149436e+13	0.000000e+00	8.045977e-01	3.684284e+14	4.334151e+14	3.553045e+13	9.972105e+03	2.904949e+03	2.418073e+03	0	8.260239e-04
2.200000e+08	2.106455e+13	0.000000e+00	8.045977e-01	3.613317e+14	4.257117e+14	3.534166e+13	9.931128e+03	2.899239e+03	2.413320e+03	0	8.204810e-04
2.300000e+08	2.064828e+13	0.000000e+00	8.045977e-01	3.544575e+14	4.182235e+14	3.515425e+13	9.890935e+03	2.893602e+03	2.408628e+03	0	8.150403e-04
2.400000e+08	2.024498e+13	0.000000e+00	8.045977e-01	3.477966e+14	4.109458e+14	3.496821e+13	9.851502e+03	2.888042e+03	2.403999e+03	0	8.096990e-04
2.500000e+08	1.985411e+13	0.000000e+00	8.045977e-01	3.413402e+14	4.038730e+14	3.478354e+13	9.812806e+03	2.882558e+03	2.399435e+03	0	8.044541e-04
2.600000e+08	1.947515e+13	0.000000e+00	8.045977e-01	3.350799e+14	3.969993e+14	3.460021e+13	9.774824e+03	2.877152e+03	2.394935e+03	0	7.993030e-04
2.700000e+08	1.910763e+13	0.000000e+00	8.045977e-01	3.290076e+14	3.903186e+14	3.441823e+13	9.737534e+03	2.871823e+03	2.390499e+03	0	7.942430e-04
2.800000e+08	1.875107e+13	0.000000e+00	8.045977e-01	3.231158e+14	3.838248e+14	3.423758e+13	9.700917e+03	2.866571e+03	2.386127e+03	0	7.892716e-04
2.900000e+08	1.840504e+13	0.000000e+00	8.045977e-01	3.173972e+14	3.775116e+14	3.405824e+13	9.664951e+03	2.861396e+03	2.381819e+03	0	7.843864e-04
3.000000e+08	1.806911e+13	0.000000e+00	8.045977e-01	3.118448e+14	3.713730e+14	3.388022e+13	9.629618e+03	2.856296e+03	2.377574e+03	0	7.795849e-04
3.100000e+08	1.774289e+13	0.000000e+00	8.045977e-01	3.064522e+14	3.654030e+14	3.370348e+13	9.594900e+03	2.851271e+03	2.373391e+03	0	7.748648e-04
3.200000e+08	1.742600e+13	0.000000e+00	8.045977e-01	3.012131e+14	3.595957e+14	3.352804e+13	9.560779e+03	2.846319e+03	2.369269e+03	0	7.702240e-04
3.300000e+08	1.711807e+13	0.000000e+00	8.045977e-01	2.961215e+14	3.539454e+14	3.335387e+13	9.527239e+03	2.841438e+03	2.365207e+03	0	7.656601e-04
3.400000e+08	1.681875e+13	0.000000e+00	8.045977e-01	2.911717e+14	3.484466e+14	3.318097e+13	9.494262e+03	2.836629e+03	2.361204e+03	0	7.611713e-04
3.500000e+08	1.652773e+13	0.000000e+00	8.045977e-01	2.863585e+14	3.430938e+14	3.300932e+13	9.461833e+03	2.831889e+03	2.357258e+03	0	7.567554e-04
3.600000e+08	1.624468e+13	0.000000e+00	8.045977e-01	2.816765e+14	3.378820e+14	3.283891e+13	9.429938e+03	2.827217e+03	2.353369e+03	0	7.524105e-04
3.700000e+08	1.596931e+13	0.000000e+00	8.045977e-01	2.771210e+14	3.328061e+14	3.266974e+13	9.398561e+03	2.822611e+03	2.349535e+03	0	7.481348e-04
3.800000e+08	1.570134e+13	0.000000e+00	8.045977e-01	2.726872e+14	3.278614e+14	3.250179e+13	9.367690e+03	2.818070e+03	2.345755e+03	0	7.439265e-04
3.900000e+08	1.544048e+13	0.000000e+00	8.045977e-01	2.683707e+14	3.230433e+14	3.233506e+13	9.337309e+03	2.813593e+03	2.342029e+03	0	7.397837e-04
4.000000e+08	1.518650e+13	0.000000e+00	8.045977e-01	2.641672e+14	3.183474e+14	3.216953e+13	9.307407e+03	2.809178e+03	2.338354e+03	0	7.357049e-04
4.100000e+08	1.493912e+13	0.000000e+00	8.045977e-01	2.600727e+14	3.137693e+14	3.200520e+13	9.277972e+03	2.804824e+03	2.334729e+03	0	7.316884e-04
4.200000e+08	1.469813e+13	0.000000e+00	8.045977e-01	2.560833e+14	3.093052e+14	3.184205e+13	9.248990e+03	2.800530e+03	2.331155e+03	0	7.277326e-04
4.300000e+08	1.446330e+13	0.000000e+00	8.045977e-01	2.521952e+14	3.049509e+14	3.168007e+13	9.220450e+03	2.796293e+03	2.327628e+03	0	7.238361e-04
4.400000e+08	1.423440e+13	0.000000e+00	8.045977e-01	2.484051e+14	3.007029e+14	3.151926e+13	9.192342e+03	2.792114e+03	2.324149e+03	0	7.199973e-04
4.500000e+08	1.401124e+13	0.000000e+00	8.045977e-01	2.447094e+14	2.965575e+14	3.135961e+13	9.164654e+03	2.787990e+03	2.320717e+03	0	7.162149e-04
4.600000e+08	1.379362e+13	0.000000e+00	8.045977e-01	2.411049e+14	2.925113e+14	3.120110e+13	9.137377e+03	2.783921e+03	2.317329e+03	0	7.124874e-04
4.700000e+08	1.358134e+13	0.000000e+00	8.045977e-01	2.375885e+14	2.885609e+14	3.104373e+13	9.110499e+03	2.779904e+03	2.313986e+03	0	7.088135e-04
4.800000e+08	1.337423e+13	0.000000e+00	8.045977e-01	2.341573e+14	2.847033e+14	3.088748e+13	9.084011e+03	2.775940e+03	2.310687e+03	0	7.051921e-04
4.900000e+08	1.317212e+13	0.000000e+00	8.045977e-01	2.308085e+14	2.809353e+14	3.073236e+13	9.057904e+03	2.772027e+03	2.307429e+03	0	7.016217e-04
5.000000e+08	1.297484e+13	0.000000e+00	8.045977e-01	2.275392e+14	2.772541e+14	3.057834e+13	9.032168e+03	2.768164e+03	2.304213e+03	0	6.981013e-04
5.100000e+08	1.278223e+13	0.000000e+00	8.045977e-01	2.243469e+14	2.736569e+14	3.042542e+13	9.006796e+03	2.764349e+03	2.301038e+03	0	6.946297e-04
5.200000e+08	1.259414e+13	0.000000e+00	8.045977e-01	2.212291e+14	2.701410e+14	3.027360e+13	8.981778e+03	2.760582e+03	2.297902e+03	0	6.912056e-04
5.300000e+08	1.241042e+13	0.000000e+00	8.045977e-01	2.181834e+14	2.667038e+14	3.012286e+13	8.957106e+03	2.756861e+03	2.294805e+03	0	6.878282e-04
5.400000e+08	1.223094e+13	0.000000e+00	8.045977e-01	2.152076e+14	2.633429e+14	2.997319e+13	8.932772e+03	2.753186e+03	2.291746e+03	0	6.844962e-04
5.500000e+08	1.205555e+13	0.000000e+00	8.045977e-01	2.122993e+14	2.600558e+14	2.982459e+13	8.908768e+03	2.749556e+03	2.288724e+03	0	6.812087e-04
5.600000e+08	1.188414e+13	0.000000e+00	8.045977e-01	2.094564e+14	2.568403e+14	2.967704e+13	8.885088e+03	2.745970e+03	2.285739e+03	0	6.779647e-04
5.700000e+08	1.171658e+13	0.000000e+00	8.045977e-01	2.066771e+14	2.536942e+14	2.953054e+13	8.861723e+03	2.742426e+03	2.282789e+03	0	6.747632e-04
5.800000e+08	1.155274e+13	0.000000e+00	8.045977e-01	2.039592e+14	2.506154e+14	2.938508e+13	8.838667e+03	2.738924e+03	2.279874e+03	0	6.716033e-04
5.900000e+08	1.139252e+13	0.000000e+00	8.045977e-01	2.013009e+14	2.476018e+14	2.924065e+13	8.815913e+03	2.735464e+03	2.276994e+03	0	6.684841e-04
6.000000e+08	1.123580e+13	0.000000e+00	8.045977e-01	1.987004e+14	2.446516e+14	2.909725e+13	8.793454e+03	2.732043e+03	2.274147e+03	0	6.654046e-04
6.100000e+08	1.108248e+13	0.000000e+00	8.045977e-01	1.961559e+14	2.417628e+14	2.895485e+13	8.771285e+03	2.728662e+03	2.271332e+03	0	6.623642e-04
6.200000e+08	1.093246e+13	0.000000e+00	8.045977e-01	1.936659e+14	2.389336e+14	2.881347e+13	8.749397e+03	2.725320e+03	2.268550e+03	0	6.593618e-04
6.300000e+08	1.078564e+13	0.000000e+00	8.045977e-01	1.912287e+14	2.361624e+14	2.867308e+13	8.727787e+03	2.722015e+03	2.265799e+03	0	6.563968e-04
6.400000e+08	1.064193e+13	0.000000e+00	8.045977e-01	1.888427e+14	2.334473e+14	2.853368e+13	8.706447e+03	2.718747e+03	2.263079e+03	0	6.534684e-04
6.500000e+08	1.050123e+13	0.000000e+00	8.045977e-01	1.865064e+14	2.307869e+14	2.839527e+13	8.685373e+03	2.715516e+03	2.260390e+03	0	6.505757e-04
6.600000e+08	1.036346e+13	0.000000e+00	8.045977e-01	1.842184e+14	2.281796e+14	2.825783e+13	8.664558e+03	2.712321e+03	2.257730e+03	0	6.477180e-04
6.700000e+08	1.022853e+13	0.000000e+00	8.045977e-01	1.819774e+14	2.256238e+14	2.812135e+13	8.643998e+03	2.709160e+03	2.255099e+03	0	6.448948e-04
6.800000e+08	1.009636e+13	0.000000e+00	8.045977e-01	1.797820e+14	2.231181e+14	2.798584e+13	8.623686e+03	2.706034e+03	2.252497e+03	0	6.421051e-04
6.900000e+08	9.966884e+12	0.000000e+00	8.045977e-01	1.776309e+14	2.206611e+14	2.785127e+13	8.603619e+03	2.702941e+03	2.249922e+03	0	6.393484e-04
7.000000e+08	9.840014e+12	0.000000e+00	8.045977e-01	1.755229e+14	2.182516e+14	2.771765e+13	8.583791e+03	2.699882e+03	2.247376e+03	0	6.366241e-04
7.100000e+08	9.715682e+12	0.000000e+00	8.045977e-01	1.734568e+14	2.158881e+14	2.758496e+13	8.564198e+03	2.696854e+03	2.244856e+03	0	6.339314e-04
7.200000e+08	9.593817e+12	0.000000e+00	8.045977e-01	1.714313e+14	2.135695e+14	2.745320e+13	8.544834e+03	2.693859e+03	2.242362e+03	0	6.312697e-04
7.300000e+08	9.474352e+12	0.000000e+00	8.045977e-01	1.694456e+14	2.112946e+14	2.732236e+13	8.525695e+03	2.690895e+03	2.239895e+03	0	6.286385e-04
7.400000e+08	9.357221e+12	0.000000e+00	8.045977e-01	1.674983e+14	2.090621e+14	2.719244e+13	8.506777e+03	2.687961e+03	2.237453e+03	0	6.260371e-04
7.500000e+08	9.242362e+12	0.000000e+00	8.045977e-01	1.655886e+14	2.068709e+14	2.706342e+13	8.488076e+03	2.685057e+03	2.235036e+03	0	6.234651e-04
7.600000e+08	9.129714e+12	0.000000e+00	8.045977e-01	1.637153e+14	2.047201e+14	2.693530e+13	8.469588e+03	2.682183e+03	2.232643e+03	0	6.209217e-04
7.700000e+08	9.019217e+12	0.000000e+00	8.045977e-01	1.618776e+14	2.026084e+14	2.680807e+13	8.451307e+03	2.679338e+03	2.230275e+03	0	6.184066e-04
7.800000e+08	8.910816e+12	0.000000e+00	8.045977e-01	1.600745e+14	2.005349e+14	2.668172e+13	8.433231e+03	2.676521e+03	2.227930e+03	0	6.159190e-04
7.900000e+08	8.804455e+12	0.000000e+00	8.045977e-01	1.583051e+14	1.984987e+14	2.655626e+13	8.415356e+03	2.673732e+03	2.225609e+03	0	6.134587e-04
8.000000e+08	8.700082e+12	0.000000e+00	8.045977e-01	1.565686e+14	1.964988e+14	2.643166e+13	8.397678e+03	2.670971e+03	2.223310e+03	0	6.110249e-04
8.100000e+08	8.597644e+12	0.000000e+00	8.045977e-01	1.548640e+14	1.945342e+14	2.630792e+13	8.380192e+03	2.668236e+03	2.221034e+03	0	6.086173e-04
8.200000e+08	8.497093e+12	0.000000e+00	8.045977e-01	1.531906e+14	1.926040e+14	2.618505e+13	8.362897e+03	2.665529e+03	2.218780e+03	0	6.062354e-04
8.300000e+08	8.398380e+12	0.000000e+00	8.045977e-01	1.515475e+14	1.907075e+14	2.606302e+13	8.345788e+03	2.662847e+03	2.216548e+03	0	6.038786e-04
8.400000e+08	8.301460e+12	0.000000e+00	8.045977e-01	1.499341e+14	1.888437e+14	2.594183e+13	8.328861e+03	2.660190e+03	2.214337e+03	0	6.015466e-04
8.500000e+08	8.206286e+12	0.000000e+00	8.045977e-01	1.483495e+14	1.870119e+14	2.582148e+13	8.312114e+03	2.657559e+03	2.212146e+03	0	5.992389e-04
8.600000e+08	8.112815e+12	0.000000e+00	8.045977e-01	1.467931e+14	1.852114e+14	2.570196e+13	8.295544e+03	2.654953e+03	2.209977e+03	0	5.969551e-04
8.700000e+08	8.021006e+12	0.000000e+00	8.045977e-01	1.452641e+14	1.834412e+14	2.558327e+13	8.279147e+03	2.652371e+03	2.207828e+03	0	5.946947e-04
8.800000e+08	7.930818e+12	0.000000e+00	8.045977e-01	1.437619e+14	1.817008e+14	2.546539e+13	8.262920e+03	2.649813e+03	2.205698e+03	0	5.924574e-04
8.900000e+08	7.842210e+12	0.000000e+00	8.045977e-01	1.422859e+14	1.799893e+14	2.534832e+13	8.246860e+03	2.647278e+03	2.203588e+03	0	5.902427e-04
9.000000e+08	7.755145e+12	0.000000e+00	8.045977e-01	1.408353e+14	1.783061e+14	2.523205e+13	8.230965e+03	2.644767e+03	2.201498e+03	0	5.880503e-04
9.100000e+08	7.669585e+12	0.000000e+00	8.045977e-01	1.394097e+14	1.766506e+14	2.511658e+13	8.215231e+03	2.642278e+03	2.199426e+03	0	5.858797e-04
9.200000e+08	7.585495e+12	0.000000e+00	8.045977e-01	1.380083e+14	1.750221e+14	2.500190e+13	8.199656e+03	2.639812e+03	2.197373e+03	0	5.837306e-04
9.300000e+08	7.502839e+12	0.000000e+00	8.045977e-01	1.366307e+14	1.734200e+14	2.488801e+13	8.184237e+03	2.637367e+03	2.195339e+03	0	5.816026e-04
9.400000e+08	7.421584e+12	0.000000e+00	8.045977e-01	1.352762e+14	1.718436e+14	2.477489e+13	8.168971e+03	2.634945e+03	2.193322e+03	0	5.794954e-04
9.500000e+08	7.341697e+12	0.000000e+00	8.045977e-01	1.339443e+14	1.702924e+14	2.466255e+13	8.153856e+03	2.632544e+03	2.191323e+03	0	5.774087e-04
9.600000e+08	7.263146e+12	0.000000e+00	8.045977e-01	1.326345e+14	1.687658e+14	2.455097e+13	8.138890e+03	2.630163e+03	2.189342e+03	0	5.753420e-04
9.700000e+08	7.185900e+12	0.000000e+00	8.045977e-01	1.313463e+14	1.672632e+14	2.444015e+13	8.124069e+03	2.627804e+03	2.187378e+03	0	5.732950e-04
9.800000e+08	7.109928e+12	0.000000e+00	8.045977e-01	1.300792e+14	1.657842e+14	2.433009e+13	8.109392e+03	2.625464e+03	2.185431e+03	0	5.712675e-04
9.900000e+08	7.035203e+12	0.000000e+00	8.045977e-01	1.288328e+14	1.643281e+14	2.422077e+13	8.094856e+03	2.623145e+03	2.183500e+03	0	5.692591e-04
1.000000e+09	6.961695e+12	0.000000e+00	8.045977e-01	1.276064e+14	1.628945e+14	2.411220e+13	8.080459e+03	2.620846e+03	2.181586e+03	0	5.672695e-04
1.010000e+09	6.889377e+12	0.000000e+00	8.045977e-01	1.263998e+14	1.614828e+14	2.400436e+13	8.066198e+03	2.618566e+03	2.179688e+03	0	5.652984e-04
1.020000e+09	6.818223e+12	0.000000e+00	8.045977e-01	1.252124e+14	1.600927e+14	2.389725e+13	8.052072e+03	2.616305e+03	2.177806e+03	0	5.633455e-04
1.030000e+09	6.748206e+12	0.000000e+00	8.045977e-01	1.240438e+14	1.587236e+14	2.379087e+13	8.038078e+03	2.614063e+03	2.175940e+03	0	5.614106e-04
1.040000e+09	6.679302e+12	0.000000e+00	8.045977e-01	1.228936e+14	1.573750e+14	2.368521e+13	8.024215e+03	2.611839e+03	2.174089e+03	0	5.594932e-04
1.050000e+09	6.611485e+12	0.000000e+00	8.045977e-01	1.217614e+14	1.560466e+14	2.358026e+13	8.010479e+03	2.609634e+03	2.172253e+03	0	5.575932e-04
1.060000e+09	6.544733e+12	0.000000e+00	8.045977e-01	1.206469e+14	1.547379e+14	2.347601e+13	7.996870e+03	2.607447e+03	2.170433e+03	0	5.557103e-04
1.070000e+09	6.479021e+12	0.000000e+00	8.045977e-01	1.195495e+14	1.534485e+14	2.337248e+13	7.983385e+03	2.605277e+03	2.168627e+03	0	5.538442e-04
1.080000e+09	6.414328e+12	0.000000e+00	8.045977e-01	1.184691e+14	1.521780e+14	2.326963e+13	7.970022e+03	2.603125e+03	2.166835e+03	0	5.519946e-04
1.090000e+09	6.350631e+12	0.000000e+00	8.045977e-01	1.174051e+14	1.509259e+14	2.316748e+13	7.956780e+03	2.600990e+03	2.165059e+03	0	5.501614e-04
1.100000e+09	6.287910e+12	0.000000e+00	8.045977e-01	1.163573e+14	1.496920e+14	2.306601e+13	7.943656e+03	2.598872e+03	2.163296e+03	0	5.483442e-04
1.110000e+09	6.226143e+12	0.000000e+00	8.045977e-01	1.153252e+14	1.484758e+14	2.296523e+13	7.930649e+03	2.596771e+03	2.161547e+03	0	5.465428e-04
1.120000e+09	6.165311e+12	0.000000e+00	8.045977e-01	1.143087e+14	1.472770e+14	2.286512e+13	7.917757e+03	2.594687e+03	2.159812e+03	0	5.447570e-04
1.130000e+09	6.105393e+12	0.000000e+00	8.045977e-01	1.133073e+14	1.460951e+14	2.276568e+13	7.904978e+03	2.592619e+03	2.158090e+03	0	5.429865e-04
1.140000e+09	6.046371e+12	0.000000e+00	8.045977e-01	1.123207e+14	1.449300e+14	2.266690e+13	7.892311e+03	2.590566e+03	2.156382e+03	0	5.412311e-04
1.150000e+09	5.988227e+12	0.000000e+00	8.045977e-01	1.113487e+14	1.437812e+14	2.256879e+13	7.879754e+03	2.588530e+03	2.154687e+03	0	5.394906e-04
1.160000e+09	5.930941e+12	0.000000e+00	8.045977e-01	1.103909e+14	1.426483e+14	2.247133e+13	7.867305e+03	2.586509e+03	2.153005e+03	0	5.377648e-04
1.170000e+09	5.874498e+12	0.000000e+00	8.045977e-01	1.094471e+14	1.415312e+14	2.237452e+13	7.854963e+03	2.584504e+03	2.151335e+03	0	5.360534e-04
1.180000e+09	5.818878e+12	0.000000e+00	8.045977e-01	1.085168e+14	1.404295e+14	2.227835e+13	7.842726e+03	2.582514e+03	2.149679e+03	0	5.343562e-04
1.190000e+09	5.764067e+12	0.000000e+00	8.045977e-01	1.076000e+14	1.393428e+14	2.218282e+13	7.830593e+03	2.580538e+03	2.148034e+03	0	5.326731e-04
1.200000e+09	5.710046e+12	0.000000e+00	8.045977e-01	1.066963e+14	1.382709e+14	2.208792e+13	7.818563e+03	2.578578e+03	2.146402e+03	0	5.310039e-04
1.210000e+09	5.656801e+12	0.000000e+00	8.045977e-01	1.058055e+14	1.372135e+14	2.199366e+13	7.806632e+03	2.576632e+03	2.144783e+03	0	5.293482e-04
1.220000e+09	5.604317e+12	0.000000e+00	8.045977e-01	1.049272e+14	1.361703e+14	2.190002e+13	7.794802e+03	2.574700e+03	2.143175e+03	0	5.277060e-04
1.230000e+09	5.552577e+12	0.000000e+00	8.045977e-01	1.040613e+14	1.351411e+14	2.180700e+13	7.783069e+03	2.572783e+03	2.141579e+03	0	5.260770e-04
1.240000e+09	5.501568e+12	0.000000e+00	8.045977e-01	1.032075e+14	1.341255e+14	2.171459e+13	7.771433e+03	2.570879e+03	2.139994e+03	0	5.244611e-04
1.250000e+09	5.451275e+12	0.000000e+00	8.045977e-01	1.023656e+14	1.331234e+14	2.162280e+13	7.759892e+03	2.568990e+03	2.138421e+03	0	5.228581e-04
1.260000e+09	5.401684e+12	0.000000e+00	8.045977e-01	1.015353e+14	1.321344e+14	2.153160e+13	7.748445e+03	2.567114e+03	2.136860e+03	0	5.212678e-04
1.270000e+09	5.352782e+12	0.000000e+00	8.045977e-01	1.007164e+14	1.311583e+14	2.144101e+13	7.737090e+03	2.565251e+03	2.135310e+03	0	5.196900e-04
1.280000e+09	5.304555e+12	0.000000e+00	8.045977e-01	9.990870e+13	1.301949e+14	2.135102e+13	7.725827e+03	2.563402e+03	2.133770e+03	0	5.181245e-04
1.290000e+09	5.256990e+12	0.000000e+00	8.045977e-01	9.911200e+13	1.292440e+14	2.126162e+13	7.714654e+03	2.561566e+03	2.132242e+03	0	5.165712e-04
1.300000e+09	5.210075e+12	0.000000e+00	8.045977e-01	9.832608e+13	1.283052e+14	2.117280e+13	7.703570e+03	2.559743e+03	2.130724e+03	0	5.150299e-04
1.310000e+09	5.163798e+12	0.000000e+00	8.045977e-01	9.755072e+13	1.273785e+14	2.108457e+13	7.692573e+03	2.557932e+03	2.129217e+03	0	5.135005e-04
1.320000e+09	5.118146e+12	0.000000e+00	8.045977e-01	9.678573e+13	1.264635e+14	2.099691e+13	7.681663e+03	2.556134e+03	2.127721e+03	0	5.119828e-04
1.330000e+09	5.073107e+12	0.000000e+00	8.045977e-01	9.603093e+13	1.255600e+14	2.090983e+13	7.670838e+03	2.554349e+03	2.126234e+03	0	5.104766e-04
1.340000e+09	5.028671e+12	0.000000e+00	8.045977e-01	9.528611e+13	1.246679e+14	2.082331e+13	7.660098e+03	2.552576e+03	2.124759e+03	0	5.089817e-04
1.350000e+09	4.984825e+12	0.000000e+00	8.045977e-01	9.455110e+13	1.237870e+14	2.073737e+13	7.649440e+03	2.550815e+03	2.123293e+03	0	5.074981e-04
1.360000e+09	4.941560e+12	0.000000e+00	8.045977e-01	9.382571e+13	1.229170e+14	2.065198e+13	7.638865e+03	2.549066e+03	2.121837e+03	0	5.060256e-04
