#t		Qconv[W]	Ri[Rp]		R*[Rp]		Qc[W]		Qm[W]		Qr[W]		Tcmb[K]		Tl[K]		Tup[K]		RiFlag		Bs[T]
0.000000e+00	5.034894e+12	0.000000e+00	8.139534e-01	9.278367e+13	3.511203e+14	4.549951e+13	8.012881e+03	2.917645e+03	2.566485e+03	0	5.021997e-04
1.000000e+07	4.928399e+12	0.000000e+00	8.139534e-01	9.123539e+13	3.240044e+14	4.524741e+13	8.004674e+03	2.881428e+03	2.534627e+03	0	4.986336e-04
2.000000e+07	4.831037e+12	0.000000e+00	8.139534e-01	8.981845e+13	3.012374e+14	4.499720e+13	7.996604e+03	2.849409e+03	2.506462e+03	0	4.953283e-04
3.000000e+07	4.741502e+12	0.000000e+00	8.139534e-01	8.851406e+13	2.818984e+14	4.474885e+13	7.988659e+03	2.820909e+03	2.481392e+03	0	4.922491e-04
4.000000e+07	4.658725e+12	0.000000e+00	8.139534e-01	8.730688e+13	2.653032e+14	4.450236e+13	7.980829e+03	2.795388e+03	2.458943e+03	0	4.893677e-04
5.000000e+07	4.581826e+12	0.000000e+00	8.139534e-01	8.618427e+13	2.509335e+14	4.425771e+13	7.973105e+03	2.772414e+03	2.438734e+03	0	4.866602e-04
6.000000e+07	4.510074e+12	0.000000e+00	8.139534e-01	8.513572e+13	2.383908e+14	4.401488e+13	7.965481e+03	2.751636e+03	2.420456e+03	0	4.841064e-04
7.000000e+07	4.442856e+12	0.000000e+00	8.139534e-01	8.415244e+13	2.273636e+14	4.377386e+13	7.957949e+03	2.732763e+03	2.403855e+03	0	4.816894e-04
8.000000e+07	4.379654e+12	0.000000e+00	8.139534e-01	8.322696e+13	2.176058e+14	4.353463e+13	7.950504e+03	2.715555e+03	2.388718e+03	0	4.793943e-04
9.000000e+07	4.320027e+12	0.000000e+00	8.139534e-01	8.235297e+13	2.089203e+14	4.329718e+13	7.943141e+03	2.699811e+03	2.374869e+03	0	4.772088e-04
1.000000e+08	4.263598e+12	0.000000e+00	8.139534e-01	8.152504e+13	2.011477e+14	4.306149e+13	7.935855e+03	2.685359e+03	2.362157e+03	0	4.751219e-04
1.100000e+08	4.210042e+12	0.000000e+00	8.139534e-01	8.073848e+13	1.941576e+14	4.282755e+13	7.928642e+03	2.672056e+03	2.350454e+03	0	4.731241e-04
1.200000e+08	4.159076e+12	0.000000e+00	8.139534e-01	7.998926e+13	1.878429e+14	4.259535e+13	7.921499e+03	2.659775e+03	2.339652e+03	0	4.712072e-04
1.300000e+08	4.110455e+12	0.000000e+00	8.139534e-01	7.927384e+13	1.821143e+14	4.236487e+13	7.914421e+03	2.648410e+03	2.329655e+03	0	4.693638e-04
1.400000e+08	4.063965e+12	0.000000e+00	8.139534e-01	7.858912e+13	1.768972e+14	4.213609e+13	7.907407e+03	2.637868e+03	2.320381e+03	0	4.675876e-04
1.500000e+08	4.019416e+12	0.000000e+00	8.139534e-01	7.793241e+13	1.721287e+14	4.190900e+13	7.900454e+03	2.628067e+03	2.311760e+03	0	4.658727e-04
1.600000e+08	3.976641e+12	0.000000e+00	8.139534e-01	7.730129e+13	1.677555e+14	4.168359e+13	7.893558e+03	2.618935e+03	2.303727e+03	0	4.642142e-04
1.700000e+08	3.935494e+12	0.000000e+00	8.139534e-01	7.669364e+13	1.637321e+14	4.145984e+13	7.886718e+03	2.610412e+03	2.296229e+03	0	4.626075e-04
1.800000e+08	3.895841e+12	0.000000e+00	8.139534e-01	7.610757e+13	1.600193e+14	4.123775e+13	7.879932e+03	2.602440e+03	2.289217e+03	0	4.610486e-04
1.900000e+08	3.857567e+12	0.000000e+00	8.139534e-01	7.554140e+13	1.565836e+14	4.101729e+13	7.873198e+03	2.594970e+03	2.282646e+03	0	4.595338e-04
2.000000e+08	3.820566e+12	0.000000e+00	8.139534e-01	7.499362e+13	1.533958e+14	4.079845e+13	7.866513e+03	2.587960e+03	2.276480e+03	0	4.580598e-04
2.100000e+08	3.784744e+12	0.000000e+00	8.139534e-01	7.446287e+13	1.504304e+14	4.058122e+13	7.859877e+03	2.581369e+03	2.270682e+03	0	4.566237e-04
2.200000e+08	3.750015e+12	0.000000e+00	8.139534e-01	7.394792e+13	1.476653e+14	4.036558e+13	7.853288e+03	2.575163e+03	2.265224e+03	0	4.552228e-04
2.300000e+08	3.716304e+12	0.000000e+00	8.139534e-01	7.344768e+13	1.450811e+14	4.015153e+13	7.846745e+03	2.569311e+03	2.260075e+03	0	4.538546e-04
2.400000e+08	3.683542e+12	0.000000e+00	8.139534e-01	7.296115e+13	1.426605e+14	3.993905e+13	7.840245e+03	2.563783e+03	2.255213e+03	0	4.525169e-04
2.500000e+08	3.651664e+12	0.000000e+00	8.139534e-01	7.248742e+13	1.403885e+14	3.972812e+13	7.833789e+03	2.558556e+03	2.250615e+03	0	4.512078e-04
2.600000e+08	3.620614e+12	0.000000e+00	8.139534e-01	7.202568e+13	1.382517e+14	3.951874e+13	7.827374e+03	2.553604e+03	2.246259e+03	0	4.499253e-04
2.700000e+08	3.590340e+12	0.000000e+00	8.139534e-01	7.157517e+13	1.362380e+14	3.931089e+13	7.821000e+03	2.548908e+03	2.242128e+03	0	4.486677e-04
2.800000e+08	3.560795e+12	0.000000e+00	8.139534e-01	7.113520e+13	1.343368e+14	3.910456e+13	7.814666e+03	2.544447e+03	2.238205e+03	0	4.474336e-04
2.900000e+08	3.531934e+12	0.000000e+00	8.139534e-01	7.070516e+13	1.325387e+14	3.889973e+13	7.808371e+03	2.540206e+03	2.234474e+03	0	4.462215e-04
3.000000e+08	3.503719e+12	0.000000e+00	8.139534e-01	7.028446e+13	1.308350e+14	3.869639e+13	7.802114e+03	2.536168e+03	2.230921e+03	0	4.450301e-04
3.100000e+08	3.476112e+12	0.000000e+00	8.139534e-01	6.987259e+13	1.292182e+14	3.849454e+13	7.795894e+03	2.532318e+03	2.227535e+03	0	4.438582e-04
3.200000e+08	3.449080e+12	0.000000e+00	8.139534e-01	6.946906e+13	1.276813e+14	3.829416e+13	7.789711e+03	2.528643e+03	2.224302e+03	0	4.427046e-04
3.300000e+08	3.422593e+12	0.000000e+00	8.139534e-01	6.907342e+13	1.262180e+14	3.809523e+13	7.783563e+03	2.525131e+03	2.221213e+03	0	4.415685e-04
3.400000e+08	3.396620e+12	0.000000e+00	8.139534e-01	6.868526e+13	1.248228e+14	3.789774e+13	7.777450e+03	2.521771e+03	2.218257e+03	0	4.404487e-04
3.500000e+08	3.371137e+12	0.000000e+00	8.139534e-01	6.830421e+13	1.234904e+14	3.770169e+13	7.771371e+03	2.518553e+03	2.215426e+03	0	4.393444e-04
3.600000e+08	3.346119e+12	0.000000e+00	8.139534e-01	6.792991e+13	1.222164e+14	3.750707e+13	7.765326e+03	2.515466e+03	2.212712e+03	0	4.382549e-04
3.700000e+08	3.321543e+12	0.000000e+00	8.139534e-01	6.756203e+13	1.209963e+14	3.731385e+13	7.759314e+03	2.512503e+03	2.210105e+03	0	4.371793e-04
3.800000e+08	3.297388e+12	0.000000e+00	8.139534e-01	6.720029e+13	1.198265e+14	3.712203e+13	7.753335e+03	2.509656e+03	2.207600e+03	0	4.361170e-04
3.900000e+08	3.273636e+12	0.000000e+00	8.139534e-01	6.684439e+13	1.187033e+14	3.693159e+13	7.747387e+03	2.506916e+03	2.205190e+03	0	4.350673e-04
4.000000e+08	3.250267e+12	0.000000e+00	8.139534e-01	6.649407e+13	1.176235e+14	3.674253e+13	7.741471e+03	2.504277e+03	2.202869e+03	0	4.340296e-04
4.100000e+08	3.227266e+12	0.000000e+00	8.139534e-01	6.614910e+13	1.165843e+14	3.655484e+13	7.735586e+03	2.501733e+03	2.200631e+03	0	4.330033e-04
4.200000e+08	3.204616e+12	0.000000e+00	8.139534e-01	6.580925e+13	1.155828e+14	3.636849e+13	7.729732e+03	2.499278e+03	2.198472e+03	0	4.319879e-04
4.300000e+08	3.182302e+12	0.000000e+00	8.139534e-01	6.547431e+13	1.146167e+14	3.618349e+13	7.723907e+03	2.496906e+03	2.196385e+03	0	4.309830e-04
4.400000e+08	3.160312e+12	0.000000e+00	8.139534e-01	6.514408e+13	1.136836e+14	3.599982e+13	7.718112e+03	2.494613e+03	2.194368e+03	0	4.299880e-04
4.500000e+08	3.138633e+12	0.000000e+00	8.139534e-01	6.481837e+13	1.127815e+14	3.581747e+13	7.712347e+03	2.492392e+03	2.192415e+03	0	4.290025e-04
4.600000e+08	3.117252e+12	0.000000e+00	8.139534e-01	6.449703e+13	1.119083e+14	3.563643e+13	7.706610e+03	2.490241e+03	2.190523e+03	0	4.280261e-04
4.700000e+08	3.096159e+12	0.000000e+00	8.139534e-01	6.417988e+13	1.110624e+14	3.545669e+13	7.700901e+03	2.488155e+03	2.188688e+03	0	4.270585e-04
4.800000e+08	3.075343e+12	0.000000e+00	8.139534e-01	6.386677e+13	1.102421e+14	3.527823e+13	7.695221e+03	2.486131e+03	2.186907e+03	0	4.260993e-04
4.900000e+08	3.054793e+12	0.000000e+00	8.139534e-01	6.355756e+13	1.094459e+14	3.510106e+13	7.689568e+03	2.484164e+03	2.185176e+03	0	4.251481e-04
5.000000e+08	3.034502e+12	0.000000e+00	8.139534e-01	6.325213e+13	1.086723e+14	3.492515e+13	7.683942e+03	2.482251e+03	2.183494e+03	0	4.242047e-04
5.100000e+08	3.014460e+12	0.000000e+00	8.139534e-01	6.295033e+13	1.079200e+14	3.475049e+13	7.678344e+03	2.480390e+03	2.181857e+03	0	4.232687e-04
5.200000e+08	2.994659e+12	0.000000e+00	8.139534e-01	6.265207e+13	1.071878e+14	3.457709e+13	7.672772e+03	2.478577e+03	2.180262e+03	0	4.223399e-04
5.300000e+08	2.975092e+12	0.000000e+00	8.139534e-01	6.235722e+13	1.064747e+14	3.440492e+13	7.667226e+03	2.476810e+03	2.178708e+03	0	4.214180e-04
5.400000e+08	2.955750e+12	0.000000e+00	8.139534e-01	6.206567e+13	1.057795e+14	3.423397e+13	7.661707e+03	2.475086e+03	2.177191e+03	0	4.205028e-04
5.500000e+08	2.936628e+12	0.000000e+00	8.139534e-01	6.177734e+13	1.051013e+14	3.406424e+13	7.656213e+03	2.473403e+03	2.175711e+03	0	4.195940e-04
5.600000e+08	2.917719e+12	0.000000e+00	8.139534e-01	6.149212e+13	1.044392e+14	3.389572e+13	7.650745e+03	2.471759e+03	2.174264e+03	0	4.186915e-04
5.700000e+08	2.899016e+12	0.000000e+00	8.139534e-01	6.120994e+13	1.037923e+14	3.372840e+13	7.645302e+03	2.470151e+03	2.172850e+03	0	4.177949e-04
5.800000e+08	2.880514e+12	0.000000e+00	8.139534e-01	6.093069e+13	1.031599e+14	3.356226e+13	7.639884e+03	2.468578e+03	2.171467e+03	0	4.169042e-04
5.900000e+08	2.862207e+12	0.000000e+00	8.139534e-01	6.065431e+13	1.025412e+14	3.339730e+13	7.634491e+03	2.467038e+03	2.170112e+03	0	4.160192e-04
6.000000e+08	2.844091e+12	0.000000e+00	8.139534e-01	6.038073e+13	1.019355e+14	3.323351e+13	7.629122e+03	2.465529e+03	2.168785e+03	0	4.151396e-04
6.100000e+08	2.826160e+12	0.000000e+00	8.139534e-01	6.010986e+13	1.013422e+14	3.307088e+13	7.623777e+03	2.464050e+03	2.167484e+03	0	4.142653e-04
6.200000e+08	2.808409e+12	0.000000e+00	8.139534e-01	5.984164e+13	1.007607e+14	3.290939e+13	7.618456e+03	2.462599e+03	2.166207e+03	0	4.133961e-04
6.300000e+08	2.790834e+12	0.000000e+00	8.139534e-01	5.957600e+13	1.001905e+14	3.274905e+13	7.613159e+03	2.461175e+03	2.164954e+03	0	4.125320e-04
6.400000e+08	2.773432e+12	0.000000e+00	8.139534e-01	5.931289e+13	9.963096e+13	3.258984e+13	7.607886e+03	2.459775e+03	2.163724e+03	0	4.116728e-04
6.500000e+08	2.756197e+12	0.000000e+00	8.139534e-01	5.905224e+13	9.908167e+13	3.243174e+13	7.602635e+03	2.458401e+03	2.162514e+03	0	4.108182e-04
6.600000e+08	2.739125e+12	0.000000e+00	8.139534e-01	5.879401e+13	9.854215e+13	3.227477e+13	7.597408e+03	2.457049e+03	2.161325e+03	0	4.099683e-04
6.700000e+08	2.722214e+12	0.000000e+00	8.139534e-01	5.853813e+13	9.801196e+13	3.211889e+13	7.592204e+03	2.455719e+03	2.160155e+03	0	4.091229e-04
6.800000e+08	2.705460e+12	0.000000e+00	8.139534e-01	5.828455e+13	9.749071e+13	3.196411e+13	7.587022e+03	2.454409e+03	2.159003e+03	0	4.082818e-04
6.900000e+08	2.688859e+12	0.000000e+00	8.139534e-01	5.803324e+13	9.697801e+13	3.181041e+13	7.581862e+03	2.453120e+03	2.157869e+03	0	4.074450e-04
7.000000e+08	2.672409e+12	0.000000e+00	8.139534e-01	5.778413e+13	9.647351e+13	3.165780e+13	7.576725e+03	2.451850e+03	2.156752e+03	0	4.066124e-04
7.100000e+08	2.656105e+12	0.000000e+00	8.139534e-01	5.753719e+13	9.597686e+13	3.150625e+13	7.571610e+03	2.450598e+03	2.155650e+03	0	4.057838e-04
7.200000e+08	2.639946e+12	0.000000e+00	8.139534e-01	5.729237e+13	9.548777e+13	3.135576e+13	7.566516e+03	2.449363e+03	2.154564e+03	0	4.049592e-04
7.300000e+08	2.623927e+12	0.000000e+00	8.139534e-01	5.704964e+13	9.500591e+13	3.120632e+13	7.561445e+03	2.448144e+03	2.153492e+03	0	4.041385e-04
7.400000e+08	2.608048e+12	0.000000e+00	8.139534e-01	5.680895e+13	9.453103e+13	3.105793e+13	7.556394e+03	2.446942e+03	2.152434e+03	0	4.033216e-04
7.500000e+08	2.592305e+12	0.000000e+00	8.139534e-01	5.657026e+13	9.406285e+13	3.091057e+13	7.551365e+03	2.445754e+03	2.151390e+03	0	4.025084e-04
7.600000e+08	2.576695e+12	0.000000e+00	8.139534e-01	5.633355e+13	9.360112e+13	3.076423e+13	7.546358e+03	2.444581e+03	2.150358e+03	0	4.016989e-04
7.700000e+08	2.561216e+12	0.000000e+00	8.139534e-01	5.609876e+13	9.314561e+13	3.061892e+13	7.541371e+03	2.443422e+03	2.149338e+03	0	4.008929e-04
7.800000e+08	2.545866e+12	0.000000e+00	8.139534e-01	5.586588e+13	9.269610e+13	3.047461e+13	7.536404e+03	2.442276e+03	2.148330e+03	0	4.000904e-04
7.900000e+08	2.530643e+12	0.000000e+00	8.139534e-01	5.563487e+13	9.225238e+13	3.033131e+13	7.531459e+03	2.441143e+03	2.147334e+03	0	3.992914e-04
8.000000e+08	2.515544e+12	0.000000e+00	8.139534e-01	5.540570e+13	9.181424e+13	3.018900e+13	7.526534e+03	2.440022e+03	2.146348e+03	0	3.984957e-04
8.100000e+08	2.500568e+12	0.000000e+00	8.139534e-01	5.517833e+13	9.138151e+13	3.004768e+13	7.521629e+03	2.438913e+03	2.145372e+03	0	3.977033e-04
8.200000e+08	2.485712e+12	0.000000e+00	8.139534e-01	5.495275e+13	9.095400e+13	2.990733e+13	7.516744e+03	2.437815e+03	2.144406e+03	0	3.969142e-04
8.300000e+08	2.470975e+12	0.000000e+00	8.139534e-01	5.472891e+13	9.053155e+13	2.976796e+13	7.511879e+03	2.436728e+03	2.143450e+03	0	3.961282e-04
8.400000e+08	2.456354e+12	0.000000e+00	8.139534e-01	5.450680e+13	9.011400e+13	2.962955e+13	7.507034e+03	2.435651e+03	2.142503e+03	0	3.953454e-04
8.500000e+08	2.441849e+12	0.000000e+00	8.139534e-01	5.428639e+13	8.970119e+13	2.949209e+13	7.502208e+03	2.434585e+03	2.141565e+03	0	3.945656e-04
8.600000e+08	2.427456e+12	0.000000e+00	8.139534e-01	5.406765e+13	8.929299e+13	2.935558e+13	7.497402e+03	2.433528e+03	2.140635e+03	0	3.937889e-04
8.700000e+08	2.413175e+12	0.000000e+00	8.139534e-01	5.385056e+13	8.888925e+13	2.922001e+13	7.492616e+03	2.432481e+03	2.139714e+03	0	3.930151e-04
8.800000e+08	2.399004e+12	0.000000e+00	8.139534e-01	5.363509e+13	8.848985e+13	2.908537e+13	7.487848e+03	2.431442e+03	2.138800e+03	0	3.922443e-04
8.900000e+08	2.384941e+12	0.000000e+00	8.139534e-01	5.342122e+13	8.809467e+13	2.895166e+13	7.483100e+03	2.430412e+03	2.137895e+03	0	3.914763e-04
9.000000e+08	2.370985e+12	0.000000e+00	8.139534e-01	5.320894e+13	8.770359e+13	2.881886e+13	7.478370e+03	2.429391e+03	2.136996e+03	0	3.907112e-04
9.100000e+08	2.357134e+12	0.000000e+00	8.139534e-01	5.299821e+13	8.731650e+13	2.868698e+13	7.473660e+03	2.428378e+03	2.136105e+03	0	3.899489e-04
9.200000e+08	2.343387e+12	0.000000e+00	8.139534e-01	5.278901e+13	8.693329e+13	2.855600e+13	7.468967e+03	2.427372e+03	2.135220e+03	0	3.891894e-04
9.300000e+08	2.329742e+12	0.000000e+00	8.139534e-01	5.258134e+13	8.655387e+13	2.842591e+13	7.464294e+03	2.426375e+03	2.134343e+03	0	3.884325e-04
9.400000e+08	2.316198e+12	0.000000e+00	8.139534e-01	5.237516e+13	8.617813e+13	2.829672e+13	7.459639e+03	2.425384e+03	2.133471e+03	0	3.876783e-04
9.500000e+08	2.302754e+12	0.000000e+00	8.139534e-01	5.217045e+13	8.580599e+13	2.816840e+13	7.455002e+03	2.424401e+03	2.132606e+03	0	3.869268e-04
9.600000e+08	2.289409e+12	0.000000e+00	8.139534e-01	5.196721e+13	8.543736e+13	2.804097e+13	7.450383e+03	2.423424e+03	2.131748e+03	0	3.861779e-04
9.700000e+08	2.276161e+12	0.000000e+00	8.139534e-01	5.176540e+13	8.507216e+13	2.791439e+13	7.445782e+03	2.422455e+03	2.130895e+03	0	3.854316e-04
9.800000e+08	2.263008e+12	0.000000e+00	8.139534e-01	5.156502e+13	8.471030e+13	2.778868e+13	7.441199e+03	2.421491e+03	2.130047e+03	0	3.846877e-04
9.900000e+08	2.249951e+12	0.000000e+00	8.139534e-01	5.136604e+13	8.435171e+13	2.766383e+13	7.436633e+03	2.420535e+03	2.129206e+03	0	3.839464e-04
1.000000e+09	2.236987e+12	0.000000e+00	8.139534e-01	5.116845e+13	8.399632e+13	2.753982e+13	7.432086e+03	2.419584e+03	2.128369e+03	0	3.832076e-04
1.010000e+09	2.224115e+12	0.000000e+00	8.139534e-01	5.097223e+13	8.364406e+13	2.741665e+13	7.427555e+03	2.418639e+03	2.127538e+03	0	3.824712e-04
1.020000e+09	2.211335e+12	0.000000e+00	8.139534e-01	5.077736e+13	8.329487e+13	2.729432e+13	7.423042e+03	2.417700e+03	2.126712e+03	0	3.817372e-04
1.030000e+09	2.198645e+12	0.000000e+00	8.139534e-01	5.058384e+13	8.294867e+13	2.717282e+13	7.418547e+03	2.416767e+03	2.125891e+03	0	3.810056e-04
1.040000e+09	2.186044e+12	0.000000e+00	8.139534e-01	5.039164e+13	8.260541e+13	2.705213e+13	7.414068e+03	2.415839e+03	2.125075e+03	0	3.802763e-04
1.050000e+09	2.173532e+12	0.000000e+00	8.139534e-01	5.020074e+13	8.226504e+13	2.693226e+13	7.409606e+03	2.414916e+03	2.124263e+03	0	3.795494e-04
1.060000e+09	2.161107e+12	0.000000e+00	8.139534e-01	5.001114e+13	8.192748e+13	2.681320e+13	7.405162e+03	2.413999e+03	2.123457e+03	0	3.788248e-04
1.070000e+09	2.148767e+12	0.000000e+00	8.139534e-01	4.982282e+13	8.159270e+13	2.669495e+13	7.400734e+03	2.413087e+03	2.122654e+03	0	3.781024e-04
1.080000e+09	2.136514e+12	0.000000e+00	8.139534e-01	4.963576e+13	8.126063e+13	2.657748e+13	7.396322e+03	2.412180e+03	2.121856e+03	0	3.773823e-04
1.090000e+09	2.124344e+12	0.000000e+00	8.139534e-01	4.944995e+13	8.093123e+13	2.646081e+13	7.391928e+03	2.411277e+03	2.121062e+03	0	3.766644e-04
1.100000e+09	2.112258e+12	0.000000e+00	8.139534e-01	4.926539e+13	8.060446e+13	2.634492e+13	7.387549e+03	2.410380e+03	2.120273e+03	0	3.759487e-04
1.110000e+09	2.100254e+12	0.000000e+00	8.139534e-01	4.908204e+13	8.028025e+13	2.622981e+13	7.383187e+03	2.409487e+03	2.119488e+03	0	3.752352e-04
1.120000e+09	2.088332e+12	0.000000e+00	8.139534e-01	4.889991e+13	7.995858e+13	2.611547e+13	7.378842e+03	2.408599e+03	2.118706e+03	0	3.745238e-04
1.130000e+09	2.076490e+12	0.000000e+00	8.139534e-01	4.871897e+13	7.963940e+13	2.600189e+13	7.374512e+03	2.407715e+03	2.117929e+03	0	3.738146e-04
1.140000e+09	2.064728e+12	0.000000e+00	8.139534e-01	4.853922e+13	7.932266e+13	2.588908e+13	7.370198e+03	2.406835e+03	2.117155e+03	0	3.731075e-04
1.150000e+09	2.053046e+12	0.000000e+00	8.139534e-01	4.836065e+13	7.900833e+13	2.577701e+13	7.365900e+03	2.405960e+03	2.116385e+03	0	3.724024e-04
1.160000e+09	2.041441e+12	0.000000e+00	8.139534e-01	4.818323e+13	7.869636e+13	2.566570e+13	7.361618e+03	2.405089e+03	2.115619e+03	0	3.716995e-04
1.170000e+09	2.029914e+12	0.000000e+00	8.139534e-01	4.800697e+13	7.838673e+13	2.555512e+13	7.357352e+03	2.404222e+03	2.114856e+03	0	3.709985e-04
1.180000e+09	2.018463e+12	0.000000e+00	8.139534e-01	4.783184e+13	7.807940e+13	2.544528e+13	7.353101e+03	2.403359e+03	2.114097e+03	0	3.702996e-04
1.190000e+09	2.007088e+12	0.000000e+00	8.139534e-01	4.765784e+13	7.777432e+13	2.533618e+13	7.348866e+03	2.402500e+03	2.113341e+03	0	3.696027e-04
1.200000e+09	1.995788e+12	0.000000e+00	8.139534e-01	4.748496e+13	7.747147e+13	2.522779e+13	7.344646e+03	2.401645e+03	2.112589e+03	0	3.689078e-04
1.210000e+09	1.984563e+12	0.000000e+00	8.139534e-01	4.731318e+13	7.717082e+13	2.512013e+13	7.340442e+03	2.400793e+03	2.111840e+03	0	3.682148e-04
1.220000e+09	1.973411e+12	0.000000e+00	8.139534e-01	4.714249e+13	7.687233e+13	2.501317e+13	7.336252e+03	2.399946e+03	2.111095e+03	0	3.675238e-04
1.230000e+09	1.962331e+12	0.000000e+00	8.139534e-01	4.697289e+13	7.657597e+13	2.490693e+13	7.332078e+03	2.399102e+03	2.110353e+03	0	3.668347e-04
1.240000e+09	1.951324e+12	0.000000e+00	8.139534e-01	4.680435e+13	7.628172e+13	2.480139e+13	7.327919e+03	2.398262e+03	2.109613e+03	0	3.661475e-04
1.250000e+09	1.940388e+12	0.000000e+00	8.139534e-01	4.663688e+13	7.598954e+13	2.469654e+13	7.323774e+03	2.397425e+03	2.108878e+03	0	3.654622e-04
1.260000e+09	1.929523e+12	0.000000e+00	8.139534e-01	4.647046e+13	7.569941e+13	2.459239e+13	7.319645e+03	2.396592e+03	2.108145e+03	0	3.647788e-04
1.270000e+09	1.918728e+12	0.000000e+00	8.139534e-01	4.630509e+13	7.541130e+13	2.448892e+13	7.315530e+03	2.395762e+03	2.107415e+03	0	3.640973e-04
1.280000e+09	1.908002e+12	0.000000e+00	8.139534e-01	4.614074e+13	7.512518e+13	2.438613e+13	7.311430e+03	2.394936e+03	2.106688e+03	0	3.634176e-04
1.290000e+09	1.897345e+12	0.000000e+00	8.139534e-01	4.597742e+13	7.484103e+13	2.428402e+13	7.307344e+03	2.394113e+03	2.105964e+03	0	3.627397e-04
1.300000e+09	1.886756e+12	0.000000e+00	8.139534e-01	4.581511e+13	7.455883e+13	2.418258e+13	7.303273e+03	2.393294e+03	2.105243e+03	0	3.620636e-04
1.310000e+09	1.876234e+12	0.000000e+00	8.139534e-01	4.565380e+13	7.427855e+13	2.408180e+13	7.299216e+03	2.392477e+03	2.104525e+03	0	3.613893e-04
1.320000e+09	1.865779e+12	0.000000e+00	8.139534e-01	4.549348e+13	7.400016e+13	2.398169e+13	7.295173e+03	2.391664e+03	2.103810e+03	0	3.607168e-04
1.330000e+09	1.855390e+12	0.000000e+00	8.139534e-01	4.533415e+13	7.372365e+13	2.388223e+13	7.291145e+03	2.390854e+03	2.103097e+03	0	3.600460e-04
1.340000e+09	1.845066e+12	0.000000e+00	8.139534e-01	4.517580e+13	7.344898e+13	2.378341e+13	7.287131e+03	2.390047e+03	2.102388e+03	0	3.593770e-04
1.350000e+09	1.834808e+12	0.000000e+00	8.139534e-01	4.501841e+13	7.317615e+13	2.368525e+13	7.283130e+03	2.389244e+03	2.101681e+03	0	3.587097e-04
1.360000e+09	1.824614e+12	0.000000e+00	8.139534e-01	4.486198e+13	7.290513e+13	2.358772e+13	7.279144e+03	2.388443e+03	2.100976e+03	0	3.580442e-04
