#t		Qconv[W]	Ri[Rp]		R*[Rp]		Qc[W]		Qm[W]		Qr[W]		Tcmb[K]		Tl[K]		Tup[K]		RiFlag		Bs[T]
0.000000e+00	5.564009e+12	0.000000e+00	8.139536e-01	1.006671e+14	3.579446e+14	4.887639e+13	8.352271e+03	2.968057e+03	2.600755e+03	0	5.180360e-04
1.000000e+07	5.450986e+12	0.000000e+00	8.139536e-01	9.910375e+13	3.326200e+14	4.860558e+13	8.344026e+03	2.934813e+03	2.571626e+03	0	5.145043e-04
2.000000e+07	5.347151e+12	0.000000e+00	8.139536e-01	9.766587e+13	3.111221e+14	4.833680e+13	8.335908e+03	2.905228e+03	2.545702e+03	0	5.112164e-04
3.000000e+07	5.251239e+12	0.000000e+00	8.139536e-01	9.633621e+13	2.926843e+14	4.807002e+13	8.327908e+03	2.878741e+03	2.522492e+03	0	5.081414e-04
4.000000e+07	5.162212e+12	0.000000e+00	8.139536e-01	9.510061e+13	2.767270e+14	4.780524e+13	8.320017e+03	2.854899e+03	2.501601e+03	0	5.052534e-04
5.000000e+07	5.079207e+12	0.000000e+00	8.139536e-01	9.394730e+13	2.628044e+14	4.754243e+13	8.312227e+03	2.833338e+03	2.482708e+03	0	5.025308e-04
6.000000e+07	5.001502e+12	0.000000e+00	8.139536e-01	9.286643e+13	2.505689e+14	4.728157e+13	8.304531e+03	2.813756e+03	2.465550e+03	0	4.999549e-04
7.000000e+07	4.928488e+12	0.000000e+00	8.139536e-01	9.184969e+13	2.397457e+14	4.702266e+13	8.296924e+03	2.795903e+03	2.449905e+03	0	4.975101e-04
8.000000e+07	4.859648e+12	0.000000e+00	8.139536e-01	9.089001e+13	2.301149e+14	4.676568e+13	8.289399e+03	2.779568e+03	2.435592e+03	0	4.951829e-04
9.000000e+07	4.794537e+12	0.000000e+00	8.139536e-01	8.998135e+13	2.214989e+14	4.651061e+13	8.281953e+03	2.764576e+03	2.422455e+03	0	4.929614e-04
1.000000e+08	4.732775e+12	0.000000e+00	8.139536e-01	8.911849e+13	2.137526e+14	4.625743e+13	8.274582e+03	2.750774e+03	2.410362e+03	0	4.908355e-04
1.100000e+08	4.674031e+12	0.000000e+00	8.139536e-01	8.829694e+13	2.067565e+14	4.600613e+13	8.267281e+03	2.738034e+03	2.399199e+03	0	4.887962e-04
1.200000e+08	4.618018e+12	0.000000e+00	8.139536e-01	8.751277e+13	2.004113e+14	4.575669e+13	8.260047e+03	2.726245e+03	2.388868e+03	0	4.868358e-04
1.300000e+08	4.564484e+12	0.000000e+00	8.139536e-01	8.676255e+13	1.946341e+14	4.550910e+13	8.252877e+03	2.715309e+03	2.379285e+03	0	4.849473e-04
1.400000e+08	4.513208e+12	0.000000e+00	8.139536e-01	8.604325e+13	1.893549e+14	4.526335e+13	8.245769e+03	2.705142e+03	2.370377e+03	0	4.831246e-04
1.500000e+08	4.463996e+12	0.000000e+00	8.139536e-01	8.535222e+13	1.845143e+14	4.501940e+13	8.238720e+03	2.695670e+03	2.362077e+03	0	4.813622e-04
1.600000e+08	4.416675e+12	0.000000e+00	8.139536e-01	8.468711e+13	1.800618e+14	4.477726e+13	8.231727e+03	2.686829e+03	2.354329e+03	0	4.796552e-04
1.700000e+08	4.371091e+12	0.000000e+00	8.139536e-01	8.404581e+13	1.759541e+14	4.453691e+13	8.224788e+03	2.678560e+03	2.347084e+03	0	4.779993e-04
1.800000e+08	4.327107e+12	0.000000e+00	8.139536e-01	8.342645e+13	1.721537e+14	4.429833e+13	8.217902e+03	2.670812e+03	2.340295e+03	0	4.763906e-04
1.900000e+08	4.284601e+12	0.000000e+00	8.139536e-01	8.282736e+13	1.686282e+14	4.406151e+13	8.211066e+03	2.663541e+03	2.333924e+03	0	4.748256e-04
2.000000e+08	4.243463e+12	0.000000e+00	8.139536e-01	8.224704e+13	1.653494e+14	4.382643e+13	8.204280e+03	2.656706e+03	2.327935e+03	0	4.733011e-04
2.100000e+08	4.203594e+12	0.000000e+00	8.139536e-01	8.168414e+13	1.622928e+14	4.359308e+13	8.197541e+03	2.650270e+03	2.322295e+03	0	4.718141e-04
2.200000e+08	4.164905e+12	0.000000e+00	8.139536e-01	8.113743e+13	1.594367e+14	4.336144e+13	8.190848e+03	2.644201e+03	2.316978e+03	0	4.703621e-04
2.300000e+08	4.127314e+12	0.000000e+00	8.139536e-01	8.060582e+13	1.567620e+14	4.313150e+13	8.184200e+03	2.638470e+03	2.311955e+03	0	4.689428e-04
2.400000e+08	4.090748e+12	0.000000e+00	8.139536e-01	8.008830e+13	1.542521e+14	4.290325e+13	8.177595e+03	2.633049e+03	2.307206e+03	0	4.675538e-04
2.500000e+08	4.055142e+12	0.000000e+00	8.139536e-01	7.958395e+13	1.518920e+14	4.267667e+13	8.171033e+03	2.627916e+03	2.302707e+03	0	4.661933e-04
2.600000e+08	4.020433e+12	0.000000e+00	8.139536e-01	7.909196e+13	1.496684e+14	4.245174e+13	8.164512e+03	2.623047e+03	2.298441e+03	0	4.648594e-04
2.700000e+08	3.986567e+12	0.000000e+00	8.139536e-01	7.861156e+13	1.475696e+14	4.222847e+13	8.158031e+03	2.618424e+03	2.294390e+03	0	4.635505e-04
2.800000e+08	3.953494e+12	0.000000e+00	8.139536e-01	7.814207e+13	1.455850e+14	4.200682e+13	8.151589e+03	2.614028e+03	2.290539e+03	0	4.622650e-04
2.900000e+08	3.921166e+12	0.000000e+00	8.139536e-01	7.768284e+13	1.437051e+14	4.178679e+13	8.145186e+03	2.609843e+03	2.286871e+03	0	4.610016e-04
3.000000e+08	3.889542e+12	0.000000e+00	8.139536e-01	7.723330e+13	1.419215e+14	4.156836e+13	8.138820e+03	2.605854e+03	2.283376e+03	0	4.597589e-04
3.100000e+08	3.858582e+12	0.000000e+00	8.139536e-01	7.679292e+13	1.402264e+14	4.135153e+13	8.132492e+03	2.602047e+03	2.280040e+03	0	4.585358e-04
3.200000e+08	3.828250e+12	0.000000e+00	8.139536e-01	7.636119e+13	1.386129e+14	4.113627e+13	8.126199e+03	2.598410e+03	2.276852e+03	0	4.573311e-04
3.300000e+08	3.798513e+12	0.000000e+00	8.139536e-01	7.593767e+13	1.370749e+14	4.092258e+13	8.119941e+03	2.594930e+03	2.273803e+03	0	4.561439e-04
3.400000e+08	3.769341e+12	0.000000e+00	8.139536e-01	7.552194e+13	1.356066e+14	4.071044e+13	8.113719e+03	2.591597e+03	2.270883e+03	0	4.549732e-04
3.500000e+08	3.740704e+12	0.000000e+00	8.139536e-01	7.511361e+13	1.342028e+14	4.049984e+13	8.107530e+03	2.588402e+03	2.268083e+03	0	4.538181e-04
3.600000e+08	3.712578e+12	0.000000e+00	8.139536e-01	7.471231e+13	1.328589e+14	4.029077e+13	8.101374e+03	2.585335e+03	2.265396e+03	0	4.526778e-04
3.700000e+08	3.684937e+12	0.000000e+00	8.139536e-01	7.431773e+13	1.315707e+14	4.008321e+13	8.095252e+03	2.582388e+03	2.262813e+03	0	4.515516e-04
3.800000e+08	3.657758e+12	0.000000e+00	8.139536e-01	7.392954e+13	1.303341e+14	3.987715e+13	8.089162e+03	2.579553e+03	2.260329e+03	0	4.504387e-04
3.900000e+08	3.631022e+12	0.000000e+00	8.139536e-01	7.354747e+13	1.291457e+14	3.967258e+13	8.083103e+03	2.576823e+03	2.257938e+03	0	4.493385e-04
4.000000e+08	3.604709e+12	0.000000e+00	8.139536e-01	7.317124e+13	1.280022e+14	3.946949e+13	8.077076e+03	2.574192e+03	2.255632e+03	0	4.482504e-04
4.100000e+08	3.578799e+12	0.000000e+00	8.139536e-01	7.280061e+13	1.269006e+14	3.926786e+13	8.071079e+03	2.571653e+03	2.253407e+03	0	4.471739e-04
4.200000e+08	3.553277e+12	0.000000e+00	8.139536e-01	7.243534e+13	1.258381e+14	3.906769e+13	8.065113e+03	2.569201e+03	2.251259e+03	0	4.461084e-04
4.300000e+08	3.528126e+12	0.000000e+00	8.139536e-01	7.207522e+13	1.248122e+14	3.886896e+13	8.059177e+03	2.566831e+03	2.249182e+03	0	4.450533e-04
4.400000e+08	3.503333e+12	0.000000e+00	8.139536e-01	7.172004e+13	1.238206e+14	3.867166e+13	8.053270e+03	2.564537e+03	2.247171e+03	0	4.440083e-04
4.500000e+08	3.478882e+12	0.000000e+00	8.139536e-01	7.136962e+13	1.228612e+14	3.847577e+13	8.047393e+03	2.562315e+03	2.245224e+03	0	4.429730e-04
4.600000e+08	3.454760e+12	0.000000e+00	8.139536e-01	7.102378e+13	1.219319e+14	3.828130e+13	8.041544e+03	2.560160e+03	2.243337e+03	0	4.419468e-04
4.700000e+08	3.430957e+12	0.000000e+00	8.139536e-01	7.068234e+13	1.210309e+14	3.808821e+13	8.035723e+03	2.558070e+03	2.241505e+03	0	4.409294e-04
4.800000e+08	3.407460e+12	0.000000e+00	8.139536e-01	7.034516e+13	1.201566e+14	3.789651e+13	8.029930e+03	2.556039e+03	2.239726e+03	0	4.399206e-04
4.900000e+08	3.384259e+12	0.000000e+00	8.139536e-01	7.001209e+13	1.193074e+14	3.770619e+13	8.024165e+03	2.554066e+03	2.237996e+03	0	4.389198e-04
5.000000e+08	3.361343e+12	0.000000e+00	8.139536e-01	6.968299e+13	1.184818e+14	3.751722e+13	8.018427e+03	2.552145e+03	2.236313e+03	0	4.379269e-04
5.100000e+08	3.338703e+12	0.000000e+00	8.139536e-01	6.935772e+13	1.176785e+14	3.732961e+13	8.012716e+03	2.550275e+03	2.234675e+03	0	4.369415e-04
5.200000e+08	3.316331e+12	0.000000e+00	8.139536e-01	6.903617e+13	1.168963e+14	3.714333e+13	8.007032e+03	2.548453e+03	2.233078e+03	0	4.359633e-04
5.300000e+08	3.294217e+12	0.000000e+00	8.139536e-01	6.871823e+13	1.161339e+14	3.695838e+13	8.001374e+03	2.546676e+03	2.231521e+03	0	4.349922e-04
5.400000e+08	3.272354e+12	0.000000e+00	8.139536e-01	6.840378e+13	1.153903e+14	3.677475e+13	7.995742e+03	2.544942e+03	2.230001e+03	0	4.340277e-04
5.500000e+08	3.250735e+12	0.000000e+00	8.139536e-01	6.809271e+13	1.146645e+14	3.659242e+13	7.990135e+03	2.543247e+03	2.228517e+03	0	4.330698e-04
5.600000e+08	3.229352e+12	0.000000e+00	8.139536e-01	6.778494e+13	1.139556e+14	3.641140e+13	7.984554e+03	2.541591e+03	2.227066e+03	0	4.321181e-04
5.700000e+08	3.208198e+12	0.000000e+00	8.139536e-01	6.748037e+13	1.132627e+14	3.623165e+13	7.978999e+03	2.539972e+03	2.225646e+03	0	4.311725e-04
5.800000e+08	3.187267e+12	0.000000e+00	8.139536e-01	6.717891e+13	1.125849e+14	3.605319e+13	7.973468e+03	2.538386e+03	2.224257e+03	0	4.302328e-04
5.900000e+08	3.166554e+12	0.000000e+00	8.139536e-01	6.688048e+13	1.119216e+14	3.587598e+13	7.967962e+03	2.536833e+03	2.222896e+03	0	4.292988e-04
6.000000e+08	3.146052e+12	0.000000e+00	8.139536e-01	6.658500e+13	1.112720e+14	3.570004e+13	7.962480e+03	2.535311e+03	2.221562e+03	0	4.283702e-04
6.100000e+08	3.125756e+12	0.000000e+00	8.139536e-01	6.629240e+13	1.106354e+14	3.552533e+13	7.957023e+03	2.533818e+03	2.220254e+03	0	4.274471e-04
6.200000e+08	3.105660e+12	0.000000e+00	8.139536e-01	6.600261e+13	1.100113e+14	3.535186e+13	7.951589e+03	2.532353e+03	2.218970e+03	0	4.265291e-04
6.300000e+08	3.085761e+12	0.000000e+00	8.139536e-01	6.571555e+13	1.093990e+14	3.517962e+13	7.946180e+03	2.530914e+03	2.217710e+03	0	4.256162e-04
6.400000e+08	3.066053e+12	0.000000e+00	8.139536e-01	6.543116e+13	1.087979e+14	3.500859e+13	7.940793e+03	2.529501e+03	2.216471e+03	0	4.247081e-04
6.500000e+08	3.046532e+12	0.000000e+00	8.139536e-01	6.514939e+13	1.082077e+14	3.483876e+13	7.935430e+03	2.528111e+03	2.215254e+03	0	4.238048e-04
6.600000e+08	3.027193e+12	0.000000e+00	8.139536e-01	6.487018e+13	1.076278e+14	3.467013e+13	7.930090e+03	2.526745e+03	2.214056e+03	0	4.229062e-04
6.700000e+08	3.008033e+12	0.000000e+00	8.139536e-01	6.459346e+13	1.070578e+14	3.450269e+13	7.924773e+03	2.525400e+03	2.212878e+03	0	4.220121e-04
6.800000e+08	2.989048e+12	0.000000e+00	8.139536e-01	6.431919e+13	1.064972e+14	3.433642e+13	7.919479e+03	2.524075e+03	2.211717e+03	0	4.211223e-04
6.900000e+08	2.970233e+12	0.000000e+00	8.139536e-01	6.404731e+13	1.059457e+14	3.417132e+13	7.914207e+03	2.522771e+03	2.210574e+03	0	4.202369e-04
7.000000e+08	2.951586e+12	0.000000e+00	8.139536e-01	6.377778e+13	1.054028e+14	3.400738e+13	7.908957e+03	2.521485e+03	2.209448e+03	0	4.193556e-04
7.100000e+08	2.933103e+12	0.000000e+00	8.139536e-01	6.351055e+13	1.048682e+14	3.384458e+13	7.903730e+03	2.520218e+03	2.208337e+03	0	4.184785e-04
7.200000e+08	2.914781e+12	0.000000e+00	8.139536e-01	6.324558e+13	1.043417e+14	3.368292e+13	7.898524e+03	2.518967e+03	2.207241e+03	0	4.176053e-04
7.300000e+08	2.896617e+12	0.000000e+00	8.139536e-01	6.298281e+13	1.038228e+14	3.352239e+13	7.893340e+03	2.517733e+03	2.206160e+03	0	4.167360e-04
7.400000e+08	2.878607e+12	0.000000e+00	8.139536e-01	6.272222e+13	1.033113e+14	3.336298e+13	7.888177e+03	2.516515e+03	2.205092e+03	0	4.158705e-04
7.500000e+08	2.860749e+12	0.000000e+00	8.139536e-01	6.246376e+13	1.028069e+14	3.320469e+13	7.883036e+03	2.515312e+03	2.204038e+03	0	4.150088e-04
7.600000e+08	2.843041e+12	0.000000e+00	8.139536e-01	6.220739e+13	1.023093e+14	3.304749e+13	7.877916e+03	2.514123e+03	2.202996e+03	0	4.141507e-04
7.700000e+08	2.825478e+12	0.000000e+00	8.139536e-01	6.195308e+13	1.018184e+14	3.289139e+13	7.872817e+03	2.512948e+03	2.201967e+03	0	4.132961e-04
7.800000e+08	2.808060e+12	0.000000e+00	8.139536e-01	6.170079e+13	1.013338e+14	3.273638e+13	7.867738e+03	2.511786e+03	2.200949e+03	0	4.124451e-04
7.900000e+08	2.790784e+12	0.000000e+00	8.139536e-01	6.145049e+13	1.008554e+14	3.258244e+13	7.862681e+03	2.510637e+03	2.199942e+03	0	4.115975e-04
8.000000e+08	2.773646e+12	0.000000e+00	8.139536e-01	6.120214e+13	1.003829e+14	3.242957e+13	7.857643e+03	2.509501e+03	2.198946e+03	0	4.107533e-04
8.100000e+08	2.756645e+12	0.000000e+00	8.139536e-01	6.095572e+13	9.991619e+13	3.227776e+13	7.852627e+03	2.508376e+03	2.197960e+03	0	4.099123e-04
8.200000e+08	2.739779e+12	0.000000e+00	8.139536e-01	6.071119e+13	9.945502e+13	3.212699e+13	7.847630e+03	2.507262e+03	2.196985e+03	0	4.090746e-04
8.300000e+08	2.723046e+12	0.000000e+00	8.139536e-01	6.046853e+13	9.899922e+13	3.197728e+13	7.842653e+03	2.506159e+03	2.196018e+03	0	4.082401e-04
8.400000e+08	2.706443e+12	0.000000e+00	8.139536e-01	6.022770e+13	9.854864e+13	3.182859e+13	7.837697e+03	2.505067e+03	2.195061e+03	0	4.074087e-04
8.500000e+08	2.689969e+12	0.000000e+00	8.139536e-01	5.998868e+13	9.810312e+13	3.168093e+13	7.832760e+03	2.503984e+03	2.194113e+03	0	4.065804e-04
8.600000e+08	2.673621e+12	0.000000e+00	8.139536e-01	5.975144e+13	9.766250e+13	3.153429e+13	7.827842e+03	2.502912e+03	2.193173e+03	0	4.057551e-04
8.700000e+08	2.657398e+12	0.000000e+00	8.139536e-01	5.951596e+13	9.722664e+13	3.138866e+13	7.822944e+03	2.501848e+03	2.192241e+03	0	4.049327e-04
8.800000e+08	2.641297e+12	0.000000e+00	8.139536e-01	5.928221e+13	9.679540e+13	3.124403e+13	7.818065e+03	2.500794e+03	2.191317e+03	0	4.041133e-04
8.900000e+08	2.625318e+12	0.000000e+00	8.139536e-01	5.905017e+13	9.636866e+13	3.110039e+13	7.813206e+03	2.499749e+03	2.190401e+03	0	4.032967e-04
9.000000e+08	2.609459e+12	0.000000e+00	8.139536e-01	5.881981e+13	9.594630e+13	3.095774e+13	7.808365e+03	2.498712e+03	2.189492e+03	0	4.024830e-04
9.100000e+08	2.593717e+12	0.000000e+00	8.139536e-01	5.859111e+13	9.552819e+13	3.081607e+13	7.803543e+03	2.497683e+03	2.188591e+03	0	4.016720e-04
9.200000e+08	2.578092e+12	0.000000e+00	8.139536e-01	5.836405e+13	9.511422e+13	3.067537e+13	7.798740e+03	2.496661e+03	2.187696e+03	0	4.008638e-04
9.300000e+08	2.562581e+12	0.000000e+00	8.139536e-01	5.813861e+13	9.470430e+13	3.053563e+13	7.793956e+03	2.495648e+03	2.186808e+03	0	4.000582e-04
9.400000e+08	2.547184e+12	0.000000e+00	8.139536e-01	5.791476e+13	9.429831e+13	3.039684e+13	7.789190e+03	2.494642e+03	2.185926e+03	0	3.992554e-04
9.500000e+08	2.531898e+12	0.000000e+00	8.139536e-01	5.769249e+13	9.389616e+13	3.025901e+13	7.784442e+03	2.493643e+03	2.185051e+03	0	3.984551e-04
9.600000e+08	2.516722e+12	0.000000e+00	8.139536e-01	5.747177e+13	9.349776e+13	3.012211e+13	7.779712e+03	2.492651e+03	2.184182e+03	0	3.976574e-04
9.700000e+08	2.501656e+12	0.000000e+00	8.139536e-01	5.725260e+13	9.310303e+13	2.998614e+13	7.775001e+03	2.491666e+03	2.183318e+03	0	3.968623e-04
9.800000e+08	2.486697e+12	0.000000e+00	8.139536e-01	5.703494e+13	9.271187e+13	2.985110e+13	7.770307e+03	2.490687e+03	2.182461e+03	0	3.960697e-04
9.900000e+08	2.471844e+12	0.000000e+00	8.139536e-01	5.681877e+13	9.232420e+13	2.971698e+13	7.765632e+03	2.489714e+03	2.181608e+03	0	3.952796e-04
1.000000e+09	2.457096e+12	0.000000e+00	8.139536e-01	5.660410e+13	9.193996e+13	2.958377e+13	7.760974e+03	2.488748e+03	2.180762e+03	0	3.944919e-04
1.010000e+09	2.442452e+12	0.000000e+00	8.139536e-01	5.639088e+13	9.155906e+13	2.945146e+13	7.756333e+03	2.487788e+03	2.179920e+03	0	3.937066e-04
1.020000e+09	2.427911e+12	0.000000e+00	8.139536e-01	5.617911e+13	9.118145e+13	2.932005e+13	7.751711e+03	2.486833e+03	2.179084e+03	0	3.929237e-04
1.030000e+09	2.413470e+12	0.000000e+00	8.139536e-01	5.596877e+13	9.080704e+13	2.918953e+13	7.747105e+03	2.485885e+03	2.178253e+03	0	3.921432e-04
1.040000e+09	2.399130e+12	0.000000e+00	8.139536e-01	5.575985e+13	9.043577e+13	2.905989e+13	7.742517e+03	2.484942e+03	2.177426e+03	0	3.913649e-04
1.050000e+09	2.384889e+12	0.000000e+00	8.139536e-01	5.555233e+13	9.006758e+13	2.893112e+13	7.737945e+03	2.484004e+03	2.176605e+03	0	3.905890e-04
1.060000e+09	2.370745e+12	0.000000e+00	8.139536e-01	5.534618e+13	8.970242e+13	2.880323e+13	7.733391e+03	2.483071e+03	2.175787e+03	0	3.898154e-04
1.070000e+09	2.356698e+12	0.000000e+00	8.139536e-01	5.514141e+13	8.934023e+13	2.867619e+13	7.728854e+03	2.482144e+03	2.174975e+03	0	3.890440e-04
1.080000e+09	2.342747e+12	0.000000e+00	8.139536e-01	5.493799e+13	8.898094e+13	2.855001e+13	7.724333e+03	2.481221e+03	2.174167e+03	0	3.882748e-04
1.090000e+09	2.328891e+12	0.000000e+00	8.139536e-01	5.473590e+13	8.862452e+13	2.842468e+13	7.719829e+03	2.480304e+03	2.173363e+03	0	3.875077e-04
1.100000e+09	2.315128e+12	0.000000e+00	8.139536e-01	5.453514e+13	8.827089e+13	2.830019e+13	7.715342e+03	2.479391e+03	2.172563e+03	0	3.867429e-04
1.110000e+09	2.301458e+12	0.000000e+00	8.139536e-01	5.433569e+13	8.792003e+13	2.817653e+13	7.710871e+03	2.478483e+03	2.171767e+03	0	3.859802e-04
1.120000e+09	2.287879e+12	0.000000e+00	8.139536e-01	5.413753e+13	8.757188e+13	2.805371e+13	7.706416e+03	2.477580e+03	2.170976e+03	0	3.852196e-04
1.130000e+09	2.274391e+12	0.000000e+00	8.139536e-01	5.394066e+13	8.722639e+13	2.793170e+13	7.701978e+03	2.476681e+03	2.170188e+03	0	3.844611e-04
1.140000e+09	2.260992e+12	0.000000e+00	8.139536e-01	5.374505e+13	8.688353e+13	2.781051e+13	7.697555e+03	2.475786e+03	2.169404e+03	0	3.837046e-04
1.150000e+09	2.247683e+12	0.000000e+00	8.139536e-01	5.355070e+13	8.654324e+13	2.769013e+13	7.693149e+03	2.474896e+03	2.168624e+03	0	3.829502e-04
1.160000e+09	2.234461e+12	0.000000e+00	8.139536e-01	5.335760e+13	8.620550e+13	2.757055e+13	7.688759e+03	2.474010e+03	2.167848e+03	0	3.821979e-04
1.170000e+09	2.221326e+12	0.000000e+00	8.139536e-01	5.316572e+13	8.587025e+13	2.745177e+13	7.684384e+03	2.473128e+03	2.167075e+03	0	3.814475e-04
1.180000e+09	2.208277e+12	0.000000e+00	8.139536e-01	5.297506e+13	8.553746e+13	2.733378e+13	7.680025e+03	2.472250e+03	2.166306e+03	0	3.806991e-04
1.190000e+09	2.195313e+12	0.000000e+00	8.139536e-01	5.278561e+13	8.520710e+13	2.721658e+13	7.675682e+03	2.471376e+03	2.165540e+03	0	3.799527e-04
1.200000e+09	2.182434e+12	0.000000e+00	8.139536e-01	5.259736e+13	8.487913e+13	2.710015e+13	7.671354e+03	2.470507e+03	2.164778e+03	0	3.792082e-04
1.210000e+09	2.169638e+12	0.000000e+00	8.139536e-01	5.241028e+13	8.455351e+13	2.698449e+13	7.667042e+03	2.469640e+03	2.164019e+03	0	3.784656e-04
1.220000e+09	2.156925e+12	0.000000e+00	8.139536e-01	5.222438e+13	8.423021e+13	2.686960e+13	7.662745e+03	2.468778e+03	2.163263e+03	0	3.777250e-04
1.230000e+09	2.144294e+12	0.000000e+00	8.139536e-01	5.203964e+13	8.390920e+13	2.675547e+13	7.658463e+03	2.467920e+03	2.162511e+03	0	3.769862e-04
1.240000e+09	2.131743e+12	0.000000e+00	8.139536e-01	5.185605e+13	8.359045e+13	2.664210e+13	7.654197e+03	2.467065e+03	2.161762e+03	0	3.762493e-04
1.250000e+09	2.119273e+12	0.000000e+00	8.139536e-01	5.167359e+13	8.327392e+13	2.652947e+13	7.649945e+03	2.466213e+03	2.161016e+03	0	3.755142e-04
1.260000e+09	2.106883e+12	0.000000e+00	8.139536e-01	5.149226e+13	8.295959e+13	2.641759e+13	7.645708e+03	2.465366e+03	2.160273e+03	0	3.747809e-04
1.270000e+09	2.094571e+12	0.000000e+00	8.139536e-01	5.131205e+13	8.264743e+13	2.630644e+13	7.641487e+03	2.464521e+03	2.159533e+03	0	3.740495e-04
1.280000e+09	2.082338e+12	0.000000e+00	8.139536e-01	5.113295e+13	8.233741e+13	2.619602e+13	7.637280e+03	2.463681e+03	2.158796e+03	0	3.733198e-04
1.290000e+09	2.070181e+12	0.000000e+00	8.139536e-01	5.095494e+13	8.202950e+13	2.608633e+13	7.633087e+03	2.462843e+03	2.158063e+03	0	3.725920e-04
1.300000e+09	2.058102e+12	0.000000e+00	8.139536e-01	5.077802e+13	8.172368e+13	2.597736e+13	7.628909e+03	2.462009e+03	2.157332e+03	0	3.718658e-04
1.310000e+09	2.046098e+12	0.000000e+00	8.139536e-01	5.060217e+13	8.141992e+13	2.586911e+13	7.624746e+03	2.461178e+03	2.156604e+03	0	3.711415e-04
1.320000e+09	2.034169e+12	0.000000e+00	8.139536e-01	5.042739e+13	8.111819e+13	2.576156e+13	7.620597e+03	2.460351e+03	2.155879e+03	0	3.704188e-04
1.330000e+09	2.022315e+12	0.000000e+00	8.139536e-01	5.025366e+13	8.081848e+13	2.565472e+13	7.616463e+03	2.459526e+03	2.155156e+03	0	3.696978e-04
1.340000e+09	2.010534e+12	0.000000e+00	8.139536e-01	5.008098e+13	8.052076e+13	2.554857e+13	7.612342e+03	2.458705e+03	2.154437e+03	0	3.689786e-04
1.350000e+09	1.998827e+12	0.000000e+00	8.139536e-01	4.990934e+13	8.022500e+13	2.544312e+13	7.608236e+03	2.457887e+03	2.153720e+03	0	3.682610e-04
1.360000e+09	1.987192e+12	0.000000e+00	8.139536e-01	4.973873e+13	7.993118e+13	2.533835e+13	7.604144e+03	2.457072e+03	2.153006e+03	0	3.675451e-04
