#t		Qconv[W]	Ri[Rp]		R*[Rp]		Qc[W]		Qm[W]		Qr[W]		Tcmb[K]		Tl[K]		Tup[K]		RiFlag		Bs[T]
0.000000e+00	1.093136e+15	0.000000e+00	8.160920e-01	1.371798e+16	1.579372e+15	5.433519e+13	2.810070e+04	3.625841e+03	2.614518e+03	0	2.966219e-03
1.000000e+07	1.012686e+15	0.000000e+00	8.160920e-01	1.271283e+16	8.561776e+15	5.403414e+13	2.718827e+04	5.001282e+03	3.606319e+03	0	2.891590e-03
2.000000e+07	9.259978e+14	0.000000e+00	8.160920e-01	1.163027e+16	1.119645e+16	5.373533e+13	2.634048e+04	5.343653e+03	3.853196e+03	0	2.806609e-03
3.000000e+07	8.481197e+14	0.000000e+00	8.160920e-01	1.065767e+16	1.122029e+16	5.343876e+13	2.556323e+04	5.381880e+03	3.880761e+03	0	2.725614e-03
4.000000e+07	7.791977e+14	0.000000e+00	8.160920e-01	9.796811e+15	1.055117e+16	5.314440e+13	2.484964e+04	5.340672e+03	3.851047e+03	0	2.649686e-03
5.000000e+07	7.181657e+14	0.000000e+00	8.160920e-01	9.034410e+15	9.780347e+15	5.285224e+13	2.419256e+04	5.281510e+03	3.808386e+03	0	2.578617e-03
6.000000e+07	6.639560e+14	0.000000e+00	8.160920e-01	8.357142e+15	9.052837e+15	5.256225e+13	2.358563e+04	5.220637e+03	3.764492e+03	0	2.512031e-03
7.000000e+07	6.156301e+14	0.000000e+00	8.160920e-01	7.753301e+15	8.395195e+15	5.227443e+13	2.302335e+04	5.162062e+03	3.722254e+03	0	2.449544e-03
8.000000e+07	5.723889e+14	0.000000e+00	8.160920e-01	7.212921e+15	7.805748e+15	5.198874e+13	2.250097e+04	5.106583e+03	3.682250e+03	0	2.390795e-03
9.000000e+07	5.335577e+14	0.000000e+00	8.160920e-01	6.727584e+15	7.277155e+15	5.170518e+13	2.201435e+04	5.054183e+03	3.644466e+03	0	2.335460e-03
1.000000e+08	4.985664e+14	0.000000e+00	8.160920e-01	6.290181e+15	6.801774e+15	5.142373e+13	2.155992e+04	5.004655e+03	3.608752e+03	0	2.283247e-03
1.100000e+08	4.669323e+14	0.000000e+00	8.160920e-01	5.894686e+15	6.372809e+15	5.114436e+13	2.113454e+04	4.957764e+03	3.574940e+03	0	2.233897e-03
1.200000e+08	4.382444e+14	0.000000e+00	8.160920e-01	5.535976e+15	5.984433e+15	5.086707e+13	2.073546e+04	4.913289e+03	3.542870e+03	0	2.187177e-03
1.300000e+08	4.121519e+14	0.000000e+00	8.160920e-01	5.209671e+15	5.631682e+15	5.059182e+13	2.036029e+04	4.871031e+03	3.512398e+03	0	2.142879e-03
1.400000e+08	3.883539e+14	0.000000e+00	8.160920e-01	4.912016e+15	5.310325e+15	5.031862e+13	2.000688e+04	4.830813e+03	3.483398e+03	0	2.100815e-03
1.500000e+08	3.665911e+14	0.000000e+00	8.160920e-01	4.639778e+15	5.016738e+15	5.004743e+13	1.967336e+04	4.792479e+03	3.455756e+03	0	2.060816e-03
1.600000e+08	3.466395e+14	0.000000e+00	8.160920e-01	4.390160e+15	4.747806e+15	4.977825e+13	1.935805e+04	4.755886e+03	3.429370e+03	0	2.022730e-03
1.700000e+08	3.283046e+14	0.000000e+00	8.160920e-01	4.160735e+15	4.500837e+15	4.951105e+13	1.905946e+04	4.720909e+03	3.404149e+03	0	1.986419e-03
1.800000e+08	3.114171e+14	0.000000e+00	8.160920e-01	3.949389e+15	4.273495e+15	4.924583e+13	1.877626e+04	4.687433e+03	3.380010e+03	0	1.951758e-03
1.900000e+08	2.958290e+14	0.000000e+00	8.160920e-01	3.754277e+15	4.063748e+15	4.898255e+13	1.850724e+04	4.655356e+03	3.356879e+03	0	1.918634e-03
2.000000e+08	2.814106e+14	0.000000e+00	8.160920e-01	3.573778e+15	3.869817e+15	4.872122e+13	1.825133e+04	4.624583e+03	3.334690e+03	0	1.886943e-03
2.100000e+08	2.680479e+14	0.000000e+00	8.160920e-01	3.406470e+15	3.690145e+15	4.846180e+13	1.800756e+04	4.595031e+03	3.313380e+03	0	1.856590e-03
2.200000e+08	2.556402e+14	0.000000e+00	8.160920e-01	3.251095e+15	3.523357e+15	4.820429e+13	1.777506e+04	4.566621e+03	3.292895e+03	0	1.827490e-03
2.300000e+08	2.440986e+14	0.000000e+00	8.160920e-01	3.106544e+15	3.368244e+15	4.794867e+13	1.755303e+04	4.539283e+03	3.273182e+03	0	1.799563e-03
2.400000e+08	2.333441e+14	0.000000e+00	8.160920e-01	2.971830e+15	3.223733e+15	4.769493e+13	1.734075e+04	4.512952e+03	3.254195e+03	0	1.772736e-03
2.500000e+08	2.233066e+14	0.000000e+00	8.160920e-01	2.846078e+15	3.088871e+15	4.744304e+13	1.713756e+04	4.487568e+03	3.235891e+03	0	1.746944e-03
2.600000e+08	2.139234e+14	0.000000e+00	8.160920e-01	2.728505e+15	2.962810e+15	4.719300e+13	1.694287e+04	4.463076e+03	3.218231e+03	0	1.722125e-03
2.700000e+08	2.051387e+14	0.000000e+00	8.160920e-01	2.618414e+15	2.844794e+15	4.694479e+13	1.675612e+04	4.439427e+03	3.201178e+03	0	1.698222e-03
2.800000e+08	1.969023e+14	0.000000e+00	8.160920e-01	2.515178e+15	2.734144e+15	4.669838e+13	1.657683e+04	4.416573e+03	3.184698e+03	0	1.675182e-03
2.900000e+08	1.891692e+14	0.000000e+00	8.160920e-01	2.418236e+15	2.630253e+15	4.645378e+13	1.640452e+04	4.394470e+03	3.168760e+03	0	1.652959e-03
3.000000e+08	1.818990e+14	0.000000e+00	8.160920e-01	2.327082e+15	2.532576e+15	4.621096e+13	1.623879e+04	4.373080e+03	3.153336e+03	0	1.631506e-03
3.100000e+08	1.750552e+14	0.000000e+00	8.160920e-01	2.241260e+15	2.440620e+15	4.596991e+13	1.607923e+04	4.352365e+03	3.138399e+03	0	1.610782e-03
3.200000e+08	1.686047e+14	0.000000e+00	8.160920e-01	2.160359e+15	2.353940e+15	4.573061e+13	1.592550e+04	4.332290e+03	3.123923e+03	0	1.590749e-03
3.300000e+08	1.625178e+14	0.000000e+00	8.160920e-01	2.084004e+15	2.272135e+15	4.549305e+13	1.577725e+04	4.312823e+03	3.109886e+03	0	1.571371e-03
3.400000e+08	1.567673e+14	0.000000e+00	8.160920e-01	2.011858e+15	2.194840e+15	4.525722e+13	1.563420e+04	4.293935e+03	3.096266e+03	0	1.552615e-03
3.500000e+08	1.513286e+14	0.000000e+00	8.160920e-01	1.943614e+15	2.121725e+15	4.502310e+13	1.549604e+04	4.275597e+03	3.083043e+03	0	1.534448e-03
3.600000e+08	1.461794e+14	0.000000e+00	8.160920e-01	1.878991e+15	2.052488e+15	4.479067e+13	1.536253e+04	4.257783e+03	3.070198e+03	0	1.516843e-03
3.700000e+08	1.412992e+14	0.000000e+00	8.160920e-01	1.817734e+15	1.986855e+15	4.455993e+13	1.523341e+04	4.240469e+03	3.057713e+03	0	1.499772e-03
3.800000e+08	1.366694e+14	0.000000e+00	8.160920e-01	1.759611e+15	1.924577e+15	4.433086e+13	1.510846e+04	4.223632e+03	3.045572e+03	0	1.483209e-03
3.900000e+08	1.322729e+14	0.000000e+00	8.160920e-01	1.704407e+15	1.865423e+15	4.410344e+13	1.498747e+04	4.207250e+03	3.033760e+03	0	1.467131e-03
4.000000e+08	1.280940e+14	0.000000e+00	8.160920e-01	1.651929e+15	1.809184e+15	4.387767e+13	1.487025e+04	4.191304e+03	3.022261e+03	0	1.451515e-03
4.100000e+08	1.241185e+14	0.000000e+00	8.160920e-01	1.601995e+15	1.755668e+15	4.365353e+13	1.475659e+04	4.175773e+03	3.011063e+03	0	1.436341e-03
4.200000e+08	1.203332e+14	0.000000e+00	8.160920e-01	1.554443e+15	1.704699e+15	4.343100e+13	1.464635e+04	4.160642e+03	3.000152e+03	0	1.421588e-03
4.300000e+08	1.167260e+14	0.000000e+00	8.160920e-01	1.509120e+15	1.656113e+15	4.321007e+13	1.453934e+04	4.145892e+03	2.989516e+03	0	1.407238e-03
4.400000e+08	1.132856e+14	0.000000e+00	8.160920e-01	1.465886e+15	1.609761e+15	4.299073e+13	1.443543e+04	4.131508e+03	2.979144e+03	0	1.393275e-03
4.500000e+08	1.100017e+14	0.000000e+00	8.160920e-01	1.424614e+15	1.565506e+15	4.277297e+13	1.433447e+04	4.117475e+03	2.969025e+03	0	1.379680e-03
4.600000e+08	1.068650e+14	0.000000e+00	8.160920e-01	1.385183e+15	1.523219e+15	4.255677e+13	1.423633e+04	4.103779e+03	2.959149e+03	0	1.366439e-03
4.700000e+08	1.038665e+14	0.000000e+00	8.160920e-01	1.347483e+15	1.482783e+15	4.234213e+13	1.414088e+04	4.090406e+03	2.949506e+03	0	1.353538e-03
4.800000e+08	1.009981e+14	0.000000e+00	8.160920e-01	1.311414e+15	1.444089e+15	4.212902e+13	1.404801e+04	4.077344e+03	2.940087e+03	0	1.340962e-03
4.900000e+08	9.825229e+13	0.000000e+00	8.160920e-01	1.276880e+15	1.407036e+15	4.191743e+13	1.395761e+04	4.064581e+03	2.930884e+03	0	1.328697e-03
5.000000e+08	9.562201e+13	0.000000e+00	8.160920e-01	1.243794e+15	1.371529e+15	4.170736e+13	1.386957e+04	4.052106e+03	2.921889e+03	0	1.316733e-03
5.100000e+08	9.310075e+13	0.000000e+00	8.160920e-01	1.212073e+15	1.337482e+15	4.149879e+13	1.378379e+04	4.039908e+03	2.913093e+03	0	1.305057e-03
5.200000e+08	9.068246e+13	0.000000e+00	8.160920e-01	1.181643e+15	1.304813e+15	4.129171e+13	1.370018e+04	4.027977e+03	2.904490e+03	0	1.293659e-03
5.300000e+08	8.836150e+13	0.000000e+00	8.160920e-01	1.152433e+15	1.273448e+15	4.108611e+13	1.361866e+04	4.016302e+03	2.896071e+03	0	1.282526e-03
5.400000e+08	8.613261e+13	0.000000e+00	8.160920e-01	1.124377e+15	1.243316e+15	4.088197e+13	1.353913e+04	4.004876e+03	2.887832e+03	0	1.271650e-03
5.500000e+08	8.399088e+13	0.000000e+00	8.160920e-01	1.097414e+15	1.214350e+15	4.067928e+13	1.346153e+04	3.993688e+03	2.879765e+03	0	1.261022e-03
5.600000e+08	8.193174e+13	0.000000e+00	8.160920e-01	1.071485e+15	1.186491e+15	4.047803e+13	1.338578e+04	3.982732e+03	2.871865e+03	0	1.250631e-03
5.700000e+08	7.995090e+13	0.000000e+00	8.160920e-01	1.046539e+15	1.159680e+15	4.027822e+13	1.331180e+04	3.971998e+03	2.864125e+03	0	1.240470e-03
5.800000e+08	7.804435e+13	0.000000e+00	8.160920e-01	1.022524e+15	1.133865e+15	4.007982e+13	1.323953e+04	3.961480e+03	2.856540e+03	0	1.230530e-03
5.900000e+08	7.620835e+13	0.000000e+00	8.160920e-01	9.993937e+14	1.108994e+15	3.988282e+13	1.316891e+04	3.951170e+03	2.849106e+03	0	1.220804e-03
6.000000e+08	7.443938e+13	0.000000e+00	8.160920e-01	9.771041e+14	1.085021e+15	3.968722e+13	1.309988e+04	3.941062e+03	2.841817e+03	0	1.211284e-03
6.100000e+08	7.273415e+13	0.000000e+00	8.160920e-01	9.556139e+14	1.061903e+15	3.949301e+13	1.303237e+04	3.931148e+03	2.834668e+03	0	1.201964e-03
6.200000e+08	7.108955e+13	0.000000e+00	8.160920e-01	9.348843e+14	1.039597e+15	3.930017e+13	1.296634e+04	3.921422e+03	2.827655e+03	0	1.192835e-03
6.300000e+08	6.950268e+13	0.000000e+00	8.160920e-01	9.148789e+14	1.018064e+15	3.910868e+13	1.290173e+04	3.911879e+03	2.820774e+03	0	1.183893e-03
6.400000e+08	6.797081e+13	0.000000e+00	8.160920e-01	8.955635e+14	9.972692e+14	3.891855e+13	1.283850e+04	3.902513e+03	2.814020e+03	0	1.175130e-03
6.500000e+08	6.649136e+13	0.000000e+00	8.160920e-01	8.769059e+14	9.771768e+14	3.872976e+13	1.277659e+04	3.893318e+03	2.807390e+03	0	1.166542e-03
6.600000e+08	6.506191e+13	0.000000e+00	8.160920e-01	8.588758e+14	9.577547e+14	3.854230e+13	1.271597e+04	3.884289e+03	2.800879e+03	0	1.158122e-03
6.700000e+08	6.368018e+13	0.000000e+00	8.160920e-01	8.414445e+14	9.389724e+14	3.835615e+13	1.265658e+04	3.875421e+03	2.794485e+03	0	1.149864e-03
6.800000e+08	6.234401e+13	0.000000e+00	8.160920e-01	8.245852e+14	9.208012e+14	3.817131e+13	1.259839e+04	3.866709e+03	2.788203e+03	0	1.141765e-03
6.900000e+08	6.105138e+13	0.000000e+00	8.160920e-01	8.082723e+14	9.032140e+14	3.798777e+13	1.254136e+04	3.858149e+03	2.782030e+03	0	1.133819e-03
7.000000e+08	5.980036e+13	0.000000e+00	8.160920e-01	7.924818e+14	8.861851e+14	3.780552e+13	1.248545e+04	3.849735e+03	2.775964e+03	0	1.126021e-03
7.100000e+08	5.858914e+13	0.000000e+00	8.160920e-01	7.771910e+14	8.696902e+14	3.762454e+13	1.243062e+04	3.841465e+03	2.770000e+03	0	1.118367e-03
7.200000e+08	5.741601e+13	0.000000e+00	8.160920e-01	7.623785e+14	8.537064e+14	3.744483e+13	1.237685e+04	3.833334e+03	2.764137e+03	0	1.110852e-03
7.300000e+08	5.627934e+13	0.000000e+00	8.160920e-01	7.480239e+14	8.382121e+14	3.726637e+13	1.232410e+04	3.825337e+03	2.758370e+03	0	1.103473e-03
7.400000e+08	5.517761e+13	0.000000e+00	8.160920e-01	7.341080e+14	8.231867e+14	3.708916e+13	1.227233e+04	3.817472e+03	2.752699e+03	0	1.096225e-03
7.500000e+08	5.410935e+13	0.000000e+00	8.160920e-01	7.206126e+14	8.086108e+14	3.691318e+13	1.222152e+04	3.809734e+03	2.747119e+03	0	1.089104e-03
7.600000e+08	5.307319e+13	0.000000e+00	8.160920e-01	7.075203e+14	7.944660e+14	3.673843e+13	1.217164e+04	3.802120e+03	2.741629e+03	0	1.082107e-03
7.700000e+08	5.206781e+13	0.000000e+00	8.160920e-01	6.948148e+14	7.807347e+14	3.656490e+13	1.212266e+04	3.794626e+03	2.736225e+03	0	1.075231e-03
7.800000e+08	5.109199e+13	0.000000e+00	8.160920e-01	6.824806e+14	7.674004e+14	3.639257e+13	1.207456e+04	3.787250e+03	2.730907e+03	0	1.068471e-03
7.900000e+08	5.014453e+13	0.000000e+00	8.160920e-01	6.705028e+14	7.544473e+14	3.622144e+13	1.202731e+04	3.779988e+03	2.725670e+03	0	1.061825e-03
8.000000e+08	4.922432e+13	0.000000e+00	8.160920e-01	6.588675e+14	7.418604e+14	3.605149e+13	1.198088e+04	3.772838e+03	2.720514e+03	0	1.055290e-03
8.100000e+08	4.833029e+13	0.000000e+00	8.160920e-01	6.475613e+14	7.296256e+14	3.588272e+13	1.193525e+04	3.765796e+03	2.715437e+03	0	1.048862e-03
8.200000e+08	4.746144e+13	0.000000e+00	8.160920e-01	6.365715e+14	7.177292e+14	3.571512e+13	1.189040e+04	3.758860e+03	2.710435e+03	0	1.042539e-03
8.300000e+08	4.661680e+13	0.000000e+00	8.160920e-01	6.258860e+14	7.061585e+14	3.554868e+13	1.184630e+04	3.752026e+03	2.705508e+03	0	1.036317e-03
8.400000e+08	4.579546e+13	0.000000e+00	8.160920e-01	6.154933e+14	6.949011e+14	3.538339e+13	1.180295e+04	3.745293e+03	2.700652e+03	0	1.030195e-03
8.500000e+08	4.499653e+13	0.000000e+00	8.160920e-01	6.053825e+14	6.839453e+14	3.521924e+13	1.176031e+04	3.738658e+03	2.695868e+03	0	1.024169e-03
8.600000e+08	4.421919e+13	0.000000e+00	8.160920e-01	5.955432e+14	6.732800e+14	3.505622e+13	1.171836e+04	3.732118e+03	2.691152e+03	0	1.018237e-03
8.700000e+08	4.346264e+13	0.000000e+00	8.160920e-01	5.859654e+14	6.628947e+14	3.489433e+13	1.167710e+04	3.725671e+03	2.686504e+03	0	1.012396e-03
8.800000e+08	4.272613e+13	0.000000e+00	8.160920e-01	5.766396e+14	6.527791e+14	3.473355e+13	1.163649e+04	3.719315e+03	2.681920e+03	0	1.006645e-03
8.900000e+08	4.200894e+13	0.000000e+00	8.160920e-01	5.675567e+14	6.429236e+14	3.457387e+13	1.159653e+04	3.713048e+03	2.677401e+03	0	1.000981e-03
9.000000e+08	4.131037e+13	0.000000e+00	8.160920e-01	5.587081e+14	6.333190e+14	3.441528e+13	1.155720e+04	3.706867e+03	2.672944e+03	0	9.954014e-04
9.100000e+08	4.062976e+13	0.000000e+00	8.160920e-01	5.500856e+14	6.239565e+14	3.425779e+13	1.151847e+04	3.700771e+03	2.668549e+03	0	9.899045e-04
9.200000e+08	3.996650e+13	0.000000e+00	8.160920e-01	5.416812e+14	6.148277e+14	3.410137e+13	1.148034e+04	3.694758e+03	2.664212e+03	0	9.844883e-04
9.300000e+08	3.931996e+13	0.000000e+00	8.160920e-01	5.334874e+14	6.059244e+14	3.394603e+13	1.144279e+04	3.688825e+03	2.659934e+03	0	9.791508e-04
9.400000e+08	3.868959e+13	0.000000e+00	8.160920e-01	5.254969e+14	5.972390e+14	3.379174e+13	1.140580e+04	3.682971e+03	2.655713e+03	0	9.738901e-04
9.500000e+08	3.807483e+13	0.000000e+00	8.160920e-01	5.177029e+14	5.887641e+14	3.363851e+13	1.136937e+04	3.677193e+03	2.651547e+03	0	9.687043e-04
9.600000e+08	3.747515e+13	0.000000e+00	8.160920e-01	5.100988e+14	5.804927e+14	3.348632e+13	1.133347e+04	3.671491e+03	2.647436e+03	0	9.635916e-04
9.700000e+08	3.689004e+13	0.000000e+00	8.160920e-01	5.026781e+14	5.724179e+14	3.333517e+13	1.129810e+04	3.665863e+03	2.643377e+03	0	9.585504e-04
9.800000e+08	3.631903e+13	0.000000e+00	8.160920e-01	4.954349e+14	5.645334e+14	3.318505e+13	1.126324e+04	3.660307e+03	2.639371e+03	0	9.535789e-04
9.900000e+08	3.576166e+13	0.000000e+00	8.160920e-01	4.883634e+14	5.568329e+14	3.303595e+13	1.122888e+04	3.654821e+03	2.635415e+03	0	9.486757e-04
1.000000e+09	3.521746e+13	0.000000e+00	8.160920e-01	4.814578e+14	5.493105e+14	3.288786e+13	1.119501e+04	3.649404e+03	2.631509e+03	0	9.438390e-04
1.010000e+09	3.468603e+13	0.000000e+00	8.160920e-01	4.747130e+14	5.419604e+14	3.274077e+13	1.116162e+04	3.644054e+03	2.627651e+03	0	9.390674e-04
1.020000e+09	3.416695e+13	0.000000e+00	8.160920e-01	4.681238e+14	5.347773e+14	3.259468e+13	1.112869e+04	3.638770e+03	2.623841e+03	0	9.343594e-04
1.030000e+09	3.365983e+13	0.000000e+00	8.160920e-01	4.616852e+14	5.277557e+14	3.244958e+13	1.109622e+04	3.633551e+03	2.620078e+03	0	9.297136e-04
1.040000e+09	3.316430e+13	0.000000e+00	8.160920e-01	4.553926e+14	5.208908e+14	3.230546e+13	1.106419e+04	3.628395e+03	2.616360e+03	0	9.251287e-04
1.050000e+09	3.267998e+13	0.000000e+00	8.160920e-01	4.492413e+14	5.141776e+14	3.216232e+13	1.103259e+04	3.623301e+03	2.612687e+03	0	9.206032e-04
1.060000e+09	3.220654e+13	0.000000e+00	8.160920e-01	4.432271e+14	5.076115e+14	3.202014e+13	1.100142e+04	3.618268e+03	2.609057e+03	0	9.161359e-04
1.070000e+09	3.174364e+13	0.000000e+00	8.160920e-01	4.373457e+14	5.011880e+14	3.187891e+13	1.097067e+04	3.613294e+03	2.605470e+03	0	9.117256e-04
1.080000e+09	3.129097e+13	0.000000e+00	8.160920e-01	4.315931e+14	4.949029e+14	3.173864e+13	1.094032e+04	3.608378e+03	2.601926e+03	0	9.073710e-04
1.090000e+09	3.084820e+13	0.000000e+00	8.160920e-01	4.259655e+14	4.887519e+14	3.159931e+13	1.091037e+04	3.603519e+03	2.598422e+03	0	9.030709e-04
1.100000e+09	3.041505e+13	0.000000e+00	8.160920e-01	4.204590e+14	4.827311e+14	3.146092e+13	1.088081e+04	3.598716e+03	2.594959e+03	0	8.988241e-04
1.110000e+09	2.999123e+13	0.000000e+00	8.160920e-01	4.150702e+14	4.768366e+14	3.132345e+13	1.085163e+04	3.593968e+03	2.591535e+03	0	8.946297e-04
1.120000e+09	2.957646e+13	0.000000e+00	8.160920e-01	4.097955e+14	4.710649e+14	3.118691e+13	1.082282e+04	3.589273e+03	2.588149e+03	0	8.904864e-04
1.130000e+09	2.917048e+13	0.000000e+00	8.160920e-01	4.046316e+14	4.654123e+14	3.105128e+13	1.079438e+04	3.584631e+03	2.584802e+03	0	8.863932e-04
1.140000e+09	2.877304e+13	0.000000e+00	8.160920e-01	3.995754e+14	4.598753e+14	3.091655e+13	1.076629e+04	3.580040e+03	2.581492e+03	0	8.823491e-04
1.150000e+09	2.838388e+13	0.000000e+00	8.160920e-01	3.946238e+14	4.544508e+14	3.078273e+13	1.073856e+04	3.575501e+03	2.578219e+03	0	8.783531e-04
1.160000e+09	2.800278e+13	0.000000e+00	8.160920e-01	3.897737e+14	4.491355e+14	3.064979e+13	1.071116e+04	3.571011e+03	2.574981e+03	0	8.744042e-04
1.170000e+09	2.762950e+13	0.000000e+00	8.160920e-01	3.850223e+14	4.439264e+14	3.051775e+13	1.068410e+04	3.566569e+03	2.571778e+03	0	8.705016e-04
1.180000e+09	2.726383e+13	0.000000e+00	8.160920e-01	3.803668e+14	4.388205e+14	3.038658e+13	1.065737e+04	3.562176e+03	2.568610e+03	0	8.666442e-04
1.190000e+09	2.690554e+13	0.000000e+00	8.160920e-01	3.758046e+14	4.338149e+14	3.025628e+13	1.063096e+04	3.557829e+03	2.565476e+03	0	8.628311e-04
1.200000e+09	2.655445e+13	0.000000e+00	8.160920e-01	3.713332e+14	4.289070e+14	3.012685e+13	1.060487e+04	3.553528e+03	2.562375e+03	0	8.590616e-04
1.210000e+09	2.621034e+13	0.000000e+00	8.160920e-01	3.669499e+14	4.240940e+14	2.999828e+13	1.057909e+04	3.549273e+03	2.559306e+03	0	8.553348e-04
1.220000e+09	2.587304e+13	0.000000e+00	8.160920e-01	3.626524e+14	4.193734e+14	2.987056e+13	1.055361e+04	3.545062e+03	2.556270e+03	0	8.516498e-04
1.230000e+09	2.554235e+13	0.000000e+00	8.160920e-01	3.584385e+14	4.147428e+14	2.974368e+13	1.052842e+04	3.540894e+03	2.553265e+03	0	8.480058e-04
1.240000e+09	2.521809e+13	0.000000e+00	8.160920e-01	3.543058e+14	4.101996e+14	2.961764e+13	1.050353e+04	3.536770e+03	2.550291e+03	0	8.444021e-04
1.250000e+09	2.490011e+13	0.000000e+00	8.160920e-01	3.502522e+14	4.057417e+14	2.949244e+13	1.047893e+04	3.532687e+03	2.547347e+03	0	8.408379e-04
1.260000e+09	2.458822e+13	0.000000e+00	8.160920e-01	3.462756e+14	4.013668e+14	2.936806e+13	1.045460e+04	3.528646e+03	2.544433e+03	0	8.373125e-04
1.270000e+09	2.428227e+13	0.000000e+00	8.160920e-01	3.423740e+14	3.970727e+14	2.924450e+13	1.043055e+04	3.524645e+03	2.541548e+03	0	8.338251e-04
1.280000e+09	2.398210e+13	0.000000e+00	8.160920e-01	3.385455e+14	3.928574e+14	2.912175e+13	1.040677e+04	3.520684e+03	2.538692e+03	0	8.303750e-04
1.290000e+09	2.368757e+13	0.000000e+00	8.160920e-01	3.347882e+14	3.887188e+14	2.899981e+13	1.038326e+04	3.516763e+03	2.535864e+03	0	8.269617e-04
1.300000e+09	2.339852e+13	0.000000e+00	8.160920e-01	3.311001e+14	3.846550e+14	2.887867e+13	1.036000e+04	3.512879e+03	2.533064e+03	0	8.235843e-04
1.310000e+09	2.311483e+13	0.000000e+00	8.160920e-01	3.274797e+14	3.806640e+14	2.875832e+13	1.033700e+04	3.509034e+03	2.530291e+03	0	8.202422e-04
1.320000e+09	2.283634e+13	0.000000e+00	8.160920e-01	3.239251e+14	3.767442e+14	2.863876e+13	1.031425e+04	3.505226e+03	2.527545e+03	0	8.169348e-04
1.330000e+09	2.256294e+13	0.000000e+00	8.160920e-01	3.204347e+14	3.728936e+14	2.851998e+13	1.029175e+04	3.501454e+03	2.524825e+03	0	8.136616e-04
1.340000e+09	2.229449e+13	0.000000e+00	8.160920e-01	3.170069e+14	3.691106e+14	2.840198e+13	1.026949e+04	3.497719e+03	2.522132e+03	0	8.104218e-04
1.350000e+09	2.203088e+13	0.000000e+00	8.160920e-01	3.136401e+14	3.653935e+14	2.828475e+13	1.024746e+04	3.494018e+03	2.519463e+03	0	8.072148e-04
1.360000e+09	2.177197e+13	0.000000e+00	8.160920e-01	3.103330e+14	3.617408e+14	2.816829e+13	1.022567e+04	3.490353e+03	2.516820e+03	0	8.040402e-04
