#t		Qconv[W]	Ri[Rp]		R*[Rp]		Qc[W]		Qm[W]		Qr[W]		Tcmb[K]		Tl[K]		Tup[K]		RiFlag		Bs[T]
0.000000e+00	1.194474e+15	0.000000e+00	8.160920e-01	1.447878e+16	1.591131e+15	5.752471e+13	2.885274e+04	3.675153e+03	2.642943e+03	0	3.048121e-03
1.000000e+07	1.111650e+15	0.000000e+00	8.160920e-01	1.347960e+16	8.869060e+15	5.720598e+13	2.795252e+04	5.079913e+03	3.653160e+03	0	2.975975e-03
2.000000e+07	1.020062e+15	0.000000e+00	8.160920e-01	1.237537e+16	1.181674e+16	5.688964e+13	2.711240e+04	5.446485e+03	3.916777e+03	0	2.891892e-03
3.000000e+07	9.369905e+14	0.000000e+00	8.160920e-01	1.137379e+16	1.192386e+16	5.657565e+13	2.633955e+04	5.492711e+03	3.950019e+03	0	2.811156e-03
4.000000e+07	8.630889e+14	0.000000e+00	8.160920e-01	1.048265e+16	1.125701e+16	5.626402e+13	2.562800e+04	5.454606e+03	3.922617e+03	0	2.735217e-03
5.000000e+07	7.973830e+14	0.000000e+00	8.160920e-01	9.690243e+15	1.046517e+16	5.595471e+13	2.497113e+04	5.396947e+03	3.881152e+03	0	2.663967e-03
6.000000e+07	7.388147e+14	0.000000e+00	8.160920e-01	8.983811e+15	9.710589e+15	5.564770e+13	2.436299e+04	5.336958e+03	3.838011e+03	0	2.597079e-03
7.000000e+07	6.864337e+14	0.000000e+00	8.160920e-01	8.351920e+15	9.024875e+15	5.534298e+13	2.379838e+04	5.278968e+03	3.796308e+03	0	2.534192e-03
8.000000e+07	6.394229e+14	0.000000e+00	8.160920e-01	7.784728e+15	8.407914e+15	5.504052e+13	2.327278e+04	5.223895e+03	3.756703e+03	0	2.474966e-03
9.000000e+07	5.970878e+14	0.000000e+00	8.160920e-01	7.273875e+15	7.852871e+15	5.474032e+13	2.278227e+04	5.171775e+03	3.719222e+03	0	2.419093e-03
1.000000e+08	5.588388e+14	0.000000e+00	8.160920e-01	6.812260e+15	7.352275e+15	5.444234e+13	2.232341e+04	5.122427e+03	3.683734e+03	0	2.366294e-03
1.100000e+08	5.241740e+14	0.000000e+00	8.160920e-01	6.393840e+15	6.899374e+15	5.414657e+13	2.189319e+04	5.075637e+03	3.650085e+03	0	2.316319e-03
1.200000e+08	4.926650e+14	0.000000e+00	8.160920e-01	6.013454e+15	6.488333e+15	5.385300e+13	2.148897e+04	5.031196e+03	3.618126e+03	0	2.268944e-03
1.300000e+08	4.639442e+14	0.000000e+00	8.160920e-01	5.666676e+15	6.114152e+15	5.356160e+13	2.110843e+04	4.988918e+03	3.587722e+03	0	2.223968e-03
1.400000e+08	4.376953e+14	0.000000e+00	8.160920e-01	5.349696e+15	5.772551e+15	5.327236e+13	2.074950e+04	4.948633e+03	3.558752e+03	0	2.181209e-03
1.500000e+08	4.136449e+14	0.000000e+00	8.160920e-01	5.059220e+15	5.459852e+15	5.298525e+13	2.041035e+04	4.910191e+03	3.531107e+03	0	2.140503e-03
1.600000e+08	3.915560e+14	0.000000e+00	8.160920e-01	4.792393e+15	5.172877e+15	5.270027e+13	2.008935e+04	4.873459e+03	3.504691e+03	0	2.101702e-03
1.700000e+08	3.712220e+14	0.000000e+00	8.160920e-01	4.546727e+15	4.908875e+15	5.241739e+13	1.978504e+04	4.838313e+03	3.479416e+03	0	2.064672e-03
1.800000e+08	3.524628e+14	0.000000e+00	8.160920e-01	4.320051e+15	4.665452e+15	5.213659e+13	1.949611e+04	4.804644e+03	3.455204e+03	0	2.029291e-03
1.900000e+08	3.351204e+14	0.000000e+00	8.160920e-01	4.110462e+15	4.440517e+15	5.185787e+13	1.922139e+04	4.772354e+03	3.431983e+03	0	1.995447e-03
2.000000e+08	3.190561e+14	0.000000e+00	8.160920e-01	3.916287e+15	4.232236e+15	5.158119e+13	1.895983e+04	4.741352e+03	3.409688e+03	0	1.963039e-03
2.100000e+08	3.041473e+14	0.000000e+00	8.160920e-01	3.736052e+15	4.038998e+15	5.130655e+13	1.871045e+04	4.711555e+03	3.388260e+03	0	1.931974e-03
2.200000e+08	2.902860e+14	0.000000e+00	8.160920e-01	3.568453e+15	3.859379e+15	5.103392e+13	1.847241e+04	4.682889e+03	3.367645e+03	0	1.902167e-03
2.300000e+08	2.773761e+14	0.000000e+00	8.160920e-01	3.412333e+15	3.692123e+15	5.076330e+13	1.824492e+04	4.655285e+03	3.347794e+03	0	1.873540e-03
2.400000e+08	2.653325e+14	0.000000e+00	8.160920e-01	3.266664e+15	3.536112e+15	5.049466e+13	1.802726e+04	4.628679e+03	3.328661e+03	0	1.846021e-03
2.500000e+08	2.540791e+14	0.000000e+00	8.160920e-01	3.130532e+15	3.390353e+15	5.022799e+13	1.781878e+04	4.603014e+03	3.310204e+03	0	1.819545e-03
2.600000e+08	2.435481e+14	0.000000e+00	8.160920e-01	3.003117e+15	3.253958e+15	4.996326e+13	1.761888e+04	4.578237e+03	3.292386e+03	0	1.794051e-03
2.700000e+08	2.336786e+14	0.000000e+00	8.160920e-01	2.883687e+15	3.126136e+15	4.970048e+13	1.742703e+04	4.554296e+03	3.275169e+03	0	1.769482e-03
2.800000e+08	2.244162e+14	0.000000e+00	8.160920e-01	2.771584e+15	3.006175e+15	4.943961e+13	1.724272e+04	4.531148e+03	3.258523e+03	0	1.745787e-03
2.900000e+08	2.157117e+14	0.000000e+00	8.160920e-01	2.666217e+15	2.893437e+15	4.918065e+13	1.706550e+04	4.508750e+03	3.242415e+03	0	1.722918e-03
3.000000e+08	2.075210e+14	0.000000e+00	8.160920e-01	2.567052e+15	2.787346e+15	4.892358e+13	1.689495e+04	4.487061e+03	3.226818e+03	0	1.700829e-03
3.100000e+08	1.998041e+14	0.000000e+00	8.160920e-01	2.473607e+15	2.687384e+15	4.866837e+13	1.673066e+04	4.466047e+03	3.211706e+03	0	1.679480e-03
3.200000e+08	1.925248e+14	0.000000e+00	8.160920e-01	2.385448e+15	2.593081e+15	4.841503e+13	1.657230e+04	4.445673e+03	3.197054e+03	0	1.658831e-03
3.300000e+08	1.856505e+14	0.000000e+00	8.160920e-01	2.302179e+15	2.504012e+15	4.816353e+13	1.641952e+04	4.425907e+03	3.182840e+03	0	1.638848e-03
3.400000e+08	1.791513e+14	0.000000e+00	8.160920e-01	2.223440e+15	2.419791e+15	4.791385e+13	1.627203e+04	4.406720e+03	3.169042e+03	0	1.619496e-03
3.500000e+08	1.730001e+14	0.000000e+00	8.160920e-01	2.148905e+15	2.340067e+15	4.766599e+13	1.612952e+04	4.388085e+03	3.155640e+03	0	1.600745e-03
3.600000e+08	1.671723e+14	0.000000e+00	8.160920e-01	2.078277e+15	2.264520e+15	4.741992e+13	1.599175e+04	4.369974e+03	3.142616e+03	0	1.582564e-03
3.700000e+08	1.616454e+14	0.000000e+00	8.160920e-01	2.011283e+15	2.192859e+15	4.717563e+13	1.585846e+04	4.352365e+03	3.129953e+03	0	1.564928e-03
3.800000e+08	1.563987e+14	0.000000e+00	8.160920e-01	1.947676e+15	2.124817e+15	4.693311e+13	1.572943e+04	4.335235e+03	3.117634e+03	0	1.547810e-03
3.900000e+08	1.514134e+14	0.000000e+00	8.160920e-01	1.887227e+15	2.060150e+15	4.669235e+13	1.560444e+04	4.318562e+03	3.105643e+03	0	1.531186e-03
4.000000e+08	1.466722e+14	0.000000e+00	8.160920e-01	1.829728e+15	1.998634e+15	4.645332e+13	1.548330e+04	4.302326e+03	3.093968e+03	0	1.515035e-03
4.100000e+08	1.421592e+14	0.000000e+00	8.160920e-01	1.774987e+15	1.940064e+15	4.621602e+13	1.536581e+04	4.286509e+03	3.082593e+03	0	1.499333e-03
4.200000e+08	1.378598e+14	0.000000e+00	8.160920e-01	1.722827e+15	1.884250e+15	4.598043e+13	1.525181e+04	4.271093e+03	3.071507e+03	0	1.484063e-03
4.300000e+08	1.337604e+14	0.000000e+00	8.160920e-01	1.673087e+15	1.831020e+15	4.574653e+13	1.514113e+04	4.256061e+03	3.060697e+03	0	1.469205e-03
4.400000e+08	1.298488e+14	0.000000e+00	8.160920e-01	1.625615e+15	1.780212e+15	4.551432e+13	1.503362e+04	4.241397e+03	3.050152e+03	0	1.454742e-03
4.500000e+08	1.261134e+14	0.000000e+00	8.160920e-01	1.580275e+15	1.731678e+15	4.528378e+13	1.492913e+04	4.227088e+03	3.039861e+03	0	1.440656e-03
4.600000e+08	1.225436e+14	0.000000e+00	8.160920e-01	1.536937e+15	1.685282e+15	4.505489e+13	1.482753e+04	4.213117e+03	3.029814e+03	0	1.426933e-03
4.700000e+08	1.191297e+14	0.000000e+00	8.160920e-01	1.495484e+15	1.640897e+15	4.482764e+13	1.472870e+04	4.199473e+03	3.020002e+03	0	1.413557e-03
4.800000e+08	1.158625e+14	0.000000e+00	8.160920e-01	1.455806e+15	1.598406e+15	4.460202e+13	1.463251e+04	4.186143e+03	3.010416e+03	0	1.400514e-03
4.900000e+08	1.127335e+14	0.000000e+00	8.160920e-01	1.417800e+15	1.557699e+15	4.437802e+13	1.453885e+04	4.173115e+03	3.001047e+03	0	1.387792e-03
5.000000e+08	1.097351e+14	0.000000e+00	8.160920e-01	1.381373e+15	1.518677e+15	4.415562e+13	1.444762e+04	4.160377e+03	2.991886e+03	0	1.375377e-03
5.100000e+08	1.068598e+14	0.000000e+00	8.160920e-01	1.346436e+15	1.481244e+15	4.393480e+13	1.435871e+04	4.147918e+03	2.982927e+03	0	1.363258e-03
5.200000e+08	1.041009e+14	0.000000e+00	8.160920e-01	1.312907e+15	1.445314e+15	4.371557e+13	1.427204e+04	4.135730e+03	2.974162e+03	0	1.351423e-03
5.300000e+08	1.014521e+14	0.000000e+00	8.160920e-01	1.280711e+15	1.410804e+15	4.349789e+13	1.418751e+04	4.123801e+03	2.965584e+03	0	1.339863e-03
5.400000e+08	9.890750e+13	0.000000e+00	8.160920e-01	1.249775e+15	1.377639e+15	4.328177e+13	1.410503e+04	4.112123e+03	2.957186e+03	0	1.328566e-03
5.500000e+08	9.646157e+13	0.000000e+00	8.160920e-01	1.220034e+15	1.345749e+15	4.306718e+13	1.402453e+04	4.100688e+03	2.948962e+03	0	1.317522e-03
5.600000e+08	9.410918e+13	0.000000e+00	8.160920e-01	1.191425e+15	1.315066e+15	4.285412e+13	1.394594e+04	4.089485e+03	2.940906e+03	0	1.306724e-03
5.700000e+08	9.184552e+13	0.000000e+00	8.160920e-01	1.163890e+15	1.285529e+15	4.264258e+13	1.386917e+04	4.078509e+03	2.933012e+03	0	1.296162e-03
5.800000e+08	8.966610e+13	0.000000e+00	8.160920e-01	1.137375e+15	1.257079e+15	4.243253e+13	1.379417e+04	4.067751e+03	2.925276e+03	0	1.285827e-03
5.900000e+08	8.756670e+13	0.000000e+00	8.160920e-01	1.111829e+15	1.229663e+15	4.222397e+13	1.372086e+04	4.057203e+03	2.917691e+03	0	1.275713e-03
6.000000e+08	8.554337e+13	0.000000e+00	8.160920e-01	1.087205e+15	1.203230e+15	4.201689e+13	1.364919e+04	4.046860e+03	2.910252e+03	0	1.265811e-03
6.100000e+08	8.359239e+13	0.000000e+00	8.160920e-01	1.063456e+15	1.177731e+15	4.181128e+13	1.357910e+04	4.036714e+03	2.902956e+03	0	1.256113e-03
6.200000e+08	8.171028e+13	0.000000e+00	8.160920e-01	1.040542e+15	1.153121e+15	4.160711e+13	1.351052e+04	4.026759e+03	2.895797e+03	0	1.246614e-03
6.300000e+08	7.989375e+13	0.000000e+00	8.160920e-01	1.018422e+15	1.129359e+15	4.140439e+13	1.344342e+04	4.016990e+03	2.888771e+03	0	1.237307e-03
6.400000e+08	7.813974e+13	0.000000e+00	8.160920e-01	9.970595e+14	1.106405e+15	4.120310e+13	1.337773e+04	4.007399e+03	2.881875e+03	0	1.228185e-03
6.500000e+08	7.644533e+13	0.000000e+00	8.160920e-01	9.764193e+14	1.084222e+15	4.100323e+13	1.331341e+04	3.997983e+03	2.875103e+03	0	1.219243e-03
6.600000e+08	7.480780e+13	0.000000e+00	8.160920e-01	9.564682e+14	1.062773e+15	4.080476e+13	1.325041e+04	3.988735e+03	2.868453e+03	0	1.210474e-03
6.700000e+08	7.322457e+13	0.000000e+00	8.160920e-01	9.371751e+14	1.042026e+15	4.060769e+13	1.318870e+04	3.979651e+03	2.861920e+03	0	1.201874e-03
6.800000e+08	7.169319e+13	0.000000e+00	8.160920e-01	9.185106e+14	1.021950e+15	4.041200e+13	1.312822e+04	3.970725e+03	2.855501e+03	0	1.193436e-03
6.900000e+08	7.021139e+13	0.000000e+00	8.160920e-01	9.004470e+14	1.002515e+15	4.021768e+13	1.306893e+04	3.961954e+03	2.849193e+03	0	1.185157e-03
7.000000e+08	6.877698e+13	0.000000e+00	8.160920e-01	8.829580e+14	9.836929e+14	4.002473e+13	1.301081e+04	3.953332e+03	2.842992e+03	0	1.177030e-03
7.100000e+08	6.738793e+13	0.000000e+00	8.160920e-01	8.660188e+14	9.654575e+14	3.983313e+13	1.295381e+04	3.944855e+03	2.836896e+03	0	1.169052e-03
7.200000e+08	6.604228e+13	0.000000e+00	8.160920e-01	8.496059e+14	9.477836e+14	3.964286e+13	1.289789e+04	3.936519e+03	2.830902e+03	0	1.161218e-03
7.300000e+08	6.473820e+13	0.000000e+00	8.160920e-01	8.336972e+14	9.306478e+14	3.945393e+13	1.284303e+04	3.928321e+03	2.825006e+03	0	1.153524e-03
7.400000e+08	6.347396e+13	0.000000e+00	8.160920e-01	8.182716e+14	9.140275e+14	3.926632e+13	1.278919e+04	3.920256e+03	2.819206e+03	0	1.145966e-03
7.500000e+08	6.224791e+13	0.000000e+00	8.160920e-01	8.033091e+14	8.979015e+14	3.908001e+13	1.273634e+04	3.912320e+03	2.813500e+03	0	1.138540e-03
7.600000e+08	6.105848e+13	0.000000e+00	8.160920e-01	7.887909e+14	8.822497e+14	3.889500e+13	1.268445e+04	3.904511e+03	2.807884e+03	0	1.131241e-03
7.700000e+08	5.990419e+13	0.000000e+00	8.160920e-01	7.746990e+14	8.670530e+14	3.871128e+13	1.263350e+04	3.896825e+03	2.802356e+03	0	1.124067e-03
7.800000e+08	5.878363e+13	0.000000e+00	8.160920e-01	7.610165e+14	8.522931e+14	3.852884e+13	1.258345e+04	3.889258e+03	2.796915e+03	0	1.117014e-03
7.900000e+08	5.769547e+13	0.000000e+00	8.160920e-01	7.477270e+14	8.379530e+14	3.834766e+13	1.253427e+04	3.881807e+03	2.791557e+03	0	1.110079e-03
8.000000e+08	5.663844e+13	0.000000e+00	8.160920e-01	7.348152e+14	8.240162e+14	3.816774e+13	1.248596e+04	3.874470e+03	2.786280e+03	0	1.103258e-03
8.100000e+08	5.561132e+13	0.000000e+00	8.160920e-01	7.222666e+14	8.104671e+14	3.798907e+13	1.243847e+04	3.867244e+03	2.781084e+03	0	1.096548e-03
8.200000e+08	5.461297e+13	0.000000e+00	8.160920e-01	7.100672e+14	7.972910e+14	3.781163e+13	1.239179e+04	3.860125e+03	2.775964e+03	0	1.089947e-03
8.300000e+08	5.364229e+13	0.000000e+00	8.160920e-01	6.982037e+14	7.844736e+14	3.763542e+13	1.234589e+04	3.853111e+03	2.770920e+03	0	1.083450e-03
8.400000e+08	5.269825e+13	0.000000e+00	8.160920e-01	6.866635e+14	7.720017e+14	3.746042e+13	1.230076e+04	3.846199e+03	2.765950e+03	0	1.077057e-03
8.500000e+08	5.177984e+13	0.000000e+00	8.160920e-01	6.754347e+14	7.598622e+14	3.728664e+13	1.225637e+04	3.839387e+03	2.761051e+03	0	1.070763e-03
8.600000e+08	5.088613e+13	0.000000e+00	8.160920e-01	6.645057e+14	7.480432e+14	3.711405e+13	1.221270e+04	3.832673e+03	2.756222e+03	0	1.064567e-03
8.700000e+08	5.001621e+13	0.000000e+00	8.160920e-01	6.538656e+14	7.365329e+14	3.694265e+13	1.216973e+04	3.826053e+03	2.751462e+03	0	1.058466e-03
8.800000e+08	4.916921e+13	0.000000e+00	8.160920e-01	6.435041e+14	7.253202e+14	3.677243e+13	1.212745e+04	3.819526e+03	2.746768e+03	0	1.052457e-03
8.900000e+08	4.834433e+13	0.000000e+00	8.160920e-01	6.334110e+14	7.143945e+14	3.660338e+13	1.208583e+04	3.813090e+03	2.742139e+03	0	1.046538e-03
9.000000e+08	4.754076e+13	0.000000e+00	8.160920e-01	6.235771e+14	7.037457e+14	3.643549e+13	1.204487e+04	3.806742e+03	2.737574e+03	0	1.040707e-03
9.100000e+08	4.675777e+13	0.000000e+00	8.160920e-01	6.139930e+14	6.933641e+14	3.626875e+13	1.200453e+04	3.800480e+03	2.733071e+03	0	1.034962e-03
9.200000e+08	4.599463e+13	0.000000e+00	8.160920e-01	6.046502e+14	6.832404e+14	3.610315e+13	1.196482e+04	3.794302e+03	2.728628e+03	0	1.029301e-03
9.300000e+08	4.525066e+13	0.000000e+00	8.160920e-01	5.955404e+14	6.733659e+14	3.593868e+13	1.192570e+04	3.788207e+03	2.724245e+03	0	1.023721e-03
9.400000e+08	4.452520e+13	0.000000e+00	8.160920e-01	5.866556e+14	6.637320e+14	3.577534e+13	1.188717e+04	3.782192e+03	2.719919e+03	0	1.018221e-03
9.500000e+08	4.381763e+13	0.000000e+00	8.160920e-01	5.779882e+14	6.543306e+14	3.561311e+13	1.184922e+04	3.776256e+03	2.715650e+03	0	1.012798e-03
9.600000e+08	4.312734e+13	0.000000e+00	8.160920e-01	5.695310e+14	6.451541e+14	3.545199e+13	1.181182e+04	3.770396e+03	2.711437e+03	0	1.007452e-03
9.700000e+08	4.245377e+13	0.000000e+00	8.160920e-01	5.612769e+14	6.361949e+14	3.529197e+13	1.177497e+04	3.764612e+03	2.707277e+03	0	1.002179e-03
9.800000e+08	4.179635e+13	0.000000e+00	8.160920e-01	5.532192e+14	6.274459e+14	3.513304e+13	1.173865e+04	3.758902e+03	2.703171e+03	0	9.969790e-04
9.900000e+08	4.115456e+13	0.000000e+00	8.160920e-01	5.453516e+14	6.189003e+14	3.497518e+13	1.170284e+04	3.753263e+03	2.699116e+03	0	9.918498e-04
1.000000e+09	4.052789e+13	0.000000e+00	8.160920e-01	5.376680e+14	6.105517e+14	3.481840e+13	1.166755e+04	3.747695e+03	2.695111e+03	0	9.867896e-04
1.010000e+09	3.991586e+13	0.000000e+00	8.160920e-01	5.301624e+14	6.023936e+14	3.466268e+13	1.163275e+04	3.742196e+03	2.691156e+03	0	9.817971e-04
1.020000e+09	3.931800e+13	0.000000e+00	8.160920e-01	5.228291e+14	5.944200e+14	3.450802e+13	1.159843e+04	3.736764e+03	2.687250e+03	0	9.768706e-04
1.030000e+09	3.873386e+13	0.000000e+00	8.160920e-01	5.156628e+14	5.866253e+14	3.435440e+13	1.156459e+04	3.731398e+03	2.683391e+03	0	9.720087e-04
1.040000e+09	3.816301e+13	0.000000e+00	8.160920e-01	5.086582e+14	5.790038e+14	3.420182e+13	1.153120e+04	3.726097e+03	2.679579e+03	0	9.672100e-04
1.050000e+09	3.760504e+13	0.000000e+00	8.160920e-01	5.018104e+14	5.715501e+14	3.405027e+13	1.149827e+04	3.720859e+03	2.675812e+03	0	9.624731e-04
1.060000e+09	3.705956e+13	0.000000e+00	8.160920e-01	4.951145e+14	5.642592e+14	3.389974e+13	1.146578e+04	3.715683e+03	2.672090e+03	0	9.577967e-04
1.070000e+09	3.652618e+13	0.000000e+00	8.160920e-01	4.885658e+14	5.571262e+14	3.375023e+13	1.143373e+04	3.710567e+03	2.668411e+03	0	9.531794e-04
1.080000e+09	3.600453e+13	0.000000e+00	8.160920e-01	4.821600e+14	5.501462e+14	3.360172e+13	1.140209e+04	3.705512e+03	2.664776e+03	0	9.486200e-04
1.090000e+09	3.549426e+13	0.000000e+00	8.160920e-01	4.758928e+14	5.433148e+14	3.345422e+13	1.137087e+04	3.700514e+03	2.661182e+03	0	9.441173e-04
1.100000e+09	3.499503e+13	0.000000e+00	8.160920e-01	4.697600e+14	5.366275e+14	3.330770e+13	1.134005e+04	3.695574e+03	2.657629e+03	0	9.396701e-04
1.110000e+09	3.450652e+13	0.000000e+00	8.160920e-01	4.637576e+14	5.300802e+14	3.316216e+13	1.130963e+04	3.690690e+03	2.654117e+03	0	9.352771e-04
1.120000e+09	3.402841e+13	0.000000e+00	8.160920e-01	4.578820e+14	5.236687e+14	3.301760e+13	1.127959e+04	3.685860e+03	2.650644e+03	0	9.309374e-04
1.130000e+09	3.356040e+13	0.000000e+00	8.160920e-01	4.521293e+14	5.173891e+14	3.287401e+13	1.124994e+04	3.681085e+03	2.647209e+03	0	9.266498e-04
1.140000e+09	3.310220e+13	0.000000e+00	8.160920e-01	4.464961e+14	5.112377e+14	3.273138e+13	1.122065e+04	3.676362e+03	2.643813e+03	0	9.224132e-04
1.150000e+09	3.265352e+13	0.000000e+00	8.160920e-01	4.409790e+14	5.052107e+14	3.258969e+13	1.119173e+04	3.671692e+03	2.640454e+03	0	9.182267e-04
1.160000e+09	3.221410e+13	0.000000e+00	8.160920e-01	4.355745e+14	4.993049e+14	3.244896e+13	1.116316e+04	3.667072e+03	2.637132e+03	0	9.140892e-04
1.170000e+09	3.178366e+13	0.000000e+00	8.160920e-01	4.302797e+14	4.935166e+14	3.230916e+13	1.113495e+04	3.662502e+03	2.633845e+03	0	9.099997e-04
1.180000e+09	3.136198e+13	0.000000e+00	8.160920e-01	4.250914e+14	4.878427e+14	3.217029e+13	1.110707e+04	3.657981e+03	2.630594e+03	0	9.059573e-04
1.190000e+09	3.094878e+13	0.000000e+00	8.160920e-01	4.200067e+14	4.822801e+14	3.203235e+13	1.107953e+04	3.653508e+03	2.627378e+03	0	9.019610e-04
1.200000e+09	3.054386e+13	0.000000e+00	8.160920e-01	4.150227e+14	4.768256e+14	3.189532e+13	1.105232e+04	3.649082e+03	2.624195e+03	0	8.980101e-04
1.210000e+09	3.014697e+13	0.000000e+00	8.160920e-01	4.101367e+14	4.714764e+14	3.175920e+13	1.102543e+04	3.644702e+03	2.621045e+03	0	8.941035e-04
1.220000e+09	2.975790e+13	0.000000e+00	8.160920e-01	4.053460e+14	4.662296e+14	3.162398e+13	1.099885e+04	3.640368e+03	2.617929e+03	0	8.902405e-04
1.230000e+09	2.937644e+13	0.000000e+00	8.160920e-01	4.006481e+14	4.610826e+14	3.148966e+13	1.097258e+04	3.636079e+03	2.614844e+03	0	8.864201e-04
1.240000e+09	2.900238e+13	0.000000e+00	8.160920e-01	3.960405e+14	4.560325e+14	3.135622e+13	1.094662e+04	3.631833e+03	2.611791e+03	0	8.826417e-04
1.250000e+09	2.863553e+13	0.000000e+00	8.160920e-01	3.915207e+14	4.510770e+14	3.122366e+13	1.092096e+04	3.627631e+03	2.608769e+03	0	8.789044e-04
1.260000e+09	2.827570e+13	0.000000e+00	8.160920e-01	3.870866e+14	4.462136e+14	3.109198e+13	1.089558e+04	3.623471e+03	2.605777e+03	0	8.752075e-04
1.270000e+09	2.792270e+13	0.000000e+00	8.160920e-01	3.827358e+14	4.414397e+14	3.096117e+13	1.087049e+04	3.619352e+03	2.602815e+03	0	8.715501e-04
1.280000e+09	2.757635e+13	0.000000e+00	8.160920e-01	3.784662e+14	4.367533e+14	3.083122e+13	1.084569e+04	3.615275e+03	2.599883e+03	0	8.679316e-04
1.290000e+09	2.723649e+13	0.000000e+00	8.160920e-01	3.742757e+14	4.321519e+14	3.070212e+13	1.082116e+04	3.611237e+03	2.596979e+03	0	8.643513e-04
1.300000e+09	2.690295e+13	0.000000e+00	8.160920e-01	3.701624e+14	4.276335e+14	3.057387e+13	1.079690e+04	3.607239e+03	2.594104e+03	0	8.608085e-04
1.310000e+09	2.657556e+13	0.000000e+00	8.160920e-01	3.661241e+14	4.231960e+14	3.044645e+13	1.077290e+04	3.603280e+03	2.591257e+03	0	8.573024e-04
1.320000e+09	2.625417e+13	0.000000e+00	8.160920e-01	3.621591e+14	4.188373e+14	3.031988e+13	1.074917e+04	3.599359e+03	2.588437e+03	0	8.538325e-04
1.330000e+09	2.593863e+13	0.000000e+00	8.160920e-01	3.582654e+14	4.145555e+14	3.019413e+13	1.072569e+04	3.595475e+03	2.585644e+03	0	8.503981e-04
1.340000e+09	2.562880e+13	0.000000e+00	8.160920e-01	3.544414e+14	4.103487e+14	3.006920e+13	1.070247e+04	3.591629e+03	2.582878e+03	0	8.469985e-04
1.350000e+09	2.532452e+13	0.000000e+00	8.160920e-01	3.506853e+14	4.062151e+14	2.994509e+13	1.067949e+04	3.587818e+03	2.580138e+03	0	8.436332e-04
1.360000e+09	2.502568e+13	0.000000e+00	8.160920e-01	3.469955e+14	4.021528e+14	2.982179e+13	1.065675e+04	3.584044e+03	2.577423e+03	0	8.403016e-04
