#t		Qconv[W]	Ri[Rp]		R*[Rp]		Qc[W]		Qm[W]		Qr[W]		Tcmb[K]		Tl[K]		Tup[K]		RiFlag		Bs[T]
0.000000e+00	9.162571e+12	0.000000e+00	8.117647e-01	1.603608e+14	3.855538e+14	6.471879e+13	1.012581e+04	3.175214e+03	2.737339e+03	0	6.063177e-04
1.000000e+07	9.020150e+12	0.000000e+00	8.117647e-01	1.586568e+14	3.692565e+14	6.436020e+13	1.011633e+04	3.155495e+03	2.720339e+03	0	6.031598e-04
2.000000e+07	8.885920e+12	0.000000e+00	8.117647e-01	1.570483e+14	3.547789e+14	6.400430e+13	1.010696e+04	3.137497e+03	2.704823e+03	0	6.001530e-04
3.000000e+07	8.758989e+12	0.000000e+00	8.117647e-01	1.555252e+14	3.418462e+14	6.365105e+13	1.009768e+04	3.121016e+03	2.690615e+03	0	5.972816e-04
4.000000e+07	8.638592e+12	0.000000e+00	8.117647e-01	1.540784e+14	3.302351e+14	6.330044e+13	1.008849e+04	3.105879e+03	2.677565e+03	0	5.945323e-04
5.000000e+07	8.524067e+12	0.000000e+00	8.117647e-01	1.527002e+14	3.197618e+14	6.295244e+13	1.007939e+04	3.091936e+03	2.665545e+03	0	5.918933e-04
6.000000e+07	8.414844e+12	0.000000e+00	8.117647e-01	1.513840e+14	3.102740e+14	6.260704e+13	1.007036e+04	3.079060e+03	2.654445e+03	0	5.893544e-04
7.000000e+07	8.310423e+12	0.000000e+00	8.117647e-01	1.501239e+14	3.016446e+14	6.226421e+13	1.006142e+04	3.067140e+03	2.644169e+03	0	5.869064e-04
8.000000e+07	8.210367e+12	0.000000e+00	8.117647e-01	1.489150e+14	2.937667e+14	6.192393e+13	1.005255e+04	3.056080e+03	2.634634e+03	0	5.845415e-04
9.000000e+07	8.114291e+12	0.000000e+00	8.117647e-01	1.477526e+14	2.865498e+14	6.158618e+13	1.004375e+04	3.045795e+03	2.625768e+03	0	5.822525e-04
1.000000e+08	8.021856e+12	0.000000e+00	8.117647e-01	1.466329e+14	2.799168e+14	6.125094e+13	1.003502e+04	3.036212e+03	2.617506e+03	0	5.800331e-04
1.100000e+08	7.932762e+12	0.000000e+00	8.117647e-01	1.455523e+14	2.738017e+14	6.091818e+13	1.002635e+04	3.027264e+03	2.609792e+03	0	5.778777e-04
1.200000e+08	7.846739e+12	0.000000e+00	8.117647e-01	1.445077e+14	2.681477e+14	6.058790e+13	1.001775e+04	3.018894e+03	2.602577e+03	0	5.757813e-04
1.300000e+08	7.763550e+12	0.000000e+00	8.117647e-01	1.434963e+14	2.629055e+14	6.026006e+13	1.000921e+04	3.011051e+03	2.595815e+03	0	5.737393e-04
1.400000e+08	7.682979e+12	0.000000e+00	8.117647e-01	1.425157e+14	2.580324e+14	5.993464e+13	1.000073e+04	3.003689e+03	2.589468e+03	0	5.717476e-04
1.500000e+08	7.604835e+12	0.000000e+00	8.117647e-01	1.415635e+14	2.534912e+14	5.961163e+13	9.992311e+03	2.996766e+03	2.583500e+03	0	5.698026e-04
1.600000e+08	7.528945e+12	0.000000e+00	8.117647e-01	1.406378e+14	2.492492e+14	5.929100e+13	9.983946e+03	2.990247e+03	2.577880e+03	0	5.679009e-04
1.700000e+08	7.455151e+12	0.000000e+00	8.117647e-01	1.397367e+14	2.452776e+14	5.897275e+13	9.975635e+03	2.984097e+03	2.572578e+03	0	5.660394e-04
1.800000e+08	7.383313e+12	0.000000e+00	8.117647e-01	1.388586e+14	2.415512e+14	5.865683e+13	9.967377e+03	2.978288e+03	2.567570e+03	0	5.642154e-04
1.900000e+08	7.313302e+12	0.000000e+00	8.117647e-01	1.380020e+14	2.380473e+14	5.834325e+13	9.959171e+03	2.972791e+03	2.562831e+03	0	5.624263e-04
2.000000e+08	7.245002e+12	0.000000e+00	8.117647e-01	1.371656e+14	2.347461e+14	5.803197e+13	9.951015e+03	2.967583e+03	2.558342e+03	0	5.606700e-04
2.100000e+08	7.178305e+12	0.000000e+00	8.117647e-01	1.363480e+14	2.316299e+14	5.772298e+13	9.942909e+03	2.962642e+03	2.554082e+03	0	5.589442e-04
2.200000e+08	7.113116e+12	0.000000e+00	8.117647e-01	1.355482e+14	2.286827e+14	5.741626e+13	9.934851e+03	2.957947e+03	2.550034e+03	0	5.572471e-04
2.300000e+08	7.049346e+12	0.000000e+00	8.117647e-01	1.347651e+14	2.258903e+14	5.711179e+13	9.926840e+03	2.953481e+03	2.546184e+03	0	5.555768e-04
2.400000e+08	6.986913e+12	0.000000e+00	8.117647e-01	1.339978e+14	2.232400e+14	5.680956e+13	9.918876e+03	2.949225e+03	2.542515e+03	0	5.539318e-04
2.500000e+08	6.925743e+12	0.000000e+00	8.117647e-01	1.332454e+14	2.207203e+14	5.650953e+13	9.910956e+03	2.945166e+03	2.539016e+03	0	5.523105e-04
2.600000e+08	6.865767e+12	0.000000e+00	8.117647e-01	1.325071e+14	2.183208e+14	5.621171e+13	9.903081e+03	2.941289e+03	2.535673e+03	0	5.507115e-04
2.700000e+08	6.806923e+12	0.000000e+00	8.117647e-01	1.317821e+14	2.160322e+14	5.591606e+13	9.895250e+03	2.937581e+03	2.532477e+03	0	5.491337e-04
2.800000e+08	6.749151e+12	0.000000e+00	8.117647e-01	1.310699e+14	2.138461e+14	5.562257e+13	9.887462e+03	2.934030e+03	2.529416e+03	0	5.475758e-04
2.900000e+08	6.692400e+12	0.000000e+00	8.117647e-01	1.303697e+14	2.117547e+14	5.533122e+13	9.879715e+03	2.930627e+03	2.526481e+03	0	5.460366e-04
3.000000e+08	6.636618e+12	0.000000e+00	8.117647e-01	1.296809e+14	2.097510e+14	5.504200e+13	9.872010e+03	2.927359e+03	2.523665e+03	0	5.445153e-04
3.100000e+08	6.581760e+12	0.000000e+00	8.117647e-01	1.290032e+14	2.078287e+14	5.475488e+13	9.864345e+03	2.924220e+03	2.520958e+03	0	5.430108e-04
3.200000e+08	6.527783e+12	0.000000e+00	8.117647e-01	1.283358e+14	2.059820e+14	5.446985e+13	9.856721e+03	2.921199e+03	2.518354e+03	0	5.415224e-04
3.300000e+08	6.474649e+12	0.000000e+00	8.117647e-01	1.276785e+14	2.042056e+14	5.418689e+13	9.849136e+03	2.918290e+03	2.515846e+03	0	5.400491e-04
3.400000e+08	6.422320e+12	0.000000e+00	8.117647e-01	1.270307e+14	2.024947e+14	5.390599e+13	9.841589e+03	2.915485e+03	2.513428e+03	0	5.385902e-04
3.500000e+08	6.370762e+12	0.000000e+00	8.117647e-01	1.263921e+14	2.008448e+14	5.362713e+13	9.834081e+03	2.912777e+03	2.511093e+03	0	5.371451e-04
3.600000e+08	6.319943e+12	0.000000e+00	8.117647e-01	1.257623e+14	1.992519e+14	5.335029e+13	9.826611e+03	2.910160e+03	2.508837e+03	0	5.357130e-04
3.700000e+08	6.269835e+12	0.000000e+00	8.117647e-01	1.251409e+14	1.977121e+14	5.307545e+13	9.819177e+03	2.907629e+03	2.506655e+03	0	5.342934e-04
3.800000e+08	6.220408e+12	0.000000e+00	8.117647e-01	1.245276e+14	1.962222e+14	5.280260e+13	9.811781e+03	2.905177e+03	2.504542e+03	0	5.328857e-04
3.900000e+08	6.171637e+12	0.000000e+00	8.117647e-01	1.239221e+14	1.947789e+14	5.253173e+13	9.804420e+03	2.902801e+03	2.502494e+03	0	5.314894e-04
4.000000e+08	6.123499e+12	0.000000e+00	8.117647e-01	1.233241e+14	1.933793e+14	5.226281e+13	9.797096e+03	2.900496e+03	2.500506e+03	0	5.301039e-04
4.100000e+08	6.075970e+12	0.000000e+00	8.117647e-01	1.227335e+14	1.920208e+14	5.199583e+13	9.789806e+03	2.898257e+03	2.498576e+03	0	5.287289e-04
4.200000e+08	6.029028e+12	0.000000e+00	8.117647e-01	1.221498e+14	1.907008e+14	5.173078e+13	9.782552e+03	2.896081e+03	2.496700e+03	0	5.273637e-04
4.300000e+08	5.982655e+12	0.000000e+00	8.117647e-01	1.215729e+14	1.894171e+14	5.146763e+13	9.775332e+03	2.893963e+03	2.494874e+03	0	5.260082e-04
4.400000e+08	5.936832e+12	0.000000e+00	8.117647e-01	1.210026e+14	1.881676e+14	5.120638e+13	9.768146e+03	2.891901e+03	2.493096e+03	0	5.246617e-04
4.500000e+08	5.891540e+12	0.000000e+00	8.117647e-01	1.204386e+14	1.869502e+14	5.094700e+13	9.760993e+03	2.889890e+03	2.491363e+03	0	5.233241e-04
4.600000e+08	5.846764e+12	0.000000e+00	8.117647e-01	1.198808e+14	1.857632e+14	5.068949e+13	9.753874e+03	2.887929e+03	2.489672e+03	0	5.219950e-04
4.700000e+08	5.802487e+12	0.000000e+00	8.117647e-01	1.193289e+14	1.846049e+14	5.043382e+13	9.746788e+03	2.886015e+03	2.488022e+03	0	5.206740e-04
4.800000e+08	5.758695e+12	0.000000e+00	8.117647e-01	1.187829e+14	1.834736e+14	5.017998e+13	9.739734e+03	2.884144e+03	2.486409e+03	0	5.193608e-04
4.900000e+08	5.715374e+12	0.000000e+00	8.117647e-01	1.182425e+14	1.823680e+14	4.992797e+13	9.732713e+03	2.882314e+03	2.484831e+03	0	5.180552e-04
5.000000e+08	5.672510e+12	0.000000e+00	8.117647e-01	1.177076e+14	1.812867e+14	4.967775e+13	9.725724e+03	2.880524e+03	2.483288e+03	0	5.167569e-04
5.100000e+08	5.630092e+12	0.000000e+00	8.117647e-01	1.171780e+14	1.802285e+14	4.942932e+13	9.718766e+03	2.878770e+03	2.481776e+03	0	5.154656e-04
5.200000e+08	5.588108e+12	0.000000e+00	8.117647e-01	1.166536e+14	1.791921e+14	4.918267e+13	9.711839e+03	2.877051e+03	2.480295e+03	0	5.141811e-04
5.300000e+08	5.546546e+12	0.000000e+00	8.117647e-01	1.161343e+14	1.781764e+14	4.893777e+13	9.704943e+03	2.875366e+03	2.478842e+03	0	5.129031e-04
5.400000e+08	5.505396e+12	0.000000e+00	8.117647e-01	1.156200e+14	1.771805e+14	4.869462e+13	9.698078e+03	2.873712e+03	2.477416e+03	0	5.116316e-04
5.500000e+08	5.464648e+12	0.000000e+00	8.117647e-01	1.151104e+14	1.762034e+14	4.845320e+13	9.691244e+03	2.872088e+03	2.476015e+03	0	5.103662e-04
5.600000e+08	5.424292e+12	0.000000e+00	8.117647e-01	1.146056e+14	1.752441e+14	4.821349e+13	9.684439e+03	2.870492e+03	2.474639e+03	0	5.091067e-04
5.700000e+08	5.384319e+12	0.000000e+00	8.117647e-01	1.141054e+14	1.743019e+14	4.797549e+13	9.677664e+03	2.868923e+03	2.473287e+03	0	5.078531e-04
5.800000e+08	5.344720e+12	0.000000e+00	8.117647e-01	1.136097e+14	1.733760e+14	4.773917e+13	9.670919e+03	2.867379e+03	2.471956e+03	0	5.066050e-04
5.900000e+08	5.305488e+12	0.000000e+00	8.117647e-01	1.131184e+14	1.724657e+14	4.750453e+13	9.664203e+03	2.865860e+03	2.470646e+03	0	5.053624e-04
6.000000e+08	5.266614e+12	0.000000e+00	8.117647e-01	1.126314e+14	1.715702e+14	4.727156e+13	9.657516e+03	2.864363e+03	2.469356e+03	0	5.041251e-04
6.100000e+08	5.228091e+12	0.000000e+00	8.117647e-01	1.121487e+14	1.706889e+14	4.704023e+13	9.650858e+03	2.862889e+03	2.468085e+03	0	5.028929e-04
6.200000e+08	5.189912e+12	0.000000e+00	8.117647e-01	1.116701e+14	1.698213e+14	4.681053e+13	9.644228e+03	2.861435e+03	2.466832e+03	0	5.016658e-04
6.300000e+08	5.152070e+12	0.000000e+00	8.117647e-01	1.111955e+14	1.689667e+14	4.658246e+13	9.637627e+03	2.860001e+03	2.465596e+03	0	5.004435e-04
6.400000e+08	5.114558e+12	0.000000e+00	8.117647e-01	1.107249e+14	1.681247e+14	4.635599e+13	9.631053e+03	2.858587e+03	2.464376e+03	0	4.992260e-04
6.500000e+08	5.077369e+12	0.000000e+00	8.117647e-01	1.102583e+14	1.672947e+14	4.613112e+13	9.624507e+03	2.857190e+03	2.463172e+03	0	4.980131e-04
6.600000e+08	5.040499e+12	0.000000e+00	8.117647e-01	1.097955e+14	1.664762e+14	4.590783e+13	9.617989e+03	2.855811e+03	2.461983e+03	0	4.968047e-04
6.700000e+08	5.003941e+12	0.000000e+00	8.117647e-01	1.093364e+14	1.656689e+14	4.568611e+13	9.611498e+03	2.854448e+03	2.460808e+03	0	4.956007e-04
6.800000e+08	4.967690e+12	0.000000e+00	8.117647e-01	1.088811e+14	1.648723e+14	4.546595e+13	9.605035e+03	2.853101e+03	2.459647e+03	0	4.944010e-04
6.900000e+08	4.931739e+12	0.000000e+00	8.117647e-01	1.084294e+14	1.640860e+14	4.524734e+13	9.598598e+03	2.851770e+03	2.458499e+03	0	4.932054e-04
7.000000e+08	4.896085e+12	0.000000e+00	8.117647e-01	1.079812e+14	1.633096e+14	4.503025e+13	9.592188e+03	2.850453e+03	2.457364e+03	0	4.920140e-04
7.100000e+08	4.860722e+12	0.000000e+00	8.117647e-01	1.075366e+14	1.625429e+14	4.481469e+13	9.585804e+03	2.849149e+03	2.456240e+03	0	4.908266e-04
7.200000e+08	4.825646e+12	0.000000e+00	8.117647e-01	1.070955e+14	1.617855e+14	4.460063e+13	9.579447e+03	2.847859e+03	2.455128e+03	0	4.896431e-04
7.300000e+08	4.790851e+12	0.000000e+00	8.117647e-01	1.066578e+14	1.610370e+14	4.438807e+13	9.573115e+03	2.846582e+03	2.454027e+03	0	4.884634e-04
7.400000e+08	4.756334e+12	0.000000e+00	8.117647e-01	1.062234e+14	1.602972e+14	4.417699e+13	9.566810e+03	2.845317e+03	2.452936e+03	0	4.872875e-04
7.500000e+08	4.722089e+12	0.000000e+00	8.117647e-01	1.057923e+14	1.595658e+14	4.396739e+13	9.560530e+03	2.844064e+03	2.451856e+03	0	4.861152e-04
7.600000e+08	4.688114e+12	0.000000e+00	8.117647e-01	1.053645e+14	1.588425e+14	4.375924e+13	9.554275e+03	2.842822e+03	2.450786e+03	0	4.849465e-04
7.700000e+08	4.654403e+12	0.000000e+00	8.117647e-01	1.049399e+14	1.581271e+14	4.355254e+13	9.548046e+03	2.841591e+03	2.449725e+03	0	4.837814e-04
7.800000e+08	4.620954e+12	0.000000e+00	8.117647e-01	1.045185e+14	1.574194e+14	4.334728e+13	9.541842e+03	2.840371e+03	2.448673e+03	0	4.826197e-04
7.900000e+08	4.587762e+12	0.000000e+00	8.117647e-01	1.041002e+14	1.567191e+14	4.314345e+13	9.535663e+03	2.839161e+03	2.447629e+03	0	4.814614e-04
8.000000e+08	4.554823e+12	0.000000e+00	8.117647e-01	1.036850e+14	1.560260e+14	4.294103e+13	9.529508e+03	2.837961e+03	2.446594e+03	0	4.803063e-04
8.100000e+08	4.522135e+12	0.000000e+00	8.117647e-01	1.032728e+14	1.553400e+14	4.274001e+13	9.523378e+03	2.836770e+03	2.445568e+03	0	4.791546e-04
8.200000e+08	4.489693e+12	0.000000e+00	8.117647e-01	1.028636e+14	1.546608e+14	4.254038e+13	9.517272e+03	2.835588e+03	2.444549e+03	0	4.780060e-04
8.300000e+08	4.457495e+12	0.000000e+00	8.117647e-01	1.024573e+14	1.539883e+14	4.234213e+13	9.511191e+03	2.834415e+03	2.443538e+03	0	4.768606e-04
8.400000e+08	4.425537e+12	0.000000e+00	8.117647e-01	1.020540e+14	1.533222e+14	4.214525e+13	9.505133e+03	2.833250e+03	2.442534e+03	0	4.757182e-04
8.500000e+08	4.393815e+12	0.000000e+00	8.117647e-01	1.016535e+14	1.526625e+14	4.194973e+13	9.499099e+03	2.832094e+03	2.441537e+03	0	4.745789e-04
8.600000e+08	4.362328e+12	0.000000e+00	8.117647e-01	1.012559e+14	1.520089e+14	4.175556e+13	9.493089e+03	2.830946e+03	2.440547e+03	0	4.734425e-04
8.700000e+08	4.331072e+12	0.000000e+00	8.117647e-01	1.008611e+14	1.513613e+14	4.156273e+13	9.487103e+03	2.829805e+03	2.439564e+03	0	4.723091e-04
8.800000e+08	4.300044e+12	0.000000e+00	8.117647e-01	1.004691e+14	1.507196e+14	4.137122e+13	9.481139e+03	2.828672e+03	2.438587e+03	0	4.711785e-04
8.900000e+08	4.269241e+12	0.000000e+00	8.117647e-01	1.000798e+14	1.500837e+14	4.118102e+13	9.475199e+03	2.827546e+03	2.437616e+03	0	4.700507e-04
9.000000e+08	4.238661e+12	0.000000e+00	8.117647e-01	9.969318e+13	1.494533e+14	4.099214e+13	9.469282e+03	2.826428e+03	2.436652e+03	0	4.689257e-04
9.100000e+08	4.208300e+12	0.000000e+00	8.117647e-01	9.930926e+13	1.488285e+14	4.080454e+13	9.463388e+03	2.825316e+03	2.435693e+03	0	4.678034e-04
9.200000e+08	4.178157e+12	0.000000e+00	8.117647e-01	9.892799e+13	1.482090e+14	4.061824e+13	9.457516e+03	2.824210e+03	2.434741e+03	0	4.666838e-04
9.300000e+08	4.148228e+12	0.000000e+00	8.117647e-01	9.854933e+13	1.475948e+14	4.043320e+13	9.451667e+03	2.823112e+03	2.433793e+03	0	4.655668e-04
9.400000e+08	4.118512e+12	0.000000e+00	8.117647e-01	9.817325e+13	1.469857e+14	4.024943e+13	9.445840e+03	2.822019e+03	2.432852e+03	0	4.644524e-04
9.500000e+08	4.089005e+12	0.000000e+00	8.117647e-01	9.779972e+13	1.463817e+14	4.006692e+13	9.440035e+03	2.820933e+03	2.431915e+03	0	4.633406e-04
9.600000e+08	4.059705e+12	0.000000e+00	8.117647e-01	9.742872e+13	1.457827e+14	3.988565e+13	9.434253e+03	2.819853e+03	2.430984e+03	0	4.622313e-04
9.700000e+08	4.030611e+12	0.000000e+00	8.117647e-01	9.706022e+13	1.451885e+14	3.970561e+13	9.428492e+03	2.818779e+03	2.430058e+03	0	4.611244e-04
9.800000e+08	4.001719e+12	0.000000e+00	8.117647e-01	9.669418e+13	1.445991e+14	3.952680e+13	9.422753e+03	2.817710e+03	2.429137e+03	0	4.600200e-04
9.900000e+08	3.973027e+12	0.000000e+00	8.117647e-01	9.633059e+13	1.440143e+14	3.934920e+13	9.417036e+03	2.816647e+03	2.428220e+03	0	4.589179e-04
1.000000e+09	3.944534e+12	0.000000e+00	8.117647e-01	9.596942e+13	1.434341e+14	3.917282e+13	9.411340e+03	2.815590e+03	2.427309e+03	0	4.578182e-04
1.010000e+09	3.916237e+12	0.000000e+00	8.117647e-01	9.561063e+13	1.428585e+14	3.899762e+13	9.405666e+03	2.814537e+03	2.426401e+03	0	4.567208e-04
1.020000e+09	3.888134e+12	0.000000e+00	8.117647e-01	9.525421e+13	1.422873e+14	3.882361e+13	9.400013e+03	2.813490e+03	2.425499e+03	0	4.556257e-04
1.030000e+09	3.860223e+12	0.000000e+00	8.117647e-01	9.490013e+13	1.417205e+14	3.865079e+13	9.394380e+03	2.812449e+03	2.424601e+03	0	4.545329e-04
1.040000e+09	3.832502e+12	0.000000e+00	8.117647e-01	9.454837e+13	1.411579e+14	3.847912e+13	9.388769e+03	2.811412e+03	2.423707e+03	0	4.534422e-04
1.050000e+09	3.804969e+12	0.000000e+00	8.117647e-01	9.419890e+13	1.405996e+14	3.830862e+13	9.383178e+03	2.810380e+03	2.422817e+03	0	4.523538e-04
1.060000e+09	3.777622e+12	0.000000e+00	8.117647e-01	9.385170e+13	1.400455e+14	3.813927e+13	9.377609e+03	2.809352e+03	2.421931e+03	0	4.512674e-04
1.070000e+09	3.750459e+12	0.000000e+00	8.117647e-01	9.350675e+13	1.394954e+14	3.797106e+13	9.372059e+03	2.808330e+03	2.421050e+03	0	4.501832e-04
1.080000e+09	3.723478e+12	0.000000e+00	8.117647e-01	9.316402e+13	1.389494e+14	3.780398e+13	9.366530e+03	2.807312e+03	2.420173e+03	0	4.491011e-04
1.090000e+09	3.696678e+12	0.000000e+00	8.117647e-01	9.282350e+13	1.384073e+14	3.763802e+13	9.361021e+03	2.806299e+03	2.419299e+03	0	4.480210e-04
1.100000e+09	3.670056e+12	0.000000e+00	8.117647e-01	9.248515e+13	1.378692e+14	3.747318e+13	9.355533e+03	2.805290e+03	2.418429e+03	0	4.469429e-04
1.110000e+09	3.643611e+12	0.000000e+00	8.117647e-01	9.214896e+13	1.373349e+14	3.730945e+13	9.350064e+03	2.804285e+03	2.417563e+03	0	4.458668e-04
1.120000e+09	3.617341e+12	0.000000e+00	8.117647e-01	9.181491e+13	1.368044e+14	3.714681e+13	9.344615e+03	2.803285e+03	2.416701e+03	0	4.447927e-04
1.130000e+09	3.591244e+12	0.000000e+00	8.117647e-01	9.148298e+13	1.362776e+14	3.698526e+13	9.339186e+03	2.802289e+03	2.415842e+03	0	4.437205e-04
1.140000e+09	3.565318e+12	0.000000e+00	8.117647e-01	9.115314e+13	1.357546e+14	3.682479e+13	9.333777e+03	2.801298e+03	2.414987e+03	0	4.426501e-04
1.150000e+09	3.539563e+12	0.000000e+00	8.117647e-01	9.082538e+13	1.352352e+14	3.666539e+13	9.328387e+03	2.800310e+03	2.414136e+03	0	4.415817e-04
1.160000e+09	3.513976e+12	0.000000e+00	8.117647e-01	9.049968e+13	1.347194e+14	3.650705e+13	9.323016e+03	2.799326e+03	2.413288e+03	0	4.405150e-04
1.170000e+09	3.488556e+12	0.000000e+00	8.117647e-01	9.017601e+13	1.342072e+14	3.634977e+13	9.317665e+03	2.798347e+03	2.412444e+03	0	4.394502e-04
1.180000e+09	3.463300e+12	0.000000e+00	8.117647e-01	8.985437e+13	1.336985e+14	3.619353e+13	9.312332e+03	2.797371e+03	2.411602e+03	0	4.383872e-04
1.190000e+09	3.438208e+12	0.000000e+00	8.117647e-01	8.953472e+13	1.331932e+14	3.603834e+13	9.307019e+03	2.796399e+03	2.410765e+03	0	4.373259e-04
1.200000e+09	3.413279e+12	0.000000e+00	8.117647e-01	8.921705e+13	1.326914e+14	3.588417e+13	9.301724e+03	2.795431e+03	2.409930e+03	0	4.362664e-04
1.210000e+09	3.388509e+12	0.000000e+00	8.117647e-01	8.890135e+13	1.321929e+14	3.573103e+13	9.296449e+03	2.794467e+03	2.409099e+03	0	4.352085e-04
1.220000e+09	3.363899e+12	0.000000e+00	8.117647e-01	8.858759e+13	1.316978e+14	3.557890e+13	9.291192e+03	2.793506e+03	2.408271e+03	0	4.341523e-04
1.230000e+09	3.339446e+12	0.000000e+00	8.117647e-01	8.827576e+13	1.312060e+14	3.542778e+13	9.285953e+03	2.792549e+03	2.407446e+03	0	4.330978e-04
1.240000e+09	3.315149e+12	0.000000e+00	8.117647e-01	8.796584e+13	1.307175e+14	3.527765e+13	9.280733e+03	2.791596e+03	2.406624e+03	0	4.320448e-04
1.250000e+09	3.291006e+12	0.000000e+00	8.117647e-01	8.765781e+13	1.302322e+14	3.512852e+13	9.275531e+03	2.790647e+03	2.405805e+03	0	4.309935e-04
1.260000e+09	3.267017e+12	0.000000e+00	8.117647e-01	8.735165e+13	1.297501e+14	3.498037e+13	9.270348e+03	2.789700e+03	2.404989e+03	0	4.299437e-04
1.270000e+09	3.243179e+12	0.000000e+00	8.117647e-01	8.704736e+13	1.292711e+14	3.483320e+13	9.265182e+03	2.788758e+03	2.404177e+03	0	4.288955e-04
1.280000e+09	3.219492e+12	0.000000e+00	8.117647e-01	8.674490e+13	1.287952e+14	3.468699e+13	9.260035e+03	2.787818e+03	2.403367e+03	0	4.278488e-04
1.290000e+09	3.195954e+12	0.000000e+00	8.117647e-01	8.644427e+13	1.283225e+14	3.454175e+13	9.254905e+03	2.786883e+03	2.402560e+03	0	4.268035e-04
1.300000e+09	3.172564e+12	0.000000e+00	8.117647e-01	8.614546e+13	1.278528e+14	3.439746e+13	9.249793e+03	2.785950e+03	2.401757e+03	0	4.257598e-04
1.310000e+09	3.149320e+12	0.000000e+00	8.117647e-01	8.584843e+13	1.273861e+14	3.425411e+13	9.244699e+03	2.785021e+03	2.400956e+03	0	4.247174e-04
1.320000e+09	3.126221e+12	0.000000e+00	8.117647e-01	8.555318e+13	1.269224e+14	3.411170e+13	9.239622e+03	2.784095e+03	2.400157e+03	0	4.236765e-04
1.330000e+09	3.103266e+12	0.000000e+00	8.117647e-01	8.525970e+13	1.264616e+14	3.397023e+13	9.234563e+03	2.783173e+03	2.399362e+03	0	4.226370e-04
1.340000e+09	3.080453e+12	0.000000e+00	8.117647e-01	8.496796e+13	1.260038e+14	3.382968e+13	9.229521e+03	2.782254e+03	2.398570e+03	0	4.215988e-04
1.350000e+09	3.057782e+12	0.000000e+00	8.117647e-01	8.467795e+13	1.255489e+14	3.369004e+13	9.224496e+03	2.781337e+03	2.397780e+03	0	4.205620e-04
1.360000e+09	3.035251e+12	0.000000e+00	8.117647e-01	8.438967e+13	1.250968e+14	3.355132e+13	9.219489e+03	2.780425e+03	2.396993e+03	0	4.195264e-04
