#t		Qconv[W]	Ri[Rp]		R*[Rp]		Qc[W]		Qm[W]		Qr[W]		Tcmb[K]		Tl[K]		Tup[K]		RiFlag		Bs[T]
0.000000e+00	6.190123e+15	0.000000e+00	8.139535e-01	6.688053e+16	2.474035e+15	7.037723e+13	5.233775e+04	4.158451e+03	2.734423e+03	0	5.243195e-03
1.000000e+07	5.335980e+15	0.000000e+00	8.139535e-01	5.767866e+16	1.326485e+15	6.998729e+13	4.914199e+04	3.816727e+03	2.509720e+03	0	4.990005e-03
2.000000e+07	4.622162e+15	0.000000e+00	8.139535e-01	4.998791e+16	1.283897e+16	6.960027e+13	4.637580e+04	5.682428e+03	3.736527e+03	0	4.756761e-03
3.000000e+07	4.057446e+15	0.000000e+00	8.139535e-01	4.390213e+16	9.299667e+15	6.921613e+13	4.396611e+04	5.371937e+03	3.532360e+03	0	4.554568e-03
4.000000e+07	3.576902e+15	0.000000e+00	8.139535e-01	3.872298e+16	1.692310e+16	6.883487e+13	4.184318e+04	6.136382e+03	4.035028e+03	0	4.367155e-03
5.000000e+07	3.176610e+15	0.000000e+00	8.139535e-01	3.440802e+16	2.184488e+16	6.845645e+13	3.996394e+04	6.558415e+03	4.312539e+03	0	4.197760e-03
6.000000e+07	2.838897e+15	0.000000e+00	8.139535e-01	3.076704e+16	2.580418e+16	6.808085e+13	3.828893e+04	6.882238e+03	4.525471e+03	0	4.043395e-03
7.000000e+07	2.552594e+15	0.000000e+00	8.139535e-01	2.767978e+16	2.743792e+16	6.770804e+13	3.678699e+04	7.045881e+03	4.633076e+03	0	3.902625e-03
8.000000e+07	2.307978e+15	0.000000e+00	8.139535e-01	2.504158e+16	2.672465e+16	6.733801e+13	3.543238e+04	7.057958e+03	4.641018e+03	0	3.773753e-03
9.000000e+07	2.096675e+15	0.000000e+00	8.139535e-01	2.276227e+16	2.482493e+16	6.697073e+13	3.420415e+04	6.985693e+03	4.593499e+03	0	3.654882e-03
1.000000e+08	1.912448e+15	0.000000e+00	8.139535e-01	2.077471e+16	2.270225e+16	6.660618e+13	3.308543e+04	6.886388e+03	4.528200e+03	0	3.544537e-03
1.100000e+08	1.750806e+15	0.000000e+00	8.139535e-01	1.903054e+16	2.073244e+16	6.624433e+13	3.206246e+04	6.785365e+03	4.461771e+03	0	3.441721e-03
1.200000e+08	1.608295e+15	0.000000e+00	8.139535e-01	1.749255e+16	1.899103e+16	6.588517e+13	3.112372e+04	6.689949e+03	4.399030e+03	0	3.345683e-03
1.300000e+08	1.482111e+15	0.000000e+00	8.139535e-01	1.613055e+16	1.746302e+16	6.552866e+13	3.025941e+04	6.601199e+03	4.340672e+03	0	3.255791e-03
1.400000e+08	1.369933e+15	0.000000e+00	8.139535e-01	1.491953e+16	1.611744e+16	6.517479e+13	2.946115e+04	6.518596e+03	4.286355e+03	0	3.171485e-03
1.500000e+08	1.269824e+15	0.000000e+00	8.139535e-01	1.383862e+16	1.492579e+16	6.482354e+13	2.872175e+04	6.441411e+03	4.235602e+03	0	3.092271e-03
1.600000e+08	1.180162e+15	0.000000e+00	8.139535e-01	1.287034e+16	1.386474e+16	6.447489e+13	2.803498e+04	6.369004e+03	4.187990e+03	0	3.017705e-03
1.700000e+08	1.099576e+15	0.000000e+00	8.139535e-01	1.199994e+16	1.291538e+16	6.412880e+13	2.739544e+04	6.300849e+03	4.143174e+03	0	2.947393e-03
1.800000e+08	1.026911e+15	0.000000e+00	8.139535e-01	1.121495e+16	1.206233e+16	6.378527e+13	2.679842e+04	6.236514e+03	4.100870e+03	0	2.880982e-03
1.900000e+08	9.611825e+14	0.000000e+00	8.139535e-01	1.050478e+16	1.129285e+16	6.344427e+13	2.623983e+04	6.175636e+03	4.060840e+03	0	2.818155e-03
2.000000e+08	9.015526e+14	0.000000e+00	8.139535e-01	9.860384e+15	1.059631e+16	6.310577e+13	2.571603e+04	6.117908e+03	4.022880e+03	0	2.758629e-03
2.100000e+08	8.473024e+14	0.000000e+00	8.139535e-01	9.274022e+15	9.963761e+15	6.276977e+13	2.522387e+04	6.063060e+03	3.986814e+03	0	2.702148e-03
2.200000e+08	7.978141e+14	0.000000e+00	8.139535e-01	8.739034e+15	9.387589e+15	6.243623e+13	2.476053e+04	6.010861e+03	3.952490e+03	0	2.648481e-03
2.300000e+08	7.525543e+14	0.000000e+00	8.139535e-01	8.249670e+15	8.861296e+15	6.210514e+13	2.432352e+04	5.961104e+03	3.919772e+03	0	2.597420e-03
2.400000e+08	7.110610e+14	0.000000e+00	8.139535e-01	7.800949e+15	8.379293e+15	6.177648e+13	2.391062e+04	5.913605e+03	3.888539e+03	0	2.548777e-03
2.500000e+08	6.729324e+14	0.000000e+00	8.139535e-01	7.388541e+15	7.936754e+15	6.145023e+13	2.351986e+04	5.868200e+03	3.858683e+03	0	2.502381e-03
2.600000e+08	6.378181e+14	0.000000e+00	8.139535e-01	7.008666e+15	7.529492e+15	6.112636e+13	2.314947e+04	5.824742e+03	3.830106e+03	0	2.458075e-03
2.700000e+08	6.054115e+14	0.000000e+00	8.139535e-01	6.658019e+15	7.153858e+15	6.080486e+13	2.279787e+04	5.783098e+03	3.802723e+03	0	2.415719e-03
2.800000e+08	5.754434e+14	0.000000e+00	8.139535e-01	6.333698e+15	6.806662e+15	6.048571e+13	2.246362e+04	5.743146e+03	3.776452e+03	0	2.375183e-03
2.900000e+08	5.476769e+14	0.000000e+00	8.139535e-01	6.033145e+15	6.485105e+15	6.016889e+13	2.214544e+04	5.704777e+03	3.751223e+03	0	2.336349e-03
3.000000e+08	5.219027e+14	0.000000e+00	8.139535e-01	5.754106e+15	6.186721e+15	5.985438e+13	2.184216e+04	5.667891e+03	3.726968e+03	0	2.299108e-03
3.100000e+08	4.979355e+14	0.000000e+00	8.139535e-01	5.494582e+15	5.909333e+15	5.954216e+13	2.155274e+04	5.632397e+03	3.703628e+03	0	2.263362e-03
3.200000e+08	4.756110e+14	0.000000e+00	8.139535e-01	5.252799e+15	5.651012e+15	5.923221e+13	2.127621e+04	5.598210e+03	3.681148e+03	0	2.229018e-03
3.300000e+08	4.547829e+14	0.000000e+00	8.139535e-01	5.027178e+15	5.410045e+15	5.892452e+13	2.101170e+04	5.565253e+03	3.659477e+03	0	2.195993e-03
3.400000e+08	4.353204e+14	0.000000e+00	8.139535e-01	4.816312e+15	5.184905e+15	5.861906e+13	2.075841e+04	5.533456e+03	3.638568e+03	0	2.164209e-03
3.500000e+08	4.171070e+14	0.000000e+00	8.139535e-01	4.618940e+15	4.974232e+15	5.831581e+13	2.051563e+04	5.502752e+03	3.618379e+03	0	2.133596e-03
3.600000e+08	4.000380e+14	0.000000e+00	8.139535e-01	4.433933e+15	4.776803e+15	5.801477e+13	2.028269e+04	5.473083e+03	3.598870e+03	0	2.104085e-03
3.700000e+08	3.840194e+14	0.000000e+00	8.139535e-01	4.260278e+15	4.591527e+15	5.771590e+13	2.005897e+04	5.444391e+03	3.580003e+03	0	2.075618e-03
3.800000e+08	3.689666e+14	0.000000e+00	8.139535e-01	4.097062e+15	4.417418e+15	5.741920e+13	1.984391e+04	5.416624e+03	3.561745e+03	0	2.048135e-03
3.900000e+08	3.548034e+14	0.000000e+00	8.139535e-01	3.943460e+15	4.253590e+15	5.712464e+13	1.963701e+04	5.389736e+03	3.544064e+03	0	2.021586e-03
4.000000e+08	3.414607e+14	0.000000e+00	8.139535e-01	3.798729e+15	4.099242e+15	5.683221e+13	1.943778e+04	5.363680e+03	3.526931e+03	0	1.995920e-03
4.100000e+08	3.288762e+14	0.000000e+00	8.139535e-01	3.662194e+15	3.953651e+15	5.654189e+13	1.924579e+04	5.338416e+03	3.510319e+03	0	1.971093e-03
4.200000e+08	3.169931e+14	0.000000e+00	8.139535e-01	3.533245e+15	3.816160e+15	5.625366e+13	1.906063e+04	5.313904e+03	3.494201e+03	0	1.947061e-03
4.300000e+08	3.057601e+14	0.000000e+00	8.139535e-01	3.411326e+15	3.686172e+15	5.596750e+13	1.888192e+04	5.290109e+03	3.478554e+03	0	1.923785e-03
4.400000e+08	2.951303e+14	0.000000e+00	8.139535e-01	3.295930e+15	3.563145e+15	5.568341e+13	1.870932e+04	5.266995e+03	3.463355e+03	0	1.901228e-03
4.500000e+08	2.850610e+14	0.000000e+00	8.139535e-01	3.186597e+15	3.446585e+15	5.540135e+13	1.854250e+04	5.244532e+03	3.448584e+03	0	1.879355e-03
4.600000e+08	2.755131e+14	0.000000e+00	8.139535e-01	3.082905e+15	3.336040e+15	5.512133e+13	1.838116e+04	5.222690e+03	3.434222e+03	0	1.858134e-03
4.700000e+08	2.664511e+14	0.000000e+00	8.139535e-01	2.984469e+15	3.231099e+15	5.484331e+13	1.822503e+04	5.201440e+03	3.420249e+03	0	1.837534e-03
4.800000e+08	2.578421e+14	0.000000e+00	8.139535e-01	2.890936e+15	3.131383e+15	5.456728e+13	1.807383e+04	5.180757e+03	3.406649e+03	0	1.817527e-03
4.900000e+08	2.496563e+14	0.000000e+00	8.139535e-01	2.801982e+15	3.036547e+15	5.429323e+13	1.792732e+04	5.160616e+03	3.393405e+03	0	1.798086e-03
5.000000e+08	2.418660e+14	0.000000e+00	8.139535e-01	2.717309e+15	2.946271e+15	5.402113e+13	1.778529e+04	5.140994e+03	3.380502e+03	0	1.779185e-03
5.100000e+08	2.344460e+14	0.000000e+00	8.139535e-01	2.636644e+15	2.860264e+15	5.375098e+13	1.764751e+04	5.121868e+03	3.367926e+03	0	1.760802e-03
5.200000e+08	2.273729e+14	0.000000e+00	8.139535e-01	2.559734e+15	2.778255e+15	5.348276e+13	1.751378e+04	5.103219e+03	3.355663e+03	0	1.742913e-03
5.300000e+08	2.206251e+14	0.000000e+00	8.139535e-01	2.486347e+15	2.699998e+15	5.321646e+13	1.738393e+04	5.085027e+03	3.343701e+03	0	1.725498e-03
5.400000e+08	2.141827e+14	0.000000e+00	8.139535e-01	2.416267e+15	2.625262e+15	5.295205e+13	1.725776e+04	5.067273e+03	3.332027e+03	0	1.708537e-03
5.500000e+08	2.080275e+14	0.000000e+00	8.139535e-01	2.349297e+15	2.553834e+15	5.268952e+13	1.713512e+04	5.049941e+03	3.320629e+03	0	1.692011e-03
5.600000e+08	2.021423e+14	0.000000e+00	8.139535e-01	2.285251e+15	2.485520e+15	5.242885e+13	1.701585e+04	5.033013e+03	3.309498e+03	0	1.675902e-03
5.700000e+08	1.965114e+14	0.000000e+00	8.139535e-01	2.223960e+15	2.420137e+15	5.217004e+13	1.689981e+04	5.016475e+03	3.298624e+03	0	1.660194e-03
5.800000e+08	1.911201e+14	0.000000e+00	8.139535e-01	2.165264e+15	2.357516e+15	5.191307e+13	1.678685e+04	5.000311e+03	3.287995e+03	0	1.644870e-03
5.900000e+08	1.859548e+14	0.000000e+00	8.139535e-01	2.109018e+15	2.297501e+15	5.165791e+13	1.667686e+04	4.984507e+03	3.277603e+03	0	1.629917e-03
6.000000e+08	1.810030e+14	0.000000e+00	8.139535e-01	2.055085e+15	2.239946e+15	5.140456e+13	1.656969e+04	4.969051e+03	3.267440e+03	0	1.615318e-03
6.100000e+08	1.762527e+14	0.000000e+00	8.139535e-01	2.003336e+15	2.184716e+15	5.115301e+13	1.646525e+04	4.953930e+03	3.257497e+03	0	1.601062e-03
6.200000e+08	1.716931e+14	0.000000e+00	8.139535e-01	1.953654e+15	2.131683e+15	5.090323e+13	1.636342e+04	4.939131e+03	3.247766e+03	0	1.587135e-03
6.300000e+08	1.673140e+14	0.000000e+00	8.139535e-01	1.905928e+15	2.080731e+15	5.065521e+13	1.626409e+04	4.924644e+03	3.238239e+03	0	1.573525e-03
6.400000e+08	1.631057e+14	0.000000e+00	8.139535e-01	1.860054e+15	2.031750e+15	5.040895e+13	1.616718e+04	4.910457e+03	3.228910e+03	0	1.560220e-03
6.500000e+08	1.590593e+14	0.000000e+00	8.139535e-01	1.815937e+15	1.984635e+15	5.016442e+13	1.607258e+04	4.896560e+03	3.219772e+03	0	1.547210e-03
6.600000e+08	1.551666e+14	0.000000e+00	8.139535e-01	1.773485e+15	1.939293e+15	4.992161e+13	1.598020e+04	4.882943e+03	3.210819e+03	0	1.534484e-03
6.700000e+08	1.514197e+14	0.000000e+00	8.139535e-01	1.732614e+15	1.895632e+15	4.968050e+13	1.588997e+04	4.869598e+03	3.202043e+03	0	1.522032e-03
6.800000e+08	1.478112e+14	0.000000e+00	8.139535e-01	1.693246e+15	1.853568e+15	4.944109e+13	1.580181e+04	4.856514e+03	3.193440e+03	0	1.509844e-03
6.900000e+08	1.443344e+14	0.000000e+00	8.139535e-01	1.655305e+15	1.813023e+15	4.920336e+13	1.571564e+04	4.843684e+03	3.185003e+03	0	1.497912e-03
7.000000e+08	1.409827e+14	0.000000e+00	8.139535e-01	1.618722e+15	1.773922e+15	4.896730e+13	1.563138e+04	4.831099e+03	3.176728e+03	0	1.486226e-03
7.100000e+08	1.377501e+14	0.000000e+00	8.139535e-01	1.583432e+15	1.736195e+15	4.873289e+13	1.554897e+04	4.818751e+03	3.168609e+03	0	1.474779e-03
7.200000e+08	1.346310e+14	0.000000e+00	8.139535e-01	1.549374e+15	1.699777e+15	4.850012e+13	1.546835e+04	4.806634e+03	3.160641e+03	0	1.463563e-03
7.300000e+08	1.316200e+14	0.000000e+00	8.139535e-01	1.516488e+15	1.664608e+15	4.826897e+13	1.538945e+04	4.794739e+03	3.152820e+03	0	1.452569e-03
7.400000e+08	1.287120e+14	0.000000e+00	8.139535e-01	1.484721e+15	1.630627e+15	4.803944e+13	1.531222e+04	4.783061e+03	3.145140e+03	0	1.441792e-03
7.500000e+08	1.259024e+14	0.000000e+00	8.139535e-01	1.454021e+15	1.597782e+15	4.781151e+13	1.523659e+04	4.771592e+03	3.137599e+03	0	1.431224e-03
7.600000e+08	1.231865e+14	0.000000e+00	8.139535e-01	1.424340e+15	1.566020e+15	4.758516e+13	1.516252e+04	4.760326e+03	3.130191e+03	0	1.420858e-03
7.700000e+08	1.205603e+14	0.000000e+00	8.139535e-01	1.395632e+15	1.535293e+15	4.736039e+13	1.508995e+04	4.749257e+03	3.122912e+03	0	1.410688e-03
7.800000e+08	1.180197e+14	0.000000e+00	8.139535e-01	1.367855e+15	1.505556e+15	4.713719e+13	1.501883e+04	4.738379e+03	3.115760e+03	0	1.400709e-03
7.900000e+08	1.155610e+14	0.000000e+00	8.139535e-01	1.340966e+15	1.476764e+15	4.691553e+13	1.494912e+04	4.727688e+03	3.108729e+03	0	1.390913e-03
8.000000e+08	1.131806e+14	0.000000e+00	8.139535e-01	1.314929e+15	1.448877e+15	4.669541e+13	1.488077e+04	4.717177e+03	3.101818e+03	0	1.381297e-03
8.100000e+08	1.108752e+14	0.000000e+00	8.139535e-01	1.289706e+15	1.421856e+15	4.647681e+13	1.481374e+04	4.706841e+03	3.095021e+03	0	1.371854e-03
8.200000e+08	1.086416e+14	0.000000e+00	8.139535e-01	1.265262e+15	1.395665e+15	4.625973e+13	1.474799e+04	4.696676e+03	3.088337e+03	0	1.362579e-03
8.300000e+08	1.064767e+14	0.000000e+00	8.139535e-01	1.241566e+15	1.370269e+15	4.604415e+13	1.468348e+04	4.686677e+03	3.081762e+03	0	1.353467e-03
8.400000e+08	1.043777e+14	0.000000e+00	8.139535e-01	1.218587e+15	1.345634e+15	4.583006e+13	1.462017e+04	4.676839e+03	3.075293e+03	0	1.344514e-03
8.500000e+08	1.023419e+14	0.000000e+00	8.139535e-01	1.196294e+15	1.321731e+15	4.561745e+13	1.455802e+04	4.667157e+03	3.068927e+03	0	1.335716e-03
8.600000e+08	1.003667e+14	0.000000e+00	8.139535e-01	1.174660e+15	1.298528e+15	4.540630e+13	1.449701e+04	4.657629e+03	3.062661e+03	0	1.327067e-03
8.700000e+08	9.844967e+13	0.000000e+00	8.139535e-01	1.153659e+15	1.275999e+15	4.519660e+13	1.443709e+04	4.648249e+03	3.056494e+03	0	1.318563e-03
8.800000e+08	9.658854e+13	0.000000e+00	8.139535e-01	1.133265e+15	1.254116e+15	4.498835e+13	1.437824e+04	4.639014e+03	3.050421e+03	0	1.310202e-03
8.900000e+08	9.478107e+13	0.000000e+00	8.139535e-01	1.113456e+15	1.232855e+15	4.478153e+13	1.432042e+04	4.629919e+03	3.044441e+03	0	1.301977e-03
9.000000e+08	9.302518e+13	0.000000e+00	8.139535e-01	1.094207e+15	1.212190e+15	4.457613e+13	1.426361e+04	4.620962e+03	3.038551e+03	0	1.293887e-03
9.100000e+08	9.131886e+13	0.000000e+00	8.139535e-01	1.075497e+15	1.192099e+15	4.437213e+13	1.420777e+04	4.612139e+03	3.032749e+03	0	1.285927e-03
9.200000e+08	8.966024e+13	0.000000e+00	8.139535e-01	1.057307e+15	1.172561e+15	4.416953e+13	1.415289e+04	4.603446e+03	3.027033e+03	0	1.278094e-03
9.300000e+08	8.804750e+13	0.000000e+00	8.139535e-01	1.039615e+15	1.153554e+15	4.396832e+13	1.409892e+04	4.594881e+03	3.021401e+03	0	1.270385e-03
9.400000e+08	8.647892e+13	0.000000e+00	8.139535e-01	1.022404e+15	1.135059e+15	4.376849e+13	1.404586e+04	4.586439e+03	3.015850e+03	0	1.262795e-03
9.500000e+08	8.495287e+13	0.000000e+00	8.139535e-01	1.005657e+15	1.117056e+15	4.357001e+13	1.399367e+04	4.578118e+03	3.010379e+03	0	1.255323e-03
9.600000e+08	8.346779e+13	0.000000e+00	8.139535e-01	9.893546e+14	1.099529e+15	4.337290e+13	1.394233e+04	4.569916e+03	3.004985e+03	0	1.247965e-03
9.700000e+08	8.202218e+13	0.000000e+00	8.139535e-01	9.734825e+14	1.082459e+15	4.317712e+13	1.389182e+04	4.561829e+03	2.999667e+03	0	1.240719e-03
9.800000e+08	8.061462e+13	0.000000e+00	8.139535e-01	9.580246e+14	1.065830e+15	4.298267e+13	1.384211e+04	4.553854e+03	2.994423e+03	0	1.233581e-03
9.900000e+08	7.924375e+13	0.000000e+00	8.139535e-01	9.429664e+14	1.049627e+15	4.278955e+13	1.379319e+04	4.545989e+03	2.989252e+03	0	1.226548e-03
1.000000e+09	7.790828e+13	0.000000e+00	8.139535e-01	9.282937e+14	1.033834e+15	4.259774e+13	1.374504e+04	4.538231e+03	2.984151e+03	0	1.219619e-03
1.010000e+09	7.660697e+13	0.000000e+00	8.139535e-01	9.139930e+14	1.018438e+15	4.240723e+13	1.369763e+04	4.530578e+03	2.979118e+03	0	1.212790e-03
1.020000e+09	7.533862e+13	0.000000e+00	8.139535e-01	9.000515e+14	1.003424e+15	4.221801e+13	1.365095e+04	4.523028e+03	2.974153e+03	0	1.206060e-03
1.030000e+09	7.410212e+13	0.000000e+00	8.139535e-01	8.864569e+14	9.887800e+14	4.203007e+13	1.360497e+04	4.515577e+03	2.969254e+03	0	1.199425e-03
1.040000e+09	7.289636e+13	0.000000e+00	8.139535e-01	8.731974e+14	9.744930e+14	4.184340e+13	1.355969e+04	4.508224e+03	2.964419e+03	0	1.192884e-03
1.050000e+09	7.172032e+13	0.000000e+00	8.139535e-01	8.602618e+14	9.605511e+14	4.165799e+13	1.351508e+04	4.500967e+03	2.959647e+03	0	1.186434e-03
1.060000e+09	7.057300e+13	0.000000e+00	8.139535e-01	8.476391e+14	9.469429e+14	4.147383e+13	1.347113e+04	4.493803e+03	2.954937e+03	0	1.180074e-03
1.070000e+09	6.945344e+13	0.000000e+00	8.139535e-01	8.353192e+14	9.336573e+14	4.129091e+13	1.342782e+04	4.486731e+03	2.950286e+03	0	1.173800e-03
1.080000e+09	6.836074e+13	0.000000e+00	8.139535e-01	8.232920e+14	9.206838e+14	4.110923e+13	1.338514e+04	4.479748e+03	2.945695e+03	0	1.167612e-03
1.090000e+09	6.729401e+13	0.000000e+00	8.139535e-01	8.115481e+14	9.080123e+14	4.092876e+13	1.334307e+04	4.472853e+03	2.941161e+03	0	1.161507e-03
1.100000e+09	6.625242e+13	0.000000e+00	8.139535e-01	8.000783e+14	8.956332e+14	4.074951e+13	1.330160e+04	4.466043e+03	2.936683e+03	0	1.155483e-03
1.110000e+09	6.523516e+13	0.000000e+00	8.139535e-01	7.888739e+14	8.835370e+14	4.057145e+13	1.326071e+04	4.459318e+03	2.932260e+03	0	1.149538e-03
1.120000e+09	6.424146e+13	0.000000e+00	8.139535e-01	7.779266e+14	8.717150e+14	4.039460e+13	1.322039e+04	4.452674e+03	2.927892e+03	0	1.143672e-03
1.130000e+09	6.327058e+13	0.000000e+00	8.139535e-01	7.672281e+14	8.601585e+14	4.021892e+13	1.318063e+04	4.446111e+03	2.923576e+03	0	1.137881e-03
1.140000e+09	6.232180e+13	0.000000e+00	8.139535e-01	7.567708e+14	8.488593e+14	4.004442e+13	1.314141e+04	4.439626e+03	2.919312e+03	0	1.132165e-03
1.150000e+09	6.139444e+13	0.000000e+00	8.139535e-01	7.465473e+14	8.378094e+14	3.987108e+13	1.310272e+04	4.433218e+03	2.915099e+03	0	1.126521e-03
1.160000e+09	6.048784e+13	0.000000e+00	8.139535e-01	7.365503e+14	8.270014e+14	3.969890e+13	1.306456e+04	4.426886e+03	2.910935e+03	0	1.120948e-03
1.170000e+09	5.960137e+13	0.000000e+00	8.139535e-01	7.267731e+14	8.164279e+14	3.952787e+13	1.302690e+04	4.420628e+03	2.906820e+03	0	1.115445e-03
1.180000e+09	5.873442e+13	0.000000e+00	8.139535e-01	7.172089e+14	8.060818e+14	3.935798e+13	1.298974e+04	4.414443e+03	2.902753e+03	0	1.110011e-03
1.190000e+09	5.788640e+13	0.000000e+00	8.139535e-01	7.078515e+14	7.959564e+14	3.918921e+13	1.295307e+04	4.408328e+03	2.898732e+03	0	1.104643e-03
1.200000e+09	5.705675e+13	0.000000e+00	8.139535e-01	6.986947e+14	7.860452e+14	3.902157e+13	1.291688e+04	4.402284e+03	2.894757e+03	0	1.099340e-03
1.210000e+09	5.624493e+13	0.000000e+00	8.139535e-01	6.897326e+14	7.763420e+14	3.885503e+13	1.288115e+04	4.396307e+03	2.890827e+03	0	1.094101e-03
1.220000e+09	5.545042e+13	0.000000e+00	8.139535e-01	6.809595e+14	7.668406e+14	3.868960e+13	1.284588e+04	4.390398e+03	2.886941e+03	0	1.088925e-03
1.230000e+09	5.467271e+13	0.000000e+00	8.139535e-01	6.723700e+14	7.575353e+14	3.852527e+13	1.281105e+04	4.384554e+03	2.883099e+03	0	1.083810e-03
1.240000e+09	5.391132e+13	0.000000e+00	8.139535e-01	6.639588e+14	7.484204e+14	3.836202e+13	1.277666e+04	4.378775e+03	2.879299e+03	0	1.078755e-03
1.250000e+09	5.316578e+13	0.000000e+00	8.139535e-01	6.557208e+14	7.394907e+14	3.819985e+13	1.274271e+04	4.373058e+03	2.875540e+03	0	1.073759e-03
1.260000e+09	5.243564e+13	0.000000e+00	8.139535e-01	6.476511e+14	7.307408e+14	3.803874e+13	1.270917e+04	4.367404e+03	2.871822e+03	0	1.068821e-03
1.270000e+09	5.172047e+13	0.000000e+00	8.139535e-01	6.397450e+14	7.221657e+14	3.787870e+13	1.267604e+04	4.361811e+03	2.868144e+03	0	1.063940e-03
1.280000e+09	5.101985e+13	0.000000e+00	8.139535e-01	6.319980e+14	7.137607e+14	3.771972e+13	1.264331e+04	4.356278e+03	2.864506e+03	0	1.059114e-03
1.290000e+09	5.033338e+13	0.000000e+00	8.139535e-01	6.244057e+14	7.055210e+14	3.756177e+13	1.261098e+04	4.350803e+03	2.860906e+03	0	1.054342e-03
1.300000e+09	4.966066e+13	0.000000e+00	8.139535e-01	6.169637e+14	6.974422e+14	3.740487e+13	1.257904e+04	4.345386e+03	2.857344e+03	0	1.049624e-03
1.310000e+09	4.900132e+13	0.000000e+00	8.139535e-01	6.096681e+14	6.895198e+14	3.724899e+13	1.254747e+04	4.340025e+03	2.853819e+03	0	1.044958e-03
1.320000e+09	4.835500e+13	0.000000e+00	8.139535e-01	6.025148e+14	6.817497e+14	3.709413e+13	1.251628e+04	4.334720e+03	2.850330e+03	0	1.040343e-03
1.330000e+09	4.772134e+13	0.000000e+00	8.139535e-01	5.955001e+14	6.741278e+14	3.694029e+13	1.248545e+04	4.329469e+03	2.846878e+03	0	1.035779e-03
1.340000e+09	4.710001e+13	0.000000e+00	8.139535e-01	5.886202e+14	6.666502e+14	3.678745e+13	1.245498e+04	4.324272e+03	2.843460e+03	0	1.031264e-03
1.350000e+09	4.649068e+13	0.000000e+00	8.139535e-01	5.818717e+14	6.593131e+14	3.663560e+13	1.242486e+04	4.319128e+03	2.840078e+03	0	1.026798e-03
1.360000e+09	4.589303e+13	0.000000e+00	8.139535e-01	5.752510e+14	6.521129e+14	3.648475e+13	1.239508e+04	4.314035e+03	2.836729e+03	0	1.022379e-03
