#t		Qconv[W]	Ri[Rp]		R*[Rp]		Qc[W]		Qm[W]		Qr[W]		Tcmb[K]		Tl[K]		Tup[K]		RiFlag		Bs[T]
0.000000e+00	1.206417e+13	0.000000e+00	8.117647e-01	2.066213e+14	4.125383e+14	7.360080e+13	1.094266e+04	3.253580e+03	2.780674e+03	0	6.594045e-04
1.000000e+07	1.189984e+13	0.000000e+00	8.117647e-01	2.047815e+14	3.996787e+14	7.319300e+13	1.093227e+04	3.239199e+03	2.768383e+03	0	6.563968e-04
2.000000e+07	1.174309e+13	0.000000e+00	8.117647e-01	2.030239e+14	3.880543e+14	7.278825e+13	1.092198e+04	3.225957e+03	2.757066e+03	0	6.535020e-04
3.000000e+07	1.159320e+13	0.000000e+00	8.117647e-01	2.013406e+14	3.775026e+14	7.238652e+13	1.091177e+04	3.213733e+03	2.746618e+03	0	6.507096e-04
4.000000e+07	1.144952e+13	0.000000e+00	8.117647e-01	1.997247e+14	3.678872e+14	7.198779e+13	1.090165e+04	3.202419e+03	2.736949e+03	0	6.480103e-04
5.000000e+07	1.131150e+13	0.000000e+00	8.117647e-01	1.981703e+14	3.590931e+14	7.159204e+13	1.089161e+04	3.191925e+03	2.727981e+03	0	6.453958e-04
6.000000e+07	1.117864e+13	0.000000e+00	8.117647e-01	1.966718e+14	3.510225e+14	7.119923e+13	1.088165e+04	3.182170e+03	2.719643e+03	0	6.428591e-04
7.000000e+07	1.105051e+13	0.000000e+00	8.117647e-01	1.952248e+14	3.435920e+14	7.080935e+13	1.087176e+04	3.173082e+03	2.711877e+03	0	6.403935e-04
8.000000e+07	1.092672e+13	0.000000e+00	8.117647e-01	1.938249e+14	3.367300e+14	7.042237e+13	1.086194e+04	3.164600e+03	2.704627e+03	0	6.379933e-04
9.000000e+07	1.080693e+13	0.000000e+00	8.117647e-01	1.924685e+14	3.303747e+14	7.003827e+13	1.085220e+04	3.156667e+03	2.697847e+03	0	6.356533e-04
1.000000e+08	1.069084e+13	0.000000e+00	8.117647e-01	1.911523e+14	3.244723e+14	6.965702e+13	1.084252e+04	3.149234e+03	2.691495e+03	0	6.333688e-04
1.100000e+08	1.057816e+13	0.000000e+00	8.117647e-01	1.898733e+14	3.189763e+14	6.927860e+13	1.083291e+04	3.142258e+03	2.685532e+03	0	6.311357e-04
1.200000e+08	1.046864e+13	0.000000e+00	8.117647e-01	1.886288e+14	3.138457e+14	6.890298e+13	1.082337e+04	3.135698e+03	2.679926e+03	0	6.289502e-04
1.300000e+08	1.036208e+13	0.000000e+00	8.117647e-01	1.874164e+14	3.090449e+14	6.853015e+13	1.081388e+04	3.129520e+03	2.674646e+03	0	6.268088e-04
1.400000e+08	1.025826e+13	0.000000e+00	8.117647e-01	1.862340e+14	3.045422e+14	6.816007e+13	1.080446e+04	3.123691e+03	2.669664e+03	0	6.247084e-04
1.500000e+08	1.015700e+13	0.000000e+00	8.117647e-01	1.850795e+14	3.003097e+14	6.779273e+13	1.079510e+04	3.118183e+03	2.664957e+03	0	6.226462e-04
1.600000e+08	1.005815e+13	0.000000e+00	8.117647e-01	1.839513e+14	2.963228e+14	6.742810e+13	1.078579e+04	3.112970e+03	2.660502e+03	0	6.206195e-04
1.700000e+08	9.961537e+12	0.000000e+00	8.117647e-01	1.828476e+14	2.925595e+14	6.706617e+13	1.077654e+04	3.108029e+03	2.656279e+03	0	6.186261e-04
1.800000e+08	9.867040e+12	0.000000e+00	8.117647e-01	1.817670e+14	2.890001e+14	6.670690e+13	1.076735e+04	3.103338e+03	2.652270e+03	0	6.166637e-04
1.900000e+08	9.774531e+12	0.000000e+00	8.117647e-01	1.807082e+14	2.856271e+14	6.635028e+13	1.075821e+04	3.098879e+03	2.648459e+03	0	6.147305e-04
2.000000e+08	9.683896e+12	0.000000e+00	8.117647e-01	1.796699e+14	2.824250e+14	6.599628e+13	1.074912e+04	3.094633e+03	2.644830e+03	0	6.128246e-04
2.100000e+08	9.595030e+12	0.000000e+00	8.117647e-01	1.786509e+14	2.793794e+14	6.564489e+13	1.074009e+04	3.090584e+03	2.641370e+03	0	6.109442e-04
2.200000e+08	9.507838e+12	0.000000e+00	8.117647e-01	1.776504e+14	2.764779e+14	6.529607e+13	1.073111e+04	3.086719e+03	2.638066e+03	0	6.090880e-04
2.300000e+08	9.422232e+12	0.000000e+00	8.117647e-01	1.766672e+14	2.737089e+14	6.494982e+13	1.072217e+04	3.083023e+03	2.634907e+03	0	6.072545e-04
2.400000e+08	9.338131e+12	0.000000e+00	8.117647e-01	1.757005e+14	2.710621e+14	6.460610e+13	1.071329e+04	3.079484e+03	2.631883e+03	0	6.054423e-04
2.500000e+08	9.255460e+12	0.000000e+00	8.117647e-01	1.747496e+14	2.685281e+14	6.426490e+13	1.070446e+04	3.076091e+03	2.628983e+03	0	6.036504e-04
2.600000e+08	9.174151e+12	0.000000e+00	8.117647e-01	1.738137e+14	2.660985e+14	6.392620e+13	1.069567e+04	3.072834e+03	2.626200e+03	0	6.018775e-04
2.700000e+08	9.094140e+12	0.000000e+00	8.117647e-01	1.728920e+14	2.637654e+14	6.358998e+13	1.068693e+04	3.069704e+03	2.623524e+03	0	6.001226e-04
2.800000e+08	9.015369e+12	0.000000e+00	8.117647e-01	1.719840e+14	2.615220e+14	6.325621e+13	1.067824e+04	3.066691e+03	2.620949e+03	0	5.983849e-04
2.900000e+08	8.937782e+12	0.000000e+00	8.117647e-01	1.710891e+14	2.593617e+14	6.292488e+13	1.066959e+04	3.063788e+03	2.618468e+03	0	5.966634e-04
3.000000e+08	8.861329e+12	0.000000e+00	8.117647e-01	1.702066e+14	2.572788e+14	6.259596e+13	1.066099e+04	3.060987e+03	2.616074e+03	0	5.949572e-04
3.100000e+08	8.785964e+12	0.000000e+00	8.117647e-01	1.693362e+14	2.552679e+14	6.226944e+13	1.065243e+04	3.058281e+03	2.613762e+03	0	5.932657e-04
3.200000e+08	8.711642e+12	0.000000e+00	8.117647e-01	1.684773e+14	2.533240e+14	6.194529e+13	1.064391e+04	3.055664e+03	2.611525e+03	0	5.915882e-04
3.300000e+08	8.638324e+12	0.000000e+00	8.117647e-01	1.676295e+14	2.514428e+14	6.162350e+13	1.063544e+04	3.053131e+03	2.609360e+03	0	5.899238e-04
3.400000e+08	8.565970e+12	0.000000e+00	8.117647e-01	1.667923e+14	2.496202e+14	6.130405e+13	1.062701e+04	3.050676e+03	2.607262e+03	0	5.882722e-04
3.500000e+08	8.494545e+12	0.000000e+00	8.117647e-01	1.659655e+14	2.478522e+14	6.098692e+13	1.061862e+04	3.048294e+03	2.605226e+03	0	5.866326e-04
3.600000e+08	8.424018e+12	0.000000e+00	8.117647e-01	1.651485e+14	2.461356e+14	6.067208e+13	1.061028e+04	3.045980e+03	2.603249e+03	0	5.850045e-04
3.700000e+08	8.354355e+12	0.000000e+00	8.117647e-01	1.643412e+14	2.444670e+14	6.035953e+13	1.060197e+04	3.043730e+03	2.601326e+03	0	5.833875e-04
3.800000e+08	8.285529e+12	0.000000e+00	8.117647e-01	1.635431e+14	2.428435e+14	6.004924e+13	1.059371e+04	3.041541e+03	2.599455e+03	0	5.817810e-04
3.900000e+08	8.217512e+12	0.000000e+00	8.117647e-01	1.627540e+14	2.412625e+14	5.974119e+13	1.058548e+04	3.039408e+03	2.597632e+03	0	5.801847e-04
4.000000e+08	8.150279e+12	0.000000e+00	8.117647e-01	1.619737e+14	2.397213e+14	5.943536e+13	1.057730e+04	3.037328e+03	2.595854e+03	0	5.785980e-04
4.100000e+08	8.083805e+12	0.000000e+00	8.117647e-01	1.612017e+14	2.382178e+14	5.913174e+13	1.056915e+04	3.035298e+03	2.594119e+03	0	5.770207e-04
4.200000e+08	8.018069e+12	0.000000e+00	8.117647e-01	1.604380e+14	2.367496e+14	5.883031e+13	1.056105e+04	3.033315e+03	2.592424e+03	0	5.754524e-04
4.300000e+08	7.953048e+12	0.000000e+00	8.117647e-01	1.596822e+14	2.353149e+14	5.853105e+13	1.055298e+04	3.031376e+03	2.590767e+03	0	5.738926e-04
4.400000e+08	7.888722e+12	0.000000e+00	8.117647e-01	1.589342e+14	2.339119e+14	5.823394e+13	1.054495e+04	3.029479e+03	2.589146e+03	0	5.723412e-04
4.500000e+08	7.825074e+12	0.000000e+00	8.117647e-01	1.581937e+14	2.325387e+14	5.793897e+13	1.053696e+04	3.027621e+03	2.587558e+03	0	5.707978e-04
4.600000e+08	7.762084e+12	0.000000e+00	8.117647e-01	1.574606e+14	2.311938e+14	5.764611e+13	1.052900e+04	3.025800e+03	2.586002e+03	0	5.692621e-04
4.700000e+08	7.699736e+12	0.000000e+00	8.117647e-01	1.567346e+14	2.298758e+14	5.735536e+13	1.052108e+04	3.024014e+03	2.584475e+03	0	5.677338e-04
4.800000e+08	7.638014e+12	0.000000e+00	8.117647e-01	1.560156e+14	2.285833e+14	5.706669e+13	1.051320e+04	3.022261e+03	2.582978e+03	0	5.662127e-04
4.900000e+08	7.576902e+12	0.000000e+00	8.117647e-01	1.553034e+14	2.273149e+14	5.678008e+13	1.050535e+04	3.020540e+03	2.581506e+03	0	5.646986e-04
5.000000e+08	7.516387e+12	0.000000e+00	8.117647e-01	1.545979e+14	2.260696e+14	5.649553e+13	1.049754e+04	3.018848e+03	2.580060e+03	0	5.631912e-04
5.100000e+08	7.456454e+12	0.000000e+00	8.117647e-01	1.538989e+14	2.248462e+14	5.621300e+13	1.048977e+04	3.017184e+03	2.578638e+03	0	5.616903e-04
5.200000e+08	7.397090e+12	0.000000e+00	8.117647e-01	1.532062e+14	2.236437e+14	5.593250e+13	1.048203e+04	3.015547e+03	2.577239e+03	0	5.601957e-04
5.300000e+08	7.338283e+12	0.000000e+00	8.117647e-01	1.525198e+14	2.224611e+14	5.565399e+13	1.047432e+04	3.013935e+03	2.575861e+03	0	5.587072e-04
5.400000e+08	7.280021e+12	0.000000e+00	8.117647e-01	1.518395e+14	2.212975e+14	5.537747e+13	1.046665e+04	3.012347e+03	2.574504e+03	0	5.572247e-04
5.500000e+08	7.222293e+12	0.000000e+00	8.117647e-01	1.511652e+14	2.201521e+14	5.510292e+13	1.045901e+04	3.010782e+03	2.573166e+03	0	5.557479e-04
5.600000e+08	7.165088e+12	0.000000e+00	8.117647e-01	1.504967e+14	2.190241e+14	5.483031e+13	1.045141e+04	3.009238e+03	2.571847e+03	0	5.542767e-04
5.700000e+08	7.108396e+12	0.000000e+00	8.117647e-01	1.498340e+14	2.179128e+14	5.455965e+13	1.044384e+04	3.007714e+03	2.570545e+03	0	5.528110e-04
5.800000e+08	7.052207e+12	0.000000e+00	8.117647e-01	1.491769e+14	2.168175e+14	5.429090e+13	1.043631e+04	3.006211e+03	2.569260e+03	0	5.513505e-04
5.900000e+08	6.996511e+12	0.000000e+00	8.117647e-01	1.485254e+14	2.157375e+14	5.402406e+13	1.042880e+04	3.004726e+03	2.567990e+03	0	5.498952e-04
6.000000e+08	6.941299e+12	0.000000e+00	8.117647e-01	1.478792e+14	2.146722e+14	5.375911e+13	1.042133e+04	3.003258e+03	2.566736e+03	0	5.484449e-04
6.100000e+08	6.886563e+12	0.000000e+00	8.117647e-01	1.472385e+14	2.136211e+14	5.349603e+13	1.041390e+04	3.001808e+03	2.565497e+03	0	5.469995e-04
6.200000e+08	6.832295e+12	0.000000e+00	8.117647e-01	1.466030e+14	2.125836e+14	5.323481e+13	1.040649e+04	3.000374e+03	2.564271e+03	0	5.455589e-04
6.300000e+08	6.778485e+12	0.000000e+00	8.117647e-01	1.459726e+14	2.115593e+14	5.297543e+13	1.039912e+04	2.998955e+03	2.563059e+03	0	5.441229e-04
6.400000e+08	6.725128e+12	0.000000e+00	8.117647e-01	1.453473e+14	2.105476e+14	5.271789e+13	1.039177e+04	2.997551e+03	2.561859e+03	0	5.426914e-04
6.500000e+08	6.672214e+12	0.000000e+00	8.117647e-01	1.447271e+14	2.095482e+14	5.246216e+13	1.038446e+04	2.996161e+03	2.560671e+03	0	5.412644e-04
6.600000e+08	6.619738e+12	0.000000e+00	8.117647e-01	1.441117e+14	2.085605e+14	5.220822e+13	1.037718e+04	2.994785e+03	2.559495e+03	0	5.398417e-04
6.700000e+08	6.567692e+12	0.000000e+00	8.117647e-01	1.435012e+14	2.075843e+14	5.195608e+13	1.036994e+04	2.993422e+03	2.558330e+03	0	5.384231e-04
6.800000e+08	6.516069e+12	0.000000e+00	8.117647e-01	1.428955e+14	2.066191e+14	5.170570e+13	1.036272e+04	2.992071e+03	2.557175e+03	0	5.370087e-04
6.900000e+08	6.464864e+12	0.000000e+00	8.117647e-01	1.422944e+14	2.056646e+14	5.145708e+13	1.035553e+04	2.990732e+03	2.556031e+03	0	5.355984e-04
7.000000e+08	6.414069e+12	0.000000e+00	8.117647e-01	1.416980e+14	2.047205e+14	5.121020e+13	1.034837e+04	2.989405e+03	2.554897e+03	0	5.341919e-04
7.100000e+08	6.363679e+12	0.000000e+00	8.117647e-01	1.411061e+14	2.037864e+14	5.096506e+13	1.034125e+04	2.988089e+03	2.553772e+03	0	5.327894e-04
7.200000e+08	6.313688e+12	0.000000e+00	8.117647e-01	1.405188e+14	2.028621e+14	5.072162e+13	1.033415e+04	2.986784e+03	2.552656e+03	0	5.313905e-04
7.300000e+08	6.264090e+12	0.000000e+00	8.117647e-01	1.399359e+14	2.019473e+14	5.047989e+13	1.032708e+04	2.985488e+03	2.551549e+03	0	5.299954e-04
7.400000e+08	6.214880e+12	0.000000e+00	8.117647e-01	1.393573e+14	2.010417e+14	5.023984e+13	1.032004e+04	2.984203e+03	2.550451e+03	0	5.286039e-04
7.500000e+08	6.166053e+12	0.000000e+00	8.117647e-01	1.387831e+14	2.001451e+14	5.000147e+13	1.031303e+04	2.982927e+03	2.549361e+03	0	5.272159e-04
7.600000e+08	6.117603e+12	0.000000e+00	8.117647e-01	1.382131e+14	1.992572e+14	4.976476e+13	1.030605e+04	2.981661e+03	2.548278e+03	0	5.258314e-04
7.700000e+08	6.069526e+12	0.000000e+00	8.117647e-01	1.376473e+14	1.983778e+14	4.952970e+13	1.029910e+04	2.980403e+03	2.547204e+03	0	5.244503e-04
7.800000e+08	6.021815e+12	0.000000e+00	8.117647e-01	1.370857e+14	1.975067e+14	4.929626e+13	1.029218e+04	2.979155e+03	2.546136e+03	0	5.230726e-04
7.900000e+08	5.974468e+12	0.000000e+00	8.117647e-01	1.365282e+14	1.966437e+14	4.906445e+13	1.028528e+04	2.977914e+03	2.545076e+03	0	5.216980e-04
8.000000e+08	5.927479e+12	0.000000e+00	8.117647e-01	1.359747e+14	1.957886e+14	4.883425e+13	1.027841e+04	2.976682e+03	2.544023e+03	0	5.203267e-04
8.100000e+08	5.880843e+12	0.000000e+00	8.117647e-01	1.354253e+14	1.949412e+14	4.860565e+13	1.027157e+04	2.975457e+03	2.542976e+03	0	5.189585e-04
8.200000e+08	5.834557e+12	0.000000e+00	8.117647e-01	1.348798e+14	1.941014e+14	4.837862e+13	1.026476e+04	2.974240e+03	2.541936e+03	0	5.175934e-04
8.300000e+08	5.788616e+12	0.000000e+00	8.117647e-01	1.343381e+14	1.932689e+14	4.815317e+13	1.025798e+04	2.973031e+03	2.540902e+03	0	5.162313e-04
8.400000e+08	5.743015e+12	0.000000e+00	8.117647e-01	1.338004e+14	1.924436e+14	4.792927e+13	1.025122e+04	2.971828e+03	2.539875e+03	0	5.148722e-04
8.500000e+08	5.697751e+12	0.000000e+00	8.117647e-01	1.332664e+14	1.916254e+14	4.770692e+13	1.024449e+04	2.970633e+03	2.538853e+03	0	5.135160e-04
8.600000e+08	5.652820e+12	0.000000e+00	8.117647e-01	1.327362e+14	1.908142e+14	4.748610e+13	1.023779e+04	2.969444e+03	2.537837e+03	0	5.121626e-04
8.700000e+08	5.608217e+12	0.000000e+00	8.117647e-01	1.322098e+14	1.900097e+14	4.726680e+13	1.023111e+04	2.968263e+03	2.536827e+03	0	5.108120e-04
8.800000e+08	5.563940e+12	0.000000e+00	8.117647e-01	1.316870e+14	1.892118e+14	4.704900e+13	1.022446e+04	2.967087e+03	2.535823e+03	0	5.094641e-04
8.900000e+08	5.519983e+12	0.000000e+00	8.117647e-01	1.311678e+14	1.884205e+14	4.683271e+13	1.021783e+04	2.965918e+03	2.534823e+03	0	5.081189e-04
9.000000e+08	5.476345e+12	0.000000e+00	8.117647e-01	1.306523e+14	1.876356e+14	4.661790e+13	1.021124e+04	2.964755e+03	2.533829e+03	0	5.067764e-04
9.100000e+08	5.433020e+12	0.000000e+00	8.117647e-01	1.301403e+14	1.868569e+14	4.640456e+13	1.020466e+04	2.963598e+03	2.532841e+03	0	5.054365e-04
9.200000e+08	5.390006e+12	0.000000e+00	8.117647e-01	1.296318e+14	1.860845e+14	4.619268e+13	1.019812e+04	2.962447e+03	2.531857e+03	0	5.040991e-04
9.300000e+08	5.347300e+12	0.000000e+00	8.117647e-01	1.291268e+14	1.853181e+14	4.598225e+13	1.019160e+04	2.961301e+03	2.530878e+03	0	5.027641e-04
9.400000e+08	5.304897e+12	0.000000e+00	8.117647e-01	1.286253e+14	1.845576e+14	4.577326e+13	1.018510e+04	2.960162e+03	2.529904e+03	0	5.014317e-04
9.500000e+08	5.262794e+12	0.000000e+00	8.117647e-01	1.281271e+14	1.838030e+14	4.556570e+13	1.017863e+04	2.959027e+03	2.528934e+03	0	5.001016e-04
9.600000e+08	5.220989e+12	0.000000e+00	8.117647e-01	1.276324e+14	1.830542e+14	4.535955e+13	1.017218e+04	2.957898e+03	2.527970e+03	0	4.987739e-04
9.700000e+08	5.179478e+12	0.000000e+00	8.117647e-01	1.271409e+14	1.823111e+14	4.515481e+13	1.016576e+04	2.956775e+03	2.527009e+03	0	4.974485e-04
9.800000e+08	5.138258e+12	0.000000e+00	8.117647e-01	1.266528e+14	1.815735e+14	4.495146e+13	1.015937e+04	2.955656e+03	2.526053e+03	0	4.961254e-04
9.900000e+08	5.097326e+12	0.000000e+00	8.117647e-01	1.261679e+14	1.808414e+14	4.474949e+13	1.015300e+04	2.954543e+03	2.525102e+03	0	4.948044e-04
1.000000e+09	5.056679e+12	0.000000e+00	8.117647e-01	1.256863e+14	1.801148e+14	4.454889e+13	1.014665e+04	2.953434e+03	2.524154e+03	0	4.934857e-04
1.010000e+09	5.016314e+12	0.000000e+00	8.117647e-01	1.252079e+14	1.793935e+14	4.434966e+13	1.014033e+04	2.952331e+03	2.523211e+03	0	4.921691e-04
1.020000e+09	4.976228e+12	0.000000e+00	8.117647e-01	1.247326e+14	1.786775e+14	4.415177e+13	1.013403e+04	2.951232e+03	2.522272e+03	0	4.908546e-04
1.030000e+09	4.936418e+12	0.000000e+00	8.117647e-01	1.242605e+14	1.779666e+14	4.395522e+13	1.012775e+04	2.950138e+03	2.521337e+03	0	4.895421e-04
1.040000e+09	4.896881e+12	0.000000e+00	8.117647e-01	1.237915e+14	1.772609e+14	4.376000e+13	1.012150e+04	2.949049e+03	2.520406e+03	0	4.882317e-04
1.050000e+09	4.857616e+12	0.000000e+00	8.117647e-01	1.233256e+14	1.765602e+14	4.356610e+13	1.011527e+04	2.947964e+03	2.519479e+03	0	4.869232e-04
1.060000e+09	4.818618e+12	0.000000e+00	8.117647e-01	1.228627e+14	1.758645e+14	4.337350e+13	1.010907e+04	2.946884e+03	2.518556e+03	0	4.856167e-04
1.070000e+09	4.779886e+12	0.000000e+00	8.117647e-01	1.224028e+14	1.751737e+14	4.318221e+13	1.010289e+04	2.945808e+03	2.517636e+03	0	4.843121e-04
1.080000e+09	4.741416e+12	0.000000e+00	8.117647e-01	1.219460e+14	1.744877e+14	4.299220e+13	1.009673e+04	2.944736e+03	2.516720e+03	0	4.830093e-04
1.090000e+09	4.703207e+12	0.000000e+00	8.117647e-01	1.214920e+14	1.738065e+14	4.280347e+13	1.009060e+04	2.943669e+03	2.515808e+03	0	4.817083e-04
1.100000e+09	4.665255e+12	0.000000e+00	8.117647e-01	1.210410e+14	1.731301e+14	4.261600e+13	1.008448e+04	2.942606e+03	2.514900e+03	0	4.804091e-04
1.110000e+09	4.627558e+12	0.000000e+00	8.117647e-01	1.205929e+14	1.724583e+14	4.242980e+13	1.007839e+04	2.941547e+03	2.513995e+03	0	4.791117e-04
1.120000e+09	4.590114e+12	0.000000e+00	8.117647e-01	1.201477e+14	1.717911e+14	4.224484e+13	1.007233e+04	2.940493e+03	2.513094e+03	0	4.778159e-04
1.130000e+09	4.552921e+12	0.000000e+00	8.117647e-01	1.197054e+14	1.711285e+14	4.206111e+13	1.006628e+04	2.939442e+03	2.512196e+03	0	4.765218e-04
1.140000e+09	4.515975e+12	0.000000e+00	8.117647e-01	1.192658e+14	1.704704e+14	4.187862e+13	1.006026e+04	2.938395e+03	2.511301e+03	0	4.752294e-04
1.150000e+09	4.479274e+12	0.000000e+00	8.117647e-01	1.188290e+14	1.698167e+14	4.169734e+13	1.005426e+04	2.937353e+03	2.510410e+03	0	4.739385e-04
1.160000e+09	4.442816e+12	0.000000e+00	8.117647e-01	1.183951e+14	1.691674e+14	4.151728e+13	1.004828e+04	2.936314e+03	2.509523e+03	0	4.726492e-04
1.170000e+09	4.406600e+12	0.000000e+00	8.117647e-01	1.179638e+14	1.685225e+14	4.133841e+13	1.004233e+04	2.935279e+03	2.508638e+03	0	4.713614e-04
1.180000e+09	4.370622e+12	0.000000e+00	8.117647e-01	1.175353e+14	1.678819e+14	4.116073e+13	1.003639e+04	2.934249e+03	2.507757e+03	0	4.700750e-04
1.190000e+09	4.334880e+12	0.000000e+00	8.117647e-01	1.171095e+14	1.672455e+14	4.098424e+13	1.003048e+04	2.933221e+03	2.506879e+03	0	4.687902e-04
1.200000e+09	4.299373e+12	0.000000e+00	8.117647e-01	1.166863e+14	1.666134e+14	4.080892e+13	1.002459e+04	2.932198e+03	2.506005e+03	0	4.675067e-04
1.210000e+09	4.264097e+12	0.000000e+00	8.117647e-01	1.162658e+14	1.659854e+14	4.063475e+13	1.001871e+04	2.931178e+03	2.505133e+03	0	4.662246e-04
1.220000e+09	4.229051e+12	0.000000e+00	8.117647e-01	1.158479e+14	1.653615e+14	4.046175e+13	1.001287e+04	2.930162e+03	2.504265e+03	0	4.649438e-04
1.230000e+09	4.194233e+12	0.000000e+00	8.117647e-01	1.154325e+14	1.647416e+14	4.028988e+13	1.000704e+04	2.929150e+03	2.503400e+03	0	4.636643e-04
1.240000e+09	4.159641e+12	0.000000e+00	8.117647e-01	1.150198e+14	1.641259e+14	4.011916e+13	1.000123e+04	2.928141e+03	2.502538e+03	0	4.623861e-04
1.250000e+09	4.125272e+12	0.000000e+00	8.117647e-01	1.146096e+14	1.635141e+14	3.994956e+13	9.995442e+03	2.927136e+03	2.501678e+03	0	4.611091e-04
1.260000e+09	4.091125e+12	0.000000e+00	8.117647e-01	1.142020e+14	1.629062e+14	3.978108e+13	9.989676e+03	2.926134e+03	2.500822e+03	0	4.598333e-04
1.270000e+09	4.057198e+12	0.000000e+00	8.117647e-01	1.137968e+14	1.623022e+14	3.961371e+13	9.983930e+03	2.925136e+03	2.499969e+03	0	4.585586e-04
1.280000e+09	4.023488e+12	0.000000e+00	8.117647e-01	1.133941e+14	1.617022e+14	3.944744e+13	9.978205e+03	2.924141e+03	2.499119e+03	0	4.572851e-04
1.290000e+09	3.989993e+12	0.000000e+00	8.117647e-01	1.129939e+14	1.611059e+14	3.928226e+13	9.972500e+03	2.923150e+03	2.498272e+03	0	4.560126e-04
1.300000e+09	3.956713e+12	0.000000e+00	8.117647e-01	1.125962e+14	1.605134e+14	3.911816e+13	9.966815e+03	2.922162e+03	2.497428e+03	0	4.547412e-04
1.310000e+09	3.923644e+12	0.000000e+00	8.117647e-01	1.122008e+14	1.599247e+14	3.895515e+13	9.961150e+03	2.921178e+03	2.496586e+03	0	4.534708e-04
1.320000e+09	3.890785e+12	0.000000e+00	8.117647e-01	1.118079e+14	1.593397e+14	3.879320e+13	9.955504e+03	2.920197e+03	2.495748e+03	0	4.522014e-04
1.330000e+09	3.858134e+12	0.000000e+00	8.117647e-01	1.114173e+14	1.587584e+14	3.863230e+13	9.949879e+03	2.919219e+03	2.494912e+03	0	4.509329e-04
1.340000e+09	3.825690e+12	0.000000e+00	8.117647e-01	1.110291e+14	1.581808e+14	3.847246e+13	9.944273e+03	2.918244e+03	2.494079e+03	0	4.496653e-04
1.350000e+09	3.793450e+12	0.000000e+00	8.117647e-01	1.106432e+14	1.576067e+14	3.831367e+13	9.938687e+03	2.917273e+03	2.493249e+03	0	4.483986e-04
1.360000e+09	3.761413e+12	0.000000e+00	8.117647e-01	1.102596e+14	1.570363e+14	3.815591e+13	9.933120e+03	2.916305e+03	2.492422e+03	0	4.471327e-04
