#t		Qconv[W]	Ri[Rp]		R*[Rp]		Qc[W]		Qm[W]		Qr[W]		Tcmb[K]		Tl[K]		Tup[K]		RiFlag		Bs[T]
0.000000e+00	1.204281e+16	0.000000e+00	8.117647e-01	1.087028e+17	2.554194e+15	9.835539e+13	6.462776e+04	4.473797e+03	2.891960e+03	0	6.466606e-03
1.000000e+07	1.059012e+16	0.000000e+00	8.117647e-01	9.564882e+16	2.675011e+15	9.781043e+13	6.117142e+04	4.532662e+03	2.930012e+03	0	6.195373e-03
2.000000e+07	9.351380e+15	0.000000e+00	8.117647e-01	8.451604e+16	1.369818e+16	9.726955e+13	5.812125e+04	6.006797e+03	3.882925e+03	0	5.943730e-03
3.000000e+07	8.334242e+15	0.000000e+00	8.117647e-01	7.537212e+16	1.111661e+16	9.673270e+13	5.541647e+04	5.816612e+03	3.759986e+03	0	5.719911e-03
4.000000e+07	7.452954e+15	0.000000e+00	8.117647e-01	6.744847e+16	2.305351e+16	9.619987e+13	5.299849e+04	6.770923e+03	4.376873e+03	0	5.510741e-03
5.000000e+07	6.705920e+15	0.000000e+00	8.117647e-01	6.073026e+16	2.894315e+16	9.567101e+13	5.082855e+04	7.166747e+03	4.632743e+03	0	5.320102e-03
6.000000e+07	6.061504e+15	0.000000e+00	8.117647e-01	5.493375e+16	3.617877e+16	9.514609e+13	4.887010e+04	7.596215e+03	4.910360e+03	0	5.143917e-03
7.000000e+07	5.504142e+15	0.000000e+00	8.117647e-01	4.991919e+16	4.193096e+16	9.462508e+13	4.709462e+04	7.925048e+03	5.122925e+03	0	4.981159e-03
8.000000e+07	5.020269e+15	0.000000e+00	8.117647e-01	4.556480e+16	4.456532e+16	9.410794e+13	4.547792e+04	8.102340e+03	5.237530e+03	0	4.830694e-03
9.000000e+07	4.597736e+15	0.000000e+00	8.117647e-01	4.176150e+16	4.392192e+16	9.359465e+13	4.399950e+04	8.131055e+03	5.256093e+03	0	4.691178e-03
1.000000e+08	4.225707e+15	0.000000e+00	8.117647e-01	3.841205e+16	4.139645e+16	9.308518e+13	4.264222e+04	8.068875e+03	5.215898e+03	0	4.561073e-03
1.100000e+08	3.895756e+15	0.000000e+00	8.117647e-01	3.544082e+16	3.834644e+16	9.257948e+13	4.139186e+04	7.972092e+03	5.153335e+03	0	4.439129e-03
1.200000e+08	3.601647e+15	0.000000e+00	8.117647e-01	3.279179e+16	3.540244e+16	9.207753e+13	4.023654e+04	7.869293e+03	5.086884e+03	0	4.324484e-03
1.300000e+08	3.338496e+15	0.000000e+00	8.117647e-01	3.042110e+16	3.273872e+16	9.157929e+13	3.916611e+04	7.770268e+03	5.022872e+03	0	4.216488e-03
1.400000e+08	3.102269e+15	0.000000e+00	8.117647e-01	2.829251e+16	3.036358e+16	9.108475e+13	3.817179e+04	7.677182e+03	4.962699e+03	0	4.114594e-03
1.500000e+08	2.889553e+15	0.000000e+00	8.117647e-01	2.637537e+16	2.824446e+16	9.059386e+13	3.724591e+04	7.589911e+03	4.906285e+03	0	4.018316e-03
1.600000e+08	2.697439e+15	0.000000e+00	8.117647e-01	2.464353e+16	2.634569e+16	9.010659e+13	3.638178e+04	7.507867e+03	4.853250e+03	0	3.927213e-03
1.700000e+08	2.523437e+15	0.000000e+00	8.117647e-01	2.307461e+16	2.463654e+16	8.962293e+13	3.557349e+04	7.430469e+03	4.803218e+03	0	3.840885e-03
1.800000e+08	2.365409e+15	0.000000e+00	8.117647e-01	2.164941e+16	2.309169e+16	8.914282e+13	3.481588e+04	7.357227e+03	4.755873e+03	0	3.758973e-03
1.900000e+08	2.221512e+15	0.000000e+00	8.117647e-01	2.035137e+16	2.169020e+16	8.866626e+13	3.410436e+04	7.287739e+03	4.710955e+03	0	3.681149e-03
2.000000e+08	2.090156e+15	0.000000e+00	8.117647e-01	1.916617e+16	2.041458e+16	8.819320e+13	3.343488e+04	7.221668e+03	4.668245e+03	0	3.607116e-03
2.100000e+08	1.969959e+15	0.000000e+00	8.117647e-01	1.808142e+16	1.925006e+16	8.772362e+13	3.280382e+04	7.158726e+03	4.627558e+03	0	3.536603e-03
2.200000e+08	1.859723e+15	0.000000e+00	8.117647e-01	1.708633e+16	1.818406e+16	8.725748e+13	3.220797e+04	7.098665e+03	4.588733e+03	0	3.469364e-03
2.300000e+08	1.758399e+15	0.000000e+00	8.117647e-01	1.617148e+16	1.720576e+16	8.679477e+13	3.164447e+04	7.041268e+03	4.551630e+03	0	3.405177e-03
2.400000e+08	1.665071e+15	0.000000e+00	8.117647e-01	1.532862e+16	1.630580e+16	8.633545e+13	3.111072e+04	6.986340e+03	4.516124e+03	0	3.343834e-03
2.500000e+08	1.578935e+15	0.000000e+00	8.117647e-01	1.455053e+16	1.547608e+16	8.587950e+13	3.060443e+04	6.933710e+03	4.482102e+03	0	3.285151e-03
2.600000e+08	1.499284e+15	0.000000e+00	8.117647e-01	1.383085e+16	1.470948e+16	8.542688e+13	3.012350e+04	6.883222e+03	4.449466e+03	0	3.228953e-03
2.700000e+08	1.425492e+15	0.000000e+00	8.117647e-01	1.316395e+16	1.399980e+16	8.497757e+13	2.966605e+04	6.834737e+03	4.418124e+03	0	3.175086e-03
2.800000e+08	1.357007e+15	0.000000e+00	8.117647e-01	1.254487e+16	1.334156e+16	8.453154e+13	2.923039e+04	6.788127e+03	4.387995e+03	0	3.123402e-03
2.900000e+08	1.293340e+15	0.000000e+00	8.117647e-01	1.196919e+16	1.272992e+16	8.408877e+13	2.881496e+04	6.743276e+03	4.359002e+03	0	3.073771e-03
3.000000e+08	1.234054e+15	0.000000e+00	8.117647e-01	1.143299e+16	1.216061e+16	8.364923e+13	2.841836e+04	6.700078e+03	4.331078e+03	0	3.026068e-03
3.100000e+08	1.178761e+15	0.000000e+00	8.117647e-01	1.093279e+16	1.162981e+16	8.321289e+13	2.803933e+04	6.658436e+03	4.304159e+03	0	2.980180e-03
3.200000e+08	1.127114e+15	0.000000e+00	8.117647e-01	1.046545e+16	1.113415e+16	8.277972e+13	2.767668e+04	6.618259e+03	4.278188e+03	0	2.936003e-03
3.300000e+08	1.078802e+15	0.000000e+00	8.117647e-01	1.002818e+16	1.067059e+16	8.234970e+13	2.732935e+04	6.579467e+03	4.253112e+03	0	2.893440e-03
3.400000e+08	1.033547e+15	0.000000e+00	8.117647e-01	9.618471e+15	1.023642e+16	8.192281e+13	2.699638e+04	6.541982e+03	4.228881e+03	0	2.852401e-03
3.500000e+08	9.910972e+14	0.000000e+00	8.117647e-01	9.234069e+15	9.829222e+15	8.149901e+13	2.667686e+04	6.505734e+03	4.205449e+03	0	2.812803e-03
3.600000e+08	9.512278e+14	0.000000e+00	8.117647e-01	8.872940e+15	9.446799e+15	8.107828e+13	2.636997e+04	6.470658e+03	4.182775e+03	0	2.774568e-03
3.700000e+08	9.137348e+14	0.000000e+00	8.117647e-01	8.533249e+15	9.087181e+15	8.066060e+13	2.607496e+04	6.436693e+03	4.160820e+03	0	2.737625e-03
3.800000e+08	8.784338e+14	0.000000e+00	8.117647e-01	8.213337e+15	8.748588e+15	8.024595e+13	2.579112e+04	6.403782e+03	4.139546e+03	0	2.701906e-03
3.900000e+08	8.451580e+14	0.000000e+00	8.117647e-01	7.911700e+15	8.429411e+15	7.983429e+13	2.551782e+04	6.371874e+03	4.118919e+03	0	2.667349e-03
4.000000e+08	8.137559e+14	0.000000e+00	8.117647e-01	7.626973e+15	8.128188e+15	7.942560e+13	2.525445e+04	6.340919e+03	4.098909e+03	0	2.633896e-03
4.100000e+08	7.840896e+14	0.000000e+00	8.117647e-01	7.357915e+15	7.843592e+15	7.901987e+13	2.500046e+04	6.310871e+03	4.079486e+03	0	2.601492e-03
4.200000e+08	7.560337e+14	0.000000e+00	8.117647e-01	7.103398e+15	7.574418e+15	7.861705e+13	2.475534e+04	6.281688e+03	4.060621e+03	0	2.570086e-03
4.300000e+08	7.294739e+14	0.000000e+00	8.117647e-01	6.862389e+15	7.319566e+15	7.821714e+13	2.451863e+04	6.253328e+03	4.042289e+03	0	2.539630e-03
4.400000e+08	7.043057e+14	0.000000e+00	8.117647e-01	6.633948e+15	7.078030e+15	7.782010e+13	2.428987e+04	6.225756e+03	4.024466e+03	0	2.510080e-03
4.500000e+08	6.804335e+14	0.000000e+00	8.117647e-01	6.417213e+15	6.848895e+15	7.742592e+13	2.406865e+04	6.198935e+03	4.007128e+03	0	2.481394e-03
4.600000e+08	6.577697e+14	0.000000e+00	8.117647e-01	6.211394e+15	6.631319e+15	7.703457e+13	2.385459e+04	6.172833e+03	3.990255e+03	0	2.453532e-03
4.700000e+08	6.362339e+14	0.000000e+00	8.117647e-01	6.015768e+15	6.424532e+15	7.664602e+13	2.364734e+04	6.147418e+03	3.973826e+03	0	2.426458e-03
4.800000e+08	6.157524e+14	0.000000e+00	8.117647e-01	5.829668e+15	6.227826e+15	7.626026e+13	2.344656e+04	6.122661e+03	3.957822e+03	0	2.400136e-03
4.900000e+08	5.962571e+14	0.000000e+00	8.117647e-01	5.652483e+15	6.040551e+15	7.587726e+13	2.325193e+04	6.098534e+03	3.942226e+03	0	2.374534e-03
5.000000e+08	5.776856e+14	0.000000e+00	8.117647e-01	5.483648e+15	5.862107e+15	7.549700e+13	2.306317e+04	6.075011e+03	3.927021e+03	0	2.349620e-03
5.100000e+08	5.599802e+14	0.000000e+00	8.117647e-01	5.322644e+15	5.691943e+15	7.511945e+13	2.288000e+04	6.052068e+03	3.912190e+03	0	2.325367e-03
5.200000e+08	5.430875e+14	0.000000e+00	8.117647e-01	5.168988e+15	5.529547e+15	7.474460e+13	2.270216e+04	6.029681e+03	3.897718e+03	0	2.301745e-03
5.300000e+08	5.269584e+14	0.000000e+00	8.117647e-01	5.022238e+15	5.374449e+15	7.437243e+13	2.252941e+04	6.007828e+03	3.883592e+03	0	2.278729e-03
5.400000e+08	5.115471e+14	0.000000e+00	8.117647e-01	4.881982e+15	5.226213e+15	7.400290e+13	2.236153e+04	5.986489e+03	3.869798e+03	0	2.256294e-03
5.500000e+08	4.968115e+14	0.000000e+00	8.117647e-01	4.747838e+15	5.084434e+15	7.363600e+13	2.219830e+04	5.965644e+03	3.856323e+03	0	2.234418e-03
5.600000e+08	4.827124e+14	0.000000e+00	8.117647e-01	4.619453e+15	4.948739e+15	7.327171e+13	2.203951e+04	5.945274e+03	3.843156e+03	0	2.213078e-03
5.700000e+08	4.692134e+14	0.000000e+00	8.117647e-01	4.496499e+15	4.818778e+15	7.291001e+13	2.188499e+04	5.925361e+03	3.830284e+03	0	2.192253e-03
5.800000e+08	4.562805e+14	0.000000e+00	8.117647e-01	4.378669e+15	4.694230e+15	7.255088e+13	2.173455e+04	5.905889e+03	3.817696e+03	0	2.171923e-03
5.900000e+08	4.438824e+14	0.000000e+00	8.117647e-01	4.265681e+15	4.574792e+15	7.219429e+13	2.158802e+04	5.886841e+03	3.805384e+03	0	2.152071e-03
6.000000e+08	4.319897e+14	0.000000e+00	8.117647e-01	4.157268e+15	4.460185e+15	7.184022e+13	2.144524e+04	5.868203e+03	3.793336e+03	0	2.132677e-03
6.100000e+08	4.205750e+14	0.000000e+00	8.117647e-01	4.053184e+15	4.350147e+15	7.148866e+13	2.130607e+04	5.849960e+03	3.781543e+03	0	2.113724e-03
6.200000e+08	4.096129e+14	0.000000e+00	8.117647e-01	3.953198e+15	4.244434e+15	7.113959e+13	2.117035e+04	5.832098e+03	3.769996e+03	0	2.095198e-03
6.300000e+08	3.990794e+14	0.000000e+00	8.117647e-01	3.857096e+15	4.142820e+15	7.079297e+13	2.103796e+04	5.814604e+03	3.758688e+03	0	2.077082e-03
6.400000e+08	3.889523e+14	0.000000e+00	8.117647e-01	3.764675e+15	4.045091e+15	7.044881e+13	2.090877e+04	5.797466e+03	3.747609e+03	0	2.059362e-03
6.500000e+08	3.792107e+14	0.000000e+00	8.117647e-01	3.675748e+15	3.951047e+15	7.010706e+13	2.078264e+04	5.780671e+03	3.736753e+03	0	2.042023e-03
6.600000e+08	3.698350e+14	0.000000e+00	8.117647e-01	3.590138e+15	3.860503e+15	6.976772e+13	2.065948e+04	5.764208e+03	3.726111e+03	0	2.025054e-03
6.700000e+08	3.608070e+14	0.000000e+00	8.117647e-01	3.507678e+15	3.773284e+15	6.943077e+13	2.053916e+04	5.748067e+03	3.715677e+03	0	2.008440e-03
6.800000e+08	3.521095e+14	0.000000e+00	8.117647e-01	3.428215e+15	3.689225e+15	6.909618e+13	2.042159e+04	5.732237e+03	3.705444e+03	0	1.992170e-03
6.900000e+08	3.437263e+14	0.000000e+00	8.117647e-01	3.351602e+15	3.608173e+15	6.876394e+13	2.030667e+04	5.716708e+03	3.695406e+03	0	1.976233e-03
7.000000e+08	3.356423e+14	0.000000e+00	8.117647e-01	3.277703e+15	3.529982e+15	6.843403e+13	2.019430e+04	5.701471e+03	3.685556e+03	0	1.960617e-03
7.100000e+08	3.278432e+14	0.000000e+00	8.117647e-01	3.206387e+15	3.454518e+15	6.810643e+13	2.008438e+04	5.686516e+03	3.675889e+03	0	1.945312e-03
7.200000e+08	3.203157e+14	0.000000e+00	8.117647e-01	3.137535e+15	3.381651e+15	6.778112e+13	1.997685e+04	5.671835e+03	3.666399e+03	0	1.930308e-03
7.300000e+08	3.130470e+14	0.000000e+00	8.117647e-01	3.071032e+15	3.311262e+15	6.745809e+13	1.987161e+04	5.657420e+03	3.657080e+03	0	1.915595e-03
7.400000e+08	3.060253e+14	0.000000e+00	8.117647e-01	3.006770e+15	3.243237e+15	6.713731e+13	1.976858e+04	5.643262e+03	3.647929e+03	0	1.901164e-03
7.500000e+08	2.992393e+14	0.000000e+00	8.117647e-01	2.944648e+15	3.177468e+15	6.681876e+13	1.966770e+04	5.629354e+03	3.638938e+03	0	1.887007e-03
7.600000e+08	2.926785e+14	0.000000e+00	8.117647e-01	2.884570e+15	3.113855e+15	6.650243e+13	1.956889e+04	5.615689e+03	3.630105e+03	0	1.873114e-03
7.700000e+08	2.863329e+14	0.000000e+00	8.117647e-01	2.826446e+15	3.052302e+15	6.618831e+13	1.947208e+04	5.602259e+03	3.621423e+03	0	1.859478e-03
7.800000e+08	2.801929e+14	0.000000e+00	8.117647e-01	2.770189e+15	2.992720e+15	6.587637e+13	1.937721e+04	5.589058e+03	3.612890e+03	0	1.846090e-03
7.900000e+08	2.742498e+14	0.000000e+00	8.117647e-01	2.715720e+15	2.935022e+15	6.556659e+13	1.928422e+04	5.576079e+03	3.604500e+03	0	1.832944e-03
8.000000e+08	2.684950e+14	0.000000e+00	8.117647e-01	2.662962e+15	2.879128e+15	6.525896e+13	1.919305e+04	5.563317e+03	3.596250e+03	0	1.820033e-03
8.100000e+08	2.629205e+14	0.000000e+00	8.117647e-01	2.611842e+15	2.824962e+15	6.495347e+13	1.910364e+04	5.550764e+03	3.588136e+03	0	1.807349e-03
8.200000e+08	2.575187e+14	0.000000e+00	8.117647e-01	2.562292e+15	2.772452e+15	6.465009e+13	1.901593e+04	5.538416e+03	3.580154e+03	0	1.794886e-03
8.300000e+08	2.522825e+14	0.000000e+00	8.117647e-01	2.514246e+15	2.721528e+15	6.434880e+13	1.892988e+04	5.526266e+03	3.572300e+03	0	1.782637e-03
8.400000e+08	2.472051e+14	0.000000e+00	8.117647e-01	2.467644e+15	2.672127e+15	6.404960e+13	1.884543e+04	5.514310e+03	3.564571e+03	0	1.770597e-03
8.500000e+08	2.422799e+14	0.000000e+00	8.117647e-01	2.422426e+15	2.624185e+15	6.375246e+13	1.876254e+04	5.502542e+03	3.556964e+03	0	1.758759e-03
8.600000e+08	2.375010e+14	0.000000e+00	8.117647e-01	2.378538e+15	2.577645e+15	6.345737e+13	1.868116e+04	5.490957e+03	3.549475e+03	0	1.747118e-03
8.700000e+08	2.328623e+14	0.000000e+00	8.117647e-01	2.335925e+15	2.532452e+15	6.316432e+13	1.860124e+04	5.479550e+03	3.542102e+03	0	1.735669e-03
8.800000e+08	2.283584e+14	0.000000e+00	8.117647e-01	2.294539e+15	2.488551e+15	6.287327e+13	1.852275e+04	5.468318e+03	3.534841e+03	0	1.724406e-03
8.900000e+08	2.239840e+14	0.000000e+00	8.117647e-01	2.254331e+15	2.445893e+15	6.258423e+13	1.844565e+04	5.457254e+03	3.527689e+03	0	1.713324e-03
9.000000e+08	2.197342e+14	0.000000e+00	8.117647e-01	2.215256e+15	2.404431e+15	6.229717e+13	1.836988e+04	5.446356e+03	3.520644e+03	0	1.702419e-03
9.100000e+08	2.156041e+14	0.000000e+00	8.117647e-01	2.177271e+15	2.364117e+15	6.201208e+13	1.829543e+04	5.435619e+03	3.513704e+03	0	1.691685e-03
9.200000e+08	2.115892e+14	0.000000e+00	8.117647e-01	2.140334e+15	2.324910e+15	6.172894e+13	1.822224e+04	5.425039e+03	3.506864e+03	0	1.681119e-03
9.300000e+08	2.076851e+14	0.000000e+00	8.117647e-01	2.104407e+15	2.286768e+15	6.144774e+13	1.815029e+04	5.414612e+03	3.500124e+03	0	1.670715e-03
9.400000e+08	2.038878e+14	0.000000e+00	8.117647e-01	2.069452e+15	2.249652e+15	6.116846e+13	1.807954e+04	5.404334e+03	3.493481e+03	0	1.660470e-03
9.500000e+08	2.001934e+14	0.000000e+00	8.117647e-01	2.035434e+15	2.213523e+15	6.089108e+13	1.800996e+04	5.394202e+03	3.486931e+03	0	1.650379e-03
9.600000e+08	1.965980e+14	0.000000e+00	8.117647e-01	2.002317e+15	2.178346e+15	6.061560e+13	1.794151e+04	5.384213e+03	3.480474e+03	0	1.640440e-03
9.700000e+08	1.930981e+14	0.000000e+00	8.117647e-01	1.970071e+15	2.144087e+15	6.034199e+13	1.787418e+04	5.374362e+03	3.474106e+03	0	1.630647e-03
9.800000e+08	1.896903e+14	0.000000e+00	8.117647e-01	1.938664e+15	2.110714e+15	6.007025e+13	1.780792e+04	5.364647e+03	3.467826e+03	0	1.620997e-03
9.900000e+08	1.863712e+14	0.000000e+00	8.117647e-01	1.908066e+15	2.078194e+15	5.980035e+13	1.774272e+04	5.355065e+03	3.461632e+03	0	1.611487e-03
1.000000e+09	1.831379e+14	0.000000e+00	8.117647e-01	1.878249e+15	2.046499e+15	5.953228e+13	1.767854e+04	5.345612e+03	3.455521e+03	0	1.602113e-03
1.010000e+09	1.799872e+14	0.000000e+00	8.117647e-01	1.849186e+15	2.015599e+15	5.926604e+13	1.761535e+04	5.336285e+03	3.449492e+03	0	1.592873e-03
1.020000e+09	1.769164e+14	0.000000e+00	8.117647e-01	1.820851e+15	1.985467e+15	5.900159e+13	1.755315e+04	5.327082e+03	3.443543e+03	0	1.583762e-03
1.030000e+09	1.739227e+14	0.000000e+00	8.117647e-01	1.793219e+15	1.956078e+15	5.873894e+13	1.749188e+04	5.318000e+03	3.437672e+03	0	1.574778e-03
1.040000e+09	1.710035e+14	0.000000e+00	8.117647e-01	1.766267e+15	1.927406e+15	5.847806e+13	1.743155e+04	5.309036e+03	3.431878e+03	0	1.565918e-03
1.050000e+09	1.681563e+14	0.000000e+00	8.117647e-01	1.739972e+15	1.899428e+15	5.821894e+13	1.737212e+04	5.300188e+03	3.426158e+03	0	1.557178e-03
1.060000e+09	1.653787e+14	0.000000e+00	8.117647e-01	1.714311e+15	1.872119e+15	5.796157e+13	1.731356e+04	5.291453e+03	3.420511e+03	0	1.548557e-03
1.070000e+09	1.626684e+14	0.000000e+00	8.117647e-01	1.689265e+15	1.845459e+15	5.770593e+13	1.725587e+04	5.282828e+03	3.414936e+03	0	1.540050e-03
1.080000e+09	1.600232e+14	0.000000e+00	8.117647e-01	1.664813e+15	1.819427e+15	5.745202e+13	1.719902e+04	5.274312e+03	3.409431e+03	0	1.531657e-03
1.090000e+09	1.574409e+14	0.000000e+00	8.117647e-01	1.640936e+15	1.794002e+15	5.719981e+13	1.714298e+04	5.265901e+03	3.403994e+03	0	1.523374e-03
1.100000e+09	1.549197e+14	0.000000e+00	8.117647e-01	1.617615e+15	1.769164e+15	5.694929e+13	1.708775e+04	5.257594e+03	3.398625e+03	0	1.515198e-03
1.110000e+09	1.524574e+14	0.000000e+00	8.117647e-01	1.594834e+15	1.744895e+15	5.670046e+13	1.703330e+04	5.249389e+03	3.393320e+03	0	1.507128e-03
1.120000e+09	1.500522e+14	0.000000e+00	8.117647e-01	1.572574e+15	1.721178e+15	5.645329e+13	1.697961e+04	5.241283e+03	3.388081e+03	0	1.499160e-03
1.130000e+09	1.477024e+14	0.000000e+00	8.117647e-01	1.550820e+15	1.697995e+15	5.620778e+13	1.692667e+04	5.233275e+03	3.382904e+03	0	1.491293e-03
1.140000e+09	1.454063e+14	0.000000e+00	8.117647e-01	1.529556e+15	1.675329e+15	5.596390e+13	1.687445e+04	5.225362e+03	3.377789e+03	0	1.483525e-03
1.150000e+09	1.431620e+14	0.000000e+00	8.117647e-01	1.508766e+15	1.653165e+15	5.572166e+13	1.682295e+04	5.217542e+03	3.372734e+03	0	1.475853e-03
1.160000e+09	1.409682e+14	0.000000e+00	8.117647e-01	1.488438e+15	1.631487e+15	5.548103e+13	1.677215e+04	5.209814e+03	3.367738e+03	0	1.468276e-03
1.170000e+09	1.388232e+14	0.000000e+00	8.117647e-01	1.468555e+15	1.610282e+15	5.524200e+13	1.672203e+04	5.202175e+03	3.362800e+03	0	1.460790e-03
1.180000e+09	1.367256e+14	0.000000e+00	8.117647e-01	1.449106e+15	1.589533e+15	5.500457e+13	1.667257e+04	5.194625e+03	3.357920e+03	0	1.453395e-03
1.190000e+09	1.346739e+14	0.000000e+00	8.117647e-01	1.430077e+15	1.569230e+15	5.476871e+13	1.662377e+04	5.187161e+03	3.353095e+03	0	1.446089e-03
1.200000e+09	1.326668e+14	0.000000e+00	8.117647e-01	1.411456e+15	1.549357e+15	5.453442e+13	1.657560e+04	5.179781e+03	3.348324e+03	0	1.438869e-03
1.210000e+09	1.307030e+14	0.000000e+00	8.117647e-01	1.393231e+15	1.529902e+15	5.430168e+13	1.652806e+04	5.172484e+03	3.343607e+03	0	1.431734e-03
1.220000e+09	1.287812e+14	0.000000e+00	8.117647e-01	1.375390e+15	1.510854e+15	5.407049e+13	1.648113e+04	5.165269e+03	3.338943e+03	0	1.424682e-03
1.230000e+09	1.269002e+14	0.000000e+00	8.117647e-01	1.357923e+15	1.492201e+15	5.384082e+13	1.643480e+04	5.158133e+03	3.334331e+03	0	1.417712e-03
1.240000e+09	1.250588e+14	0.000000e+00	8.117647e-01	1.340818e+15	1.473931e+15	5.361267e+13	1.638906e+04	5.151076e+03	3.329769e+03	0	1.410821e-03
1.250000e+09	1.232560e+14	0.000000e+00	8.117647e-01	1.324066e+15	1.456034e+15	5.338603e+13	1.634389e+04	5.144095e+03	3.325256e+03	0	1.404009e-03
1.260000e+09	1.214905e+14	0.000000e+00	8.117647e-01	1.307656e+15	1.438499e+15	5.316088e+13	1.629928e+04	5.137190e+03	3.320792e+03	0	1.397273e-03
1.270000e+09	1.197613e+14	0.000000e+00	8.117647e-01	1.291579e+15	1.421315e+15	5.293722e+13	1.625522e+04	5.130359e+03	3.316377e+03	0	1.390612e-03
1.280000e+09	1.180675e+14	0.000000e+00	8.117647e-01	1.275826e+15	1.404475e+15	5.271502e+13	1.621171e+04	5.123600e+03	3.312008e+03	0	1.384025e-03
1.290000e+09	1.164080e+14	0.000000e+00	8.117647e-01	1.260387e+15	1.387967e+15	5.249429e+13	1.616872e+04	5.116913e+03	3.307685e+03	0	1.377510e-03
1.300000e+09	1.147820e+14	0.000000e+00	8.117647e-01	1.245255e+15	1.371783e+15	5.227501e+13	1.612625e+04	5.110296e+03	3.303407e+03	0	1.371066e-03
1.310000e+09	1.131884e+14	0.000000e+00	8.117647e-01	1.230420e+15	1.355914e+15	5.205716e+13	1.608428e+04	5.103747e+03	3.299174e+03	0	1.364692e-03
1.320000e+09	1.116264e+14	0.000000e+00	8.117647e-01	1.215875e+15	1.340351e+15	5.184074e+13	1.604282e+04	5.097266e+03	3.294985e+03	0	1.358385e-03
1.330000e+09	1.100952e+14	0.000000e+00	8.117647e-01	1.201612e+15	1.325087e+15	5.162573e+13	1.600184e+04	5.090852e+03	3.290838e+03	0	1.352145e-03
1.340000e+09	1.085940e+14	0.000000e+00	8.117647e-01	1.187624e+15	1.310114e+15	5.141213e+13	1.596134e+04	5.084502e+03	3.286734e+03	0	1.345971e-03
1.350000e+09	1.071219e+14	0.000000e+00	8.117647e-01	1.173902e+15	1.295424e+15	5.119993e+13	1.592132e+04	5.078217e+03	3.282671e+03	0	1.339862e-03
1.360000e+09	1.056781e+14	0.000000e+00	8.117647e-01	1.160442e+15	1.281009e+15	5.098911e+13	1.588175e+04	5.071994e+03	3.278649e+03	0	1.333815e-03
