#t		Qconv[W]	Ri[Rp]		R*[Rp]		Qc[W]		Qm[W]		Qr[W]		Tcmb[K]		Tl[K]		Tup[K]		RiFlag		Bs[T]
0.000000e+00	1.925070e+13	0.000000e+00	8.095239e-01	3.922129e+14	4.041434e+14	1.070655e+14	1.430287e+04	3.559316e+03	2.967100e+03	0	7.623091e-04
1.000000e+07	1.914751e+13	0.000000e+00	8.095239e-01	3.911145e+14	4.095453e+14	1.064723e+14	1.429046e+04	3.566594e+03	2.973167e+03	0	7.609446e-04
2.000000e+07	1.903918e+13	0.000000e+00	8.095239e-01	3.899716e+14	4.145372e+14	1.058835e+14	1.427809e+04	3.573327e+03	2.978780e+03	0	7.595068e-04
3.000000e+07	1.892610e+13	0.000000e+00	8.095239e-01	3.887877e+14	4.191323e+14	1.052991e+14	1.426576e+04	3.579543e+03	2.983961e+03	0	7.580002e-04
4.000000e+07	1.880864e+13	0.000000e+00	8.095239e-01	3.875658e+14	4.233444e+14	1.047191e+14	1.425346e+04	3.585270e+03	2.988735e+03	0	7.564287e-04
5.000000e+07	1.868713e+13	0.000000e+00	8.095239e-01	3.863092e+14	4.271884e+14	1.041434e+14	1.424121e+04	3.590535e+03	2.993125e+03	0	7.547964e-04
6.000000e+07	1.856193e+13	0.000000e+00	8.095239e-01	3.850208e+14	4.306794e+14	1.035720e+14	1.422899e+04	3.595365e+03	2.997151e+03	0	7.531069e-04
7.000000e+07	1.843334e+13	0.000000e+00	8.095239e-01	3.837034e+14	4.338333e+14	1.030049e+14	1.421681e+04	3.599784e+03	3.000835e+03	0	7.513638e-04
8.000000e+07	1.830167e+13	0.000000e+00	8.095239e-01	3.823596e+14	4.366658e+14	1.024419e+14	1.420468e+04	3.603817e+03	3.004197e+03	0	7.495706e-04
9.000000e+07	1.816721e+13	0.000000e+00	8.095239e-01	3.809919e+14	4.391928e+14	1.018832e+14	1.419258e+04	3.607487e+03	3.007256e+03	0	7.477303e-04
1.000000e+08	1.803022e+13	0.000000e+00	8.095239e-01	3.796028e+14	4.414300e+14	1.013286e+14	1.418053e+04	3.610816e+03	3.010031e+03	0	7.458461e-04
1.100000e+08	1.789096e+13	0.000000e+00	8.095239e-01	3.781944e+14	4.433930e+14	1.007781e+14	1.416853e+04	3.613825e+03	3.012539e+03	0	7.439209e-04
1.200000e+08	1.774966e+13	0.000000e+00	8.095239e-01	3.767689e+14	4.450970e+14	1.002317e+14	1.415657e+04	3.616533e+03	3.014797e+03	0	7.419573e-04
1.300000e+08	1.760656e+13	0.000000e+00	8.095239e-01	3.753282e+14	4.465568e+14	9.968936e+13	1.414465e+04	3.618960e+03	3.016820e+03	0	7.399579e-04
1.400000e+08	1.746185e+13	0.000000e+00	8.095239e-01	3.738743e+14	4.477868e+14	9.915101e+13	1.413278e+04	3.621123e+03	3.018624e+03	0	7.379252e-04
1.500000e+08	1.731574e+13	0.000000e+00	8.095239e-01	3.724088e+14	4.488010e+14	9.861665e+13	1.412096e+04	3.623040e+03	3.020222e+03	0	7.358613e-04
1.600000e+08	1.716842e+13	0.000000e+00	8.095239e-01	3.709333e+14	4.496127e+14	9.808624e+13	1.410918e+04	3.624727e+03	3.021627e+03	0	7.337684e-04
1.700000e+08	1.702005e+13	0.000000e+00	8.095239e-01	3.694493e+14	4.502348e+14	9.755974e+13	1.409745e+04	3.626198e+03	3.022854e+03	0	7.316485e-04
1.800000e+08	1.687079e+13	0.000000e+00	8.095239e-01	3.679583e+14	4.506795e+14	9.703712e+13	1.408576e+04	3.627468e+03	3.023912e+03	0	7.295035e-04
1.900000e+08	1.672079e+13	0.000000e+00	8.095239e-01	3.664616e+14	4.509585e+14	9.651835e+13	1.407412e+04	3.628549e+03	3.024814e+03	0	7.273350e-04
2.000000e+08	1.657019e+13	0.000000e+00	8.095239e-01	3.649604e+14	4.510829e+14	9.600339e+13	1.406253e+04	3.629456e+03	3.025569e+03	0	7.251448e-04
2.100000e+08	1.641912e+13	0.000000e+00	8.095239e-01	3.634557e+14	4.510634e+14	9.549223e+13	1.405099e+04	3.630198e+03	3.026188e+03	0	7.229344e-04
2.200000e+08	1.626770e+13	0.000000e+00	8.095239e-01	3.619487e+14	4.509099e+14	9.498482e+13	1.403949e+04	3.630788e+03	3.026680e+03	0	7.207051e-04
2.300000e+08	1.611603e+13	0.000000e+00	8.095239e-01	3.604403e+14	4.506319e+14	9.448113e+13	1.402804e+04	3.631236e+03	3.027054e+03	0	7.184583e-04
2.400000e+08	1.596421e+13	0.000000e+00	8.095239e-01	3.589314e+14	4.502382e+14	9.398113e+13	1.401664e+04	3.631551e+03	3.027316e+03	0	7.161952e-04
2.500000e+08	1.581236e+13	0.000000e+00	8.095239e-01	3.574228e+14	4.497373e+14	9.348480e+13	1.400529e+04	3.631743e+03	3.027476e+03	0	7.139171e-04
2.600000e+08	1.566053e+13	0.000000e+00	8.095239e-01	3.559153e+14	4.491371e+14	9.299210e+13	1.399398e+04	3.631820e+03	3.027540e+03	0	7.116248e-04
2.700000e+08	1.550883e+13	0.000000e+00	8.095239e-01	3.544096e+14	4.484450e+14	9.250300e+13	1.398273e+04	3.631790e+03	3.027515e+03	0	7.093196e-04
2.800000e+08	1.535732e+13	0.000000e+00	8.095239e-01	3.529063e+14	4.476680e+14	9.201747e+13	1.397152e+04	3.631660e+03	3.027407e+03	0	7.070021e-04
2.900000e+08	1.520607e+13	0.000000e+00	8.095239e-01	3.514060e+14	4.468126e+14	9.153549e+13	1.396035e+04	3.631438e+03	3.027222e+03	0	7.046734e-04
3.000000e+08	1.505514e+13	0.000000e+00	8.095239e-01	3.499093e+14	4.458849e+14	9.105702e+13	1.394924e+04	3.631129e+03	3.026964e+03	0	7.023343e-04
3.100000e+08	1.490459e+13	0.000000e+00	8.095239e-01	3.484166e+14	4.448907e+14	9.058204e+13	1.393817e+04	3.630740e+03	3.026640e+03	0	6.999853e-04
3.200000e+08	1.475447e+13	0.000000e+00	8.095239e-01	3.469284e+14	4.438353e+14	9.011051e+13	1.392715e+04	3.630277e+03	3.026254e+03	0	6.976273e-04
3.300000e+08	1.460483e+13	0.000000e+00	8.095239e-01	3.454452e+14	4.427238e+14	8.964241e+13	1.391618e+04	3.629745e+03	3.025810e+03	0	6.952608e-04
3.400000e+08	1.445571e+13	0.000000e+00	8.095239e-01	3.439673e+14	4.415607e+14	8.917771e+13	1.390525e+04	3.629148e+03	3.025313e+03	0	6.928864e-04
3.500000e+08	1.430715e+13	0.000000e+00	8.095239e-01	3.424950e+14	4.403505e+14	8.871638e+13	1.389437e+04	3.628492e+03	3.024766e+03	0	6.905047e-04
3.600000e+08	1.415919e+13	0.000000e+00	8.095239e-01	3.410287e+14	4.390971e+14	8.825840e+13	1.388353e+04	3.627781e+03	3.024173e+03	0	6.881161e-04
3.700000e+08	1.401186e+13	0.000000e+00	8.095239e-01	3.395687e+14	4.378045e+14	8.780373e+13	1.387275e+04	3.627018e+03	3.023537e+03	0	6.857211e-04
3.800000e+08	1.386520e+13	0.000000e+00	8.095239e-01	3.381152e+14	4.364761e+14	8.735235e+13	1.386201e+04	3.626207e+03	3.022861e+03	0	6.833202e-04
3.900000e+08	1.371921e+13	0.000000e+00	8.095239e-01	3.366684e+14	4.351153e+14	8.690424e+13	1.385131e+04	3.625353e+03	3.022149e+03	0	6.809136e-04
4.000000e+08	1.357394e+13	0.000000e+00	8.095239e-01	3.352286e+14	4.337249e+14	8.645936e+13	1.384066e+04	3.624457e+03	3.021403e+03	0	6.785017e-04
4.100000e+08	1.342941e+13	0.000000e+00	8.095239e-01	3.337959e+14	4.323080e+14	8.601769e+13	1.383006e+04	3.623524e+03	3.020624e+03	0	6.760848e-04
4.200000e+08	1.328563e+13	0.000000e+00	8.095239e-01	3.323705e+14	4.308672e+14	8.557921e+13	1.381950e+04	3.622555e+03	3.019817e+03	0	6.736633e-04
4.300000e+08	1.314261e+13	0.000000e+00	8.095239e-01	3.309525e+14	4.294048e+14	8.514388e+13	1.380898e+04	3.621555e+03	3.018983e+03	0	6.712374e-04
4.400000e+08	1.300039e+13	0.000000e+00	8.095239e-01	3.295422e+14	4.279232e+14	8.471168e+13	1.379851e+04	3.620524e+03	3.018124e+03	0	6.688073e-04
4.500000e+08	1.285896e+13	0.000000e+00	8.095239e-01	3.281396e+14	4.264246e+14	8.428259e+13	1.378809e+04	3.619465e+03	3.017241e+03	0	6.663732e-04
4.600000e+08	1.271834e+13	0.000000e+00	8.095239e-01	3.267447e+14	4.249108e+14	8.385658e+13	1.377771e+04	3.618381e+03	3.016338e+03	0	6.639353e-04
4.700000e+08	1.257855e+13	0.000000e+00	8.095239e-01	3.253578e+14	4.233837e+14	8.343363e+13	1.376737e+04	3.617274e+03	3.015414e+03	0	6.614938e-04
4.800000e+08	1.243959e+13	0.000000e+00	8.095239e-01	3.239788e+14	4.218450e+14	8.301370e+13	1.375708e+04	3.616145e+03	3.014473e+03	0	6.590488e-04
4.900000e+08	1.230147e+13	0.000000e+00	8.095239e-01	3.226079e+14	4.202962e+14	8.259678e+13	1.374683e+04	3.614995e+03	3.013515e+03	0	6.566005e-04
5.000000e+08	1.216419e+13	0.000000e+00	8.095239e-01	3.212451e+14	4.187389e+14	8.218285e+13	1.373662e+04	3.613828e+03	3.012542e+03	0	6.541489e-04
5.100000e+08	1.202776e+13	0.000000e+00	8.095239e-01	3.198904e+14	4.171743e+14	8.177187e+13	1.372646e+04	3.612643e+03	3.011554e+03	0	6.516942e-04
5.200000e+08	1.189219e+13	0.000000e+00	8.095239e-01	3.185439e+14	4.156038e+14	8.136382e+13	1.371634e+04	3.611443e+03	3.010554e+03	0	6.492365e-04
5.300000e+08	1.175748e+13	0.000000e+00	8.095239e-01	3.172055e+14	4.140284e+14	8.095869e+13	1.370626e+04	3.610229e+03	3.009542e+03	0	6.467757e-04
5.400000e+08	1.162363e+13	0.000000e+00	8.095239e-01	3.158754e+14	4.124493e+14	8.055644e+13	1.369623e+04	3.609002e+03	3.008519e+03	0	6.443120e-04
5.500000e+08	1.149065e+13	0.000000e+00	8.095239e-01	3.145535e+14	4.108674e+14	8.015705e+13	1.368624e+04	3.607764e+03	3.007487e+03	0	6.418454e-04
5.600000e+08	1.135853e+13	0.000000e+00	8.095239e-01	3.132399e+14	4.092837e+14	7.976050e+13	1.367628e+04	3.606514e+03	3.006445e+03	0	6.393759e-04
5.700000e+08	1.122728e+13	0.000000e+00	8.095239e-01	3.119345e+14	4.076990e+14	7.936676e+13	1.366637e+04	3.605255e+03	3.005395e+03	0	6.369036e-04
5.800000e+08	1.109689e+13	0.000000e+00	8.095239e-01	3.106373e+14	4.061141e+14	7.897583e+13	1.365651e+04	3.603987e+03	3.004338e+03	0	6.344284e-04
5.900000e+08	1.096736e+13	0.000000e+00	8.095239e-01	3.093483e+14	4.045297e+14	7.858766e+13	1.364668e+04	3.602711e+03	3.003274e+03	0	6.319504e-04
6.000000e+08	1.083870e+13	0.000000e+00	8.095239e-01	3.080676e+14	4.029465e+14	7.820224e+13	1.363689e+04	3.601427e+03	3.002204e+03	0	6.294695e-04
6.100000e+08	1.071090e+13	0.000000e+00	8.095239e-01	3.067950e+14	4.013651e+14	7.781954e+13	1.362715e+04	3.600138e+03	3.001129e+03	0	6.269856e-04
6.200000e+08	1.058396e+13	0.000000e+00	8.095239e-01	3.055306e+14	3.997860e+14	7.743955e+13	1.361744e+04	3.598842e+03	3.000050e+03	0	6.244989e-04
6.300000e+08	1.045788e+13	0.000000e+00	8.095239e-01	3.042743e+14	3.982099e+14	7.706224e+13	1.360777e+04	3.597542e+03	2.998965e+03	0	6.220092e-04
6.400000e+08	1.033265e+13	0.000000e+00	8.095239e-01	3.030261e+14	3.966371e+14	7.668760e+13	1.359815e+04	3.596237e+03	2.997878e+03	0	6.195164e-04
6.500000e+08	1.020827e+13	0.000000e+00	8.095239e-01	3.017860e+14	3.950682e+14	7.631559e+13	1.358856e+04	3.594928e+03	2.996786e+03	0	6.170206e-04
6.600000e+08	1.008474e+13	0.000000e+00	8.095239e-01	3.005540e+14	3.935035e+14	7.594620e+13	1.357901e+04	3.593616e+03	2.995693e+03	0	6.145216e-04
6.700000e+08	9.962055e+12	0.000000e+00	8.095239e-01	2.993299e+14	3.919434e+14	7.557941e+13	1.356950e+04	3.592300e+03	2.994596e+03	0	6.120194e-04
6.800000e+08	9.840208e+12	0.000000e+00	8.095239e-01	2.981138e+14	3.903883e+14	7.521519e+13	1.356003e+04	3.590983e+03	2.993498e+03	0	6.095140e-04
6.900000e+08	9.719195e+12	0.000000e+00	8.095239e-01	2.969057e+14	3.888384e+14	7.485353e+13	1.355060e+04	3.589663e+03	2.992398e+03	0	6.070051e-04
7.000000e+08	9.599012e+12	0.000000e+00	8.095239e-01	2.957054e+14	3.872941e+14	7.449440e+13	1.354121e+04	3.588342e+03	2.991297e+03	0	6.044927e-04
7.100000e+08	9.479656e+12	0.000000e+00	8.095239e-01	2.945129e+14	3.857556e+14	7.413779e+13	1.353185e+04	3.587020e+03	2.990194e+03	0	6.019768e-04
7.200000e+08	9.361121e+12	0.000000e+00	8.095239e-01	2.933283e+14	3.842232e+14	7.378367e+13	1.352253e+04	3.585697e+03	2.989091e+03	0	5.994572e-04
7.300000e+08	9.243401e+12	0.000000e+00	8.095239e-01	2.921513e+14	3.826971e+14	7.343203e+13	1.351325e+04	3.584373e+03	2.987988e+03	0	5.969338e-04
7.400000e+08	9.126493e+12	0.000000e+00	8.095239e-01	2.909821e+14	3.811774e+14	7.308284e+13	1.350401e+04	3.583049e+03	2.986884e+03	0	5.944065e-04
7.500000e+08	9.010390e+12	0.000000e+00	8.095239e-01	2.898205e+14	3.796644e+14	7.273608e+13	1.349480e+04	3.581725e+03	2.985780e+03	0	5.918751e-04
7.600000e+08	8.895088e+12	0.000000e+00	8.095239e-01	2.886664e+14	3.781582e+14	7.239175e+13	1.348563e+04	3.580401e+03	2.984677e+03	0	5.893396e-04
7.700000e+08	8.780580e+12	0.000000e+00	8.095239e-01	2.875200e+14	3.766590e+14	7.204980e+13	1.347650e+04	3.579078e+03	2.983574e+03	0	5.867998e-04
7.800000e+08	8.666862e+12	0.000000e+00	8.095239e-01	2.863810e+14	3.751669e+14	7.171024e+13	1.346740e+04	3.577755e+03	2.982471e+03	0	5.842556e-04
7.900000e+08	8.553927e+12	0.000000e+00	8.095239e-01	2.852494e+14	3.736820e+14	7.137303e+13	1.345834e+04	3.576434e+03	2.981370e+03	0	5.817067e-04
8.000000e+08	8.441771e+12	0.000000e+00	8.095239e-01	2.841252e+14	3.722044e+14	7.103816e+13	1.344932e+04	3.575114e+03	2.980269e+03	0	5.791532e-04
8.100000e+08	8.330387e+12	0.000000e+00	8.095239e-01	2.830084e+14	3.707343e+14	7.070561e+13	1.344033e+04	3.573795e+03	2.979170e+03	0	5.765947e-04
8.200000e+08	8.219770e+12	0.000000e+00	8.095239e-01	2.818988e+14	3.692717e+14	7.037536e+13	1.343137e+04	3.572477e+03	2.978072e+03	0	5.740311e-04
8.300000e+08	8.109913e+12	0.000000e+00	8.095239e-01	2.807964e+14	3.678166e+14	7.004739e+13	1.342245e+04	3.571162e+03	2.976975e+03	0	5.714624e-04
8.400000e+08	8.000812e+12	0.000000e+00	8.095239e-01	2.797012e+14	3.663692e+14	6.972170e+13	1.341357e+04	3.569848e+03	2.975880e+03	0	5.688882e-04
8.500000e+08	7.892460e+12	0.000000e+00	8.095239e-01	2.786131e+14	3.649295e+14	6.939824e+13	1.340472e+04	3.568536e+03	2.974786e+03	0	5.663084e-04
8.600000e+08	7.784851e+12	0.000000e+00	8.095239e-01	2.775321e+14	3.634975e+14	6.907702e+13	1.339590e+04	3.567226e+03	2.973694e+03	0	5.637229e-04
8.700000e+08	7.677980e+12	0.000000e+00	8.095239e-01	2.764580e+14	3.620733e+14	6.875801e+13	1.338712e+04	3.565919e+03	2.972604e+03	0	5.611314e-04
8.800000e+08	7.571840e+12	0.000000e+00	8.095239e-01	2.753909e+14	3.606569e+14	6.844119e+13	1.337837e+04	3.564614e+03	2.971516e+03	0	5.585337e-04
8.900000e+08	7.466427e+12	0.000000e+00	8.095239e-01	2.743307e+14	3.592484e+14	6.812655e+13	1.336966e+04	3.563311e+03	2.970430e+03	0	5.559297e-04
9.000000e+08	7.361733e+12	0.000000e+00	8.095239e-01	2.732774e+14	3.578477e+14	6.781407e+13	1.336098e+04	3.562011e+03	2.969346e+03	0	5.533190e-04
9.100000e+08	7.257754e+12	0.000000e+00	8.095239e-01	2.722308e+14	3.564548e+14	6.750373e+13	1.335233e+04	3.560713e+03	2.968265e+03	0	5.507016e-04
9.200000e+08	7.154483e+12	0.000000e+00	8.095239e-01	2.711909e+14	3.550699e+14	6.719552e+13	1.334372e+04	3.559418e+03	2.967185e+03	0	5.480771e-04
9.300000e+08	7.051914e+12	0.000000e+00	8.095239e-01	2.701577e+14	3.536928e+14	6.688941e+13	1.333514e+04	3.558126e+03	2.966108e+03	0	5.454454e-04
9.400000e+08	6.950043e+12	0.000000e+00	8.095239e-01	2.691311e+14	3.523237e+14	6.658540e+13	1.332659e+04	3.556837e+03	2.965033e+03	0	5.428061e-04
9.500000e+08	6.848862e+12	0.000000e+00	8.095239e-01	2.681111e+14	3.509624e+14	6.628346e+13	1.331807e+04	3.555550e+03	2.963961e+03	0	5.401591e-04
9.600000e+08	6.748367e+12	0.000000e+00	8.095239e-01	2.670976e+14	3.496089e+14	6.598358e+13	1.330959e+04	3.554267e+03	2.962891e+03	0	5.375041e-04
9.700000e+08	6.648551e+12	0.000000e+00	8.095239e-01	2.660906e+14	3.482634e+14	6.568575e+13	1.330114e+04	3.552987e+03	2.961824e+03	0	5.348409e-04
9.800000e+08	6.549409e+12	0.000000e+00	8.095239e-01	2.650899e+14	3.469256e+14	6.538994e+13	1.329272e+04	3.551709e+03	2.960759e+03	0	5.321690e-04
9.900000e+08	6.450935e+12	0.000000e+00	8.095239e-01	2.640957e+14	3.455957e+14	6.509614e+13	1.328433e+04	3.550435e+03	2.959697e+03	0	5.294884e-04
1.000000e+09	6.353124e+12	0.000000e+00	8.095239e-01	2.631077e+14	3.442736e+14	6.480433e+13	1.327597e+04	3.549164e+03	2.958637e+03	0	5.267987e-04
1.010000e+09	6.255970e+12	0.000000e+00	8.095239e-01	2.621259e+14	3.429593e+14	6.451451e+13	1.326764e+04	3.547896e+03	2.957580e+03	0	5.240996e-04
1.020000e+09	6.159468e+12	0.000000e+00	8.095239e-01	2.611504e+14	3.416527e+14	6.422665e+13	1.325935e+04	3.546632e+03	2.956526e+03	0	5.213907e-04
1.030000e+09	6.063612e+12	0.000000e+00	8.095239e-01	2.601810e+14	3.403538e+14	6.394073e+13	1.325109e+04	3.545371e+03	2.955475e+03	0	5.186719e-04
1.040000e+09	5.968396e+12	0.000000e+00	8.095239e-01	2.592177e+14	3.390626e+14	6.365675e+13	1.324285e+04	3.544113e+03	2.954426e+03	0	5.159427e-04
1.050000e+09	5.873815e+12	0.000000e+00	8.095239e-01	2.582604e+14	3.377791e+14	6.337468e+13	1.323465e+04	3.542858e+03	2.953380e+03	0	5.132028e-04
1.060000e+09	5.779864e+12	0.000000e+00	8.095239e-01	2.573092e+14	3.365033e+14	6.309452e+13	1.322648e+04	3.541607e+03	2.952337e+03	0	5.104518e-04
1.070000e+09	5.686537e+12	0.000000e+00	8.095239e-01	2.563638e+14	3.352350e+14	6.281625e+13	1.321834e+04	3.540359e+03	2.951297e+03	0	5.076895e-04
1.080000e+09	5.593829e+12	0.000000e+00	8.095239e-01	2.554244e+14	3.339742e+14	6.253984e+13	1.321022e+04	3.539114e+03	2.950259e+03	0	5.049154e-04
1.090000e+09	5.501735e+12	0.000000e+00	8.095239e-01	2.544908e+14	3.327210e+14	6.226530e+13	1.320214e+04	3.537873e+03	2.949225e+03	0	5.021292e-04
1.100000e+09	5.410249e+12	0.000000e+00	8.095239e-01	2.535630e+14	3.314753e+14	6.199260e+13	1.319409e+04	3.536635e+03	2.948193e+03	0	4.993304e-04
1.110000e+09	5.319367e+12	0.000000e+00	8.095239e-01	2.526410e+14	3.302370e+14	6.172173e+13	1.318606e+04	3.535401e+03	2.947164e+03	0	4.965186e-04
1.120000e+09	5.229083e+12	0.000000e+00	8.095239e-01	2.517246e+14	3.290061e+14	6.145267e+13	1.317807e+04	3.534170e+03	2.946138e+03	0	4.936935e-04
1.130000e+09	5.139392e+12	0.000000e+00	8.095239e-01	2.508139e+14	3.277825e+14	6.118541e+13	1.317010e+04	3.532943e+03	2.945115e+03	0	4.908546e-04
1.140000e+09	5.050289e+12	0.000000e+00	8.095239e-01	2.499088e+14	3.265663e+14	6.091994e+13	1.316216e+04	3.531719e+03	2.944095e+03	0	4.880013e-04
1.150000e+09	4.961770e+12	0.000000e+00	8.095239e-01	2.490093e+14	3.253574e+14	6.065625e+13	1.315426e+04	3.530498e+03	2.943077e+03	0	4.851333e-04
1.160000e+09	4.873828e+12	0.000000e+00	8.095239e-01	2.481153e+14	3.241556e+14	6.039431e+13	1.314638e+04	3.529282e+03	2.942063e+03	0	4.822501e-04
1.170000e+09	4.786460e+12	0.000000e+00	8.095239e-01	2.472267e+14	3.229611e+14	6.013411e+13	1.313852e+04	3.528068e+03	2.941051e+03	0	4.793511e-04
1.180000e+09	4.699660e+12	0.000000e+00	8.095239e-01	2.463436e+14	3.217737e+14	5.987565e+13	1.313070e+04	3.526858e+03	2.940042e+03	0	4.764358e-04
1.190000e+09	4.613423e+12	0.000000e+00	8.095239e-01	2.454658e+14	3.205934e+14	5.961891e+13	1.312290e+04	3.525652e+03	2.939037e+03	0	4.735036e-04
1.200000e+09	4.527745e+12	0.000000e+00	8.095239e-01	2.445934e+14	3.194201e+14	5.936387e+13	1.311514e+04	3.524448e+03	2.938034e+03	0	4.705541e-04
1.210000e+09	4.442621e+12	0.000000e+00	8.095239e-01	2.437263e+14	3.182539e+14	5.911052e+13	1.310740e+04	3.523249e+03	2.937034e+03	0	4.675865e-04
1.220000e+09	4.358046e+12	0.000000e+00	8.095239e-01	2.428644e+14	3.170946e+14	5.885885e+13	1.309968e+04	3.522053e+03	2.936037e+03	0	4.646003e-04
1.230000e+09	4.274016e+12	0.000000e+00	8.095239e-01	2.420077e+14	3.159422e+14	5.860884e+13	1.309200e+04	3.520860e+03	2.935043e+03	0	4.615948e-04
1.240000e+09	4.190526e+12	0.000000e+00	8.095239e-01	2.411561e+14	3.147967e+14	5.836049e+13	1.308434e+04	3.519671e+03	2.934051e+03	0	4.585694e-04
1.250000e+09	4.107571e+12	0.000000e+00	8.095239e-01	2.403097e+14	3.136580e+14	5.811378e+13	1.307671e+04	3.518486e+03	2.933063e+03	0	4.555233e-04
1.260000e+09	4.025147e+12	0.000000e+00	8.095239e-01	2.394684e+14	3.125260e+14	5.786869e+13	1.306910e+04	3.517303e+03	2.932078e+03	0	4.524558e-04
1.270000e+09	3.943250e+12	0.000000e+00	8.095239e-01	2.386320e+14	3.114008e+14	5.762522e+13	1.306152e+04	3.516125e+03	2.931095e+03	0	4.493661e-04
1.280000e+09	3.861874e+12	0.000000e+00	8.095239e-01	2.378007e+14	3.102823e+14	5.738335e+13	1.305397e+04	3.514950e+03	2.930115e+03	0	4.462535e-04
1.290000e+09	3.781016e+12	0.000000e+00	8.095239e-01	2.369743e+14	3.091704e+14	5.714307e+13	1.304644e+04	3.513778e+03	2.929139e+03	0	4.431170e-04
1.300000e+09	3.700672e+12	0.000000e+00	8.095239e-01	2.361528e+14	3.080651e+14	5.690437e+13	1.303895e+04	3.512609e+03	2.928165e+03	0	4.399559e-04
1.310000e+09	3.620836e+12	0.000000e+00	8.095239e-01	2.353362e+14	3.069663e+14	5.666723e+13	1.303147e+04	3.511445e+03	2.927194e+03	0	4.367691e-04
1.320000e+09	3.541505e+12	0.000000e+00	8.095239e-01	2.345244e+14	3.058740e+14	5.643164e+13	1.302402e+04	3.510283e+03	2.926225e+03	0	4.335557e-04
1.330000e+09	3.462675e+12	0.000000e+00	8.095239e-01	2.337174e+14	3.047882e+14	5.619760e+13	1.301660e+04	3.509125e+03	2.925260e+03	0	4.303147e-04
1.340000e+09	3.384341e+12	0.000000e+00	8.095239e-01	2.329152e+14	3.037088e+14	5.596508e+13	1.300920e+04	3.507970e+03	2.924298e+03	0	4.270450e-04
1.350000e+09	3.306499e+12	0.000000e+00	8.095239e-01	2.321177e+14	3.026357e+14	5.573408e+13	1.300183e+04	3.506819e+03	2.923338e+03	0	4.237454e-04
1.360000e+09	3.229145e+12	0.000000e+00	8.095239e-01	2.313248e+14	3.015689e+14	5.550459e+13	1.299449e+04	3.505671e+03	2.922381e+03	0	4.204149e-04
