#t		Qconv[W]	Ri[Rp]		R*[Rp]		Qc[W]		Qm[W]		Qr[W]		Tcmb[K]		Tl[K]		Tup[K]		RiFlag		Bs[T]
0.000000e+00	1.515540e+16	0.000000e+00	8.117644e-01	1.262686e+17	2.357374e+15	1.149236e+14	6.970219e+04	4.645073e+03	2.978773e+03	0	6.951216e-03
1.000000e+07	1.349479e+16	0.000000e+00	8.117644e-01	1.125167e+17	1.381484e+16	1.142868e+14	6.642401e+04	6.208670e+03	3.981470e+03	0	6.687448e-03
2.000000e+07	1.212026e+16	0.000000e+00	8.117644e-01	1.011297e+17	9.034427e+15	1.136548e+14	6.349388e+04	5.793193e+03	3.715035e+03	0	6.452217e-03
3.000000e+07	1.090737e+16	0.000000e+00	8.117644e-01	9.108075e+16	2.610350e+16	1.130276e+14	6.085514e+04	7.123518e+03	4.568140e+03	0	6.229382e-03
4.000000e+07	9.878755e+15	0.000000e+00	8.117644e-01	8.255580e+16	2.864165e+16	1.124050e+14	5.847237e+04	7.312390e+03	4.689259e+03	0	6.027063e-03
5.000000e+07	8.978049e+15	0.000000e+00	8.117644e-01	7.508944e+16	3.796828e+16	1.117870e+14	5.630835e+04	7.826343e+03	5.018845e+03	0	5.838021e-03
6.000000e+07	8.191930e+15	0.000000e+00	8.117644e-01	6.857133e+16	4.661617e+16	1.111737e+14	5.433613e+04	8.257253e+03	5.295177e+03	0	5.662398e-03
7.000000e+07	7.502989e+15	0.000000e+00	8.117644e-01	6.285752e+16	5.332443e+16	1.105649e+14	5.253181e+04	8.582180e+03	5.503545e+03	0	5.498992e-03
8.000000e+07	6.897264e+15	0.000000e+00	8.117644e-01	5.783252e+16	5.643668e+16	1.099607e+14	5.087504e+04	8.759210e+03	5.617070e+03	0	5.346841e-03
9.000000e+07	6.362014e+15	0.000000e+00	8.117644e-01	5.339097e+16	5.580766e+16	1.093609e+14	4.934838e+04	8.792151e+03	5.638194e+03	0	5.204790e-03
1.000000e+08	5.885698e+15	0.000000e+00	8.117644e-01	4.943745e+16	5.294786e+16	1.087656e+14	4.793697e+04	8.734445e+03	5.601188e+03	0	5.071514e-03
1.100000e+08	5.459178e+15	0.000000e+00	8.117644e-01	4.589638e+16	4.938471e+16	1.081747e+14	4.662838e+04	8.639903e+03	5.540561e+03	0	4.945924e-03
1.200000e+08	5.075584e+15	0.000000e+00	8.117644e-01	4.271094e+16	4.587806e+16	1.075882e+14	4.541202e+04	8.537404e+03	5.474831e+03	0	4.827256e-03
1.300000e+08	4.729480e+15	0.000000e+00	8.117644e-01	3.983614e+16	4.266382e+16	1.070061e+14	4.427877e+04	8.437591e+03	5.410824e+03	0	4.714939e-03
1.400000e+08	4.416328e+15	0.000000e+00	8.117644e-01	3.723441e+16	3.977047e+16	1.064282e+14	4.322063e+04	8.343164e+03	5.350270e+03	0	4.608491e-03
1.500000e+08	4.132245e+15	0.000000e+00	8.117644e-01	3.487362e+16	3.716877e+16	1.058546e+14	4.223056e+04	8.254243e+03	5.293247e+03	0	4.507478e-03
1.600000e+08	3.873878e+15	0.000000e+00	8.117644e-01	3.272600e+16	3.482130e+16	1.052853e+14	4.130233e+04	8.170339e+03	5.239441e+03	0	4.411507e-03
1.700000e+08	3.638327e+15	0.000000e+00	8.117644e-01	3.076754e+16	3.269455e+16	1.047201e+14	4.043044e+04	8.090920e+03	5.188512e+03	0	4.320217e-03
1.800000e+08	3.423072e+15	0.000000e+00	8.117644e-01	2.897737e+16	3.076051e+16	1.041592e+14	3.960998e+04	8.015529e+03	5.140165e+03	0	4.233280e-03
1.900000e+08	3.225918e+15	0.000000e+00	8.117644e-01	2.733733e+16	2.899583e+16	1.036023e+14	3.883660e+04	7.943786e+03	5.094158e+03	0	4.150395e-03
2.000000e+08	3.044951e+15	0.000000e+00	8.117644e-01	2.583155e+16	2.738089e+16	1.030496e+14	3.810639e+04	7.875374e+03	5.050287e+03	0	4.071288e-03
2.100000e+08	2.878497e+15	0.000000e+00	8.117644e-01	2.444615e+16	2.589900e+16	1.025009e+14	3.741585e+04	7.810023e+03	5.008379e+03	0	3.995706e-03
2.200000e+08	2.725083e+15	0.000000e+00	8.117644e-01	2.316896e+16	2.453584e+16	1.019562e+14	3.676187e+04	7.747500e+03	4.968285e+03	0	3.923421e-03
2.300000e+08	2.583416e+15	0.000000e+00	8.117644e-01	2.198925e+16	2.327905e+16	1.014156e+14	3.614160e+04	7.687601e+03	4.929873e+03	0	3.854220e-03
2.400000e+08	2.452355e+15	0.000000e+00	8.117644e-01	2.089756e+16	2.211784e+16	1.008789e+14	3.555252e+04	7.630142e+03	4.893026e+03	0	3.787908e-03
2.500000e+08	2.330889e+15	0.000000e+00	8.117644e-01	1.988553e+16	2.104280e+16	1.003461e+14	3.499232e+04	7.574962e+03	4.857640e+03	0	3.724307e-03
2.600000e+08	2.218123e+15	0.000000e+00	8.117644e-01	1.894573e+16	2.004563e+16	9.981725e+13	3.445891e+04	7.521914e+03	4.823622e+03	0	3.663253e-03
2.700000e+08	2.113262e+15	0.000000e+00	8.117644e-01	1.807157e+16	1.911905e+16	9.929225e+13	3.395041e+04	7.470864e+03	4.790885e+03	0	3.604592e-03
2.800000e+08	2.015597e+15	0.000000e+00	8.117644e-01	1.725717e+16	1.825657e+16	9.877109e+13	3.346509e+04	7.421692e+03	4.759352e+03	0	3.548185e-03
2.900000e+08	1.924496e+15	0.000000e+00	8.117644e-01	1.649729e+16	1.745245e+16	9.825373e+13	3.300139e+04	7.374286e+03	4.728952e+03	0	3.493901e-03
3.000000e+08	1.839391e+15	0.000000e+00	8.117644e-01	1.578724e+16	1.670157e+16	9.774015e+13	3.255787e+04	7.328545e+03	4.699619e+03	0	3.441621e-03
3.100000e+08	1.759777e+15	0.000000e+00	8.117644e-01	1.512280e+16	1.599936e+16	9.723030e+13	3.213323e+04	7.284376e+03	4.671295e+03	0	3.391232e-03
3.200000e+08	1.685197e+15	0.000000e+00	8.117644e-01	1.450021e+16	1.534171e+16	9.672416e+13	3.172626e+04	7.241692e+03	4.643922e+03	0	3.342632e-03
3.300000e+08	1.615241e+15	0.000000e+00	8.117644e-01	1.391604e+16	1.472497e+16	9.622171e+13	3.133587e+04	7.200414e+03	4.617452e+03	0	3.295723e-03
3.400000e+08	1.549538e+15	0.000000e+00	8.117644e-01	1.336724e+16	1.414580e+16	9.572290e+13	3.096103e+04	7.160467e+03	4.591834e+03	0	3.250417e-03
3.500000e+08	1.487755e+15	0.000000e+00	8.117644e-01	1.285103e+16	1.360125e+16	9.522772e+13	3.060082e+04	7.121782e+03	4.567027e+03	0	3.206630e-03
3.600000e+08	1.429589e+15	0.000000e+00	8.117644e-01	1.236490e+16	1.308860e+16	9.473612e+13	3.025438e+04	7.084297e+03	4.542989e+03	0	3.164283e-03
3.700000e+08	1.374765e+15	0.000000e+00	8.117644e-01	1.190657e+16	1.260542e+16	9.424808e+13	2.992091e+04	7.047951e+03	4.519681e+03	0	3.123305e-03
3.800000e+08	1.323034e+15	0.000000e+00	8.117644e-01	1.147397e+16	1.214949e+16	9.376358e+13	2.959968e+04	7.012690e+03	4.497069e+03	0	3.083628e-03
3.900000e+08	1.274169e+15	0.000000e+00	8.117644e-01	1.106522e+16	1.171881e+16	9.328257e+13	2.929000e+04	6.978460e+03	4.475118e+03	0	3.045187e-03
4.000000e+08	1.227965e+15	0.000000e+00	8.117644e-01	1.067861e+16	1.131154e+16	9.280504e+13	2.899125e+04	6.945214e+03	4.453798e+03	0	3.007925e-03
4.100000e+08	1.184232e+15	0.000000e+00	8.117644e-01	1.031257e+16	1.092603e+16	9.233096e+13	2.870284e+04	6.912907e+03	4.433080e+03	0	2.971784e-03
4.200000e+08	1.142797e+15	0.000000e+00	8.117644e-01	9.965667e+15	1.056073e+16	9.186029e+13	2.842422e+04	6.881496e+03	4.412937e+03	0	2.936712e-03
4.300000e+08	1.103505e+15	0.000000e+00	8.117644e-01	9.636596e+15	1.021427e+16	9.139301e+13	2.815489e+04	6.850940e+03	4.393342e+03	0	2.902661e-03
4.400000e+08	1.066209e+15	0.000000e+00	8.117644e-01	9.324154e+15	9.885361e+15	9.092909e+13	2.789437e+04	6.821202e+03	4.374272e+03	0	2.869585e-03
4.500000e+08	1.030777e+15	0.000000e+00	8.117644e-01	9.027239e+15	9.572837e+15	9.046851e+13	2.764222e+04	6.792248e+03	4.355705e+03	0	2.837439e-03
4.600000e+08	9.970870e+14	0.000000e+00	8.117644e-01	8.744839e+15	9.275624e+15	9.001123e+13	2.739802e+04	6.764043e+03	4.337618e+03	0	2.806183e-03
4.700000e+08	9.650273e+14	0.000000e+00	8.117644e-01	8.476021e+15	8.992731e+15	8.955723e+13	2.716140e+04	6.736557e+03	4.319991e+03	0	2.775779e-03
4.800000e+08	9.344942e+14	0.000000e+00	8.117644e-01	8.219925e+15	8.723250e+15	8.910649e+13	2.693200e+04	6.709759e+03	4.302806e+03	0	2.746190e-03
4.900000e+08	9.053923e+14	0.000000e+00	8.117644e-01	7.975759e+15	8.466340e+15	8.865897e+13	2.670946e+04	6.683622e+03	4.286045e+03	0	2.717381e-03
5.000000e+08	8.776336e+14	0.000000e+00	8.117644e-01	7.742791e+15	8.221226e+15	8.821465e+13	2.649348e+04	6.658119e+03	4.269691e+03	0	2.689322e-03
5.100000e+08	8.511365e+14	0.000000e+00	8.117644e-01	7.520343e+15	7.987191e+15	8.777351e+13	2.628376e+04	6.633226e+03	4.253728e+03	0	2.661980e-03
5.200000e+08	8.258256e+14	0.000000e+00	8.117644e-01	7.307788e+15	7.763573e+15	8.733552e+13	2.608001e+04	6.608919e+03	4.238140e+03	0	2.635326e-03
5.300000e+08	8.016310e+14	0.000000e+00	8.117644e-01	7.104544e+15	7.549757e+15	8.690064e+13	2.588198e+04	6.585174e+03	4.222913e+03	0	2.609335e-03
5.400000e+08	7.784878e+14	0.000000e+00	8.117644e-01	6.910073e+15	7.345174e+15	8.646887e+13	2.568941e+04	6.561972e+03	4.208034e+03	0	2.583979e-03
5.500000e+08	7.563359e+14	0.000000e+00	8.117644e-01	6.723873e+15	7.149293e+15	8.604017e+13	2.550207e+04	6.539292e+03	4.193490e+03	0	2.559233e-03
5.600000e+08	7.351191e+14	0.000000e+00	8.117644e-01	6.545478e+15	6.961624e+15	8.561451e+13	2.531974e+04	6.517115e+03	4.179268e+03	0	2.535075e-03
5.700000e+08	7.147854e+14	0.000000e+00	8.117644e-01	6.374455e+15	6.781708e+15	8.519188e+13	2.514221e+04	6.495422e+03	4.165357e+03	0	2.511483e-03
5.800000e+08	6.952863e+14	0.000000e+00	8.117644e-01	6.210399e+15	6.609120e+15	8.477225e+13	2.496928e+04	6.474196e+03	4.151746e+03	0	2.488434e-03
5.900000e+08	6.765763e+14	0.000000e+00	8.117644e-01	6.052934e+15	6.443462e+15	8.435559e+13	2.480077e+04	6.453421e+03	4.138423e+03	0	2.465910e-03
6.000000e+08	6.586134e+14	0.000000e+00	8.117644e-01	5.901708e+15	6.284363e+15	8.394188e+13	2.463650e+04	6.433081e+03	4.125380e+03	0	2.443891e-03
6.100000e+08	6.413579e+14	0.000000e+00	8.117644e-01	5.756393e+15	6.131477e+15	8.353110e+13	2.447631e+04	6.413162e+03	4.112606e+03	0	2.422359e-03
6.200000e+08	6.247731e+14	0.000000e+00	8.117644e-01	5.616680e+15	5.984480e+15	8.312322e+13	2.432003e+04	6.393648e+03	4.100092e+03	0	2.401296e-03
6.300000e+08	6.088243e+14	0.000000e+00	8.117644e-01	5.482283e+15	5.843070e+15	8.271822e+13	2.416753e+04	6.374527e+03	4.087830e+03	0	2.380687e-03
6.400000e+08	5.934792e+14	0.000000e+00	8.117644e-01	5.352932e+15	5.706963e+15	8.231608e+13	2.401864e+04	6.355785e+03	4.075811e+03	0	2.360515e-03
6.500000e+08	5.787075e+14	0.000000e+00	8.117644e-01	5.228375e+15	5.575892e+15	8.191677e+13	2.387324e+04	6.337410e+03	4.064028e+03	0	2.340766e-03
6.600000e+08	5.644807e+14	0.000000e+00	8.117644e-01	5.108374e+15	5.449608e+15	8.152027e+13	2.373120e+04	6.319390e+03	4.052472e+03	0	2.321425e-03
6.700000e+08	5.507722e+14	0.000000e+00	8.117644e-01	4.992708e+15	5.327878e+15	8.112655e+13	2.359241e+04	6.301714e+03	4.041137e+03	0	2.302479e-03
6.800000e+08	5.375569e+14	0.000000e+00	8.117644e-01	4.881166e+15	5.210481e+15	8.073560e+13	2.345673e+04	6.284372e+03	4.030016e+03	0	2.283914e-03
6.900000e+08	5.248111e+14	0.000000e+00	8.117644e-01	4.773554e+15	5.097211e+15	8.034740e+13	2.332406e+04	6.267351e+03	4.019101e+03	0	2.265719e-03
7.000000e+08	5.125127e+14	0.000000e+00	8.117644e-01	4.669685e+15	4.987872e+15	7.996191e+13	2.319430e+04	6.250644e+03	4.008387e+03	0	2.247880e-03
7.100000e+08	5.006408e+14	0.000000e+00	8.117644e-01	4.569385e+15	4.882283e+15	7.957913e+13	2.306735e+04	6.234240e+03	3.997868e+03	0	2.230388e-03
7.200000e+08	4.891756e+14	0.000000e+00	8.117644e-01	4.472491e+15	4.780269e+15	7.919902e+13	2.294311e+04	6.218130e+03	3.987537e+03	0	2.213230e-03
7.300000e+08	4.780987e+14	0.000000e+00	8.117644e-01	4.378847e+15	4.681669e+15	7.882157e+13	2.282148e+04	6.202305e+03	3.977389e+03	0	2.196397e-03
7.400000e+08	4.673925e+14	0.000000e+00	8.117644e-01	4.288307e+15	4.586329e+15	7.844675e+13	2.270238e+04	6.186758e+03	3.967419e+03	0	2.179878e-03
7.500000e+08	4.570404e+14	0.000000e+00	8.117644e-01	4.200734e+15	4.494103e+15	7.807454e+13	2.258574e+04	6.171479e+03	3.957621e+03	0	2.163664e-03
7.600000e+08	4.470269e+14	0.000000e+00	8.117644e-01	4.115996e+15	4.404856e+15	7.770493e+13	2.247146e+04	6.156462e+03	3.947991e+03	0	2.147746e-03
7.700000e+08	4.373371e+14	0.000000e+00	8.117644e-01	4.033972e+15	4.318457e+15	7.733789e+13	2.235947e+04	6.141699e+03	3.938523e+03	0	2.132114e-03
7.800000e+08	4.279571e+14	0.000000e+00	8.117644e-01	3.954544e+15	4.234784e+15	7.697340e+13	2.224970e+04	6.127182e+03	3.929214e+03	0	2.116761e-03
7.900000e+08	4.188737e+14	0.000000e+00	8.117644e-01	3.877601e+15	4.153720e+15	7.661144e+13	2.214207e+04	6.112906e+03	3.920059e+03	0	2.101677e-03
8.000000e+08	4.100743e+14	0.000000e+00	8.117644e-01	3.803040e+15	4.075157e+15	7.625200e+13	2.203654e+04	6.098862e+03	3.911053e+03	0	2.086856e-03
8.100000e+08	4.015470e+14	0.000000e+00	8.117644e-01	3.730761e+15	3.998990e+15	7.589504e+13	2.193301e+04	6.085046e+03	3.902193e+03	0	2.072290e-03
8.200000e+08	3.932806e+14	0.000000e+00	8.117644e-01	3.660671e+15	3.925120e+15	7.554055e+13	2.183145e+04	6.071450e+03	3.893474e+03	0	2.057971e-03
8.300000e+08	3.852645e+14	0.000000e+00	8.117644e-01	3.592679e+15	3.853455e+15	7.518852e+13	2.173178e+04	6.058069e+03	3.884894e+03	0	2.043892e-03
8.400000e+08	3.774885e+14	0.000000e+00	8.117644e-01	3.526702e+15	3.783904e+15	7.483891e+13	2.163395e+04	6.044898e+03	3.876447e+03	0	2.030048e-03
8.500000e+08	3.699429e+14	0.000000e+00	8.117644e-01	3.462659e+15	3.716383e+15	7.449172e+13	2.153791e+04	6.031930e+03	3.868131e+03	0	2.016430e-03
8.600000e+08	3.626186e+14	0.000000e+00	8.117644e-01	3.400473e+15	3.650813e+15	7.414692e+13	2.144361e+04	6.019161e+03	3.859943e+03	0	2.003034e-03
8.700000e+08	3.555070e+14	0.000000e+00	8.117644e-01	3.340073e+15	3.587117e+15	7.380450e+13	2.135098e+04	6.006585e+03	3.851878e+03	0	1.989853e-03
8.800000e+08	3.485997e+14	0.000000e+00	8.117644e-01	3.281389e+15	3.525222e+15	7.346443e+13	2.126000e+04	5.994198e+03	3.843934e+03	0	1.976882e-03
8.900000e+08	3.418889e+14	0.000000e+00	8.117644e-01	3.224354e+15	3.465060e+15	7.312670e+13	2.117060e+04	5.981995e+03	3.836109e+03	0	1.964114e-03
9.000000e+08	3.353670e+14	0.000000e+00	8.117644e-01	3.168908e+15	3.406565e+15	7.279128e+13	2.108275e+04	5.969970e+03	3.828398e+03	0	1.951544e-03
9.100000e+08	3.290271e+14	0.000000e+00	8.117644e-01	3.114989e+15	3.349674e+15	7.245817e+13	2.099641e+04	5.958121e+03	3.820799e+03	0	1.939168e-03
9.200000e+08	3.228621e+14	0.000000e+00	8.117644e-01	3.062541e+15	3.294328e+15	7.212733e+13	2.091152e+04	5.946442e+03	3.813310e+03	0	1.926981e-03
9.300000e+08	3.168658e+14	0.000000e+00	8.117644e-01	3.011510e+15	3.240469e+15	7.179876e+13	2.082806e+04	5.934930e+03	3.805927e+03	0	1.914976e-03
9.400000e+08	3.110318e+14	0.000000e+00	8.117644e-01	2.961844e+15	3.188043e+15	7.147243e+13	2.074598e+04	5.923580e+03	3.798649e+03	0	1.903151e-03
9.500000e+08	3.053543e+14	0.000000e+00	8.117644e-01	2.913493e+15	3.136999e+15	7.114833e+13	2.066525e+04	5.912389e+03	3.791472e+03	0	1.891500e-03
9.600000e+08	2.998276e+14	0.000000e+00	8.117644e-01	2.866412e+15	3.087287e+15	7.082645e+13	2.058583e+04	5.901353e+03	3.784395e+03	0	1.880019e-03
9.700000e+08	2.944463e+14	0.000000e+00	8.117644e-01	2.820553e+15	3.038860e+15	7.050675e+13	2.050768e+04	5.890468e+03	3.777415e+03	0	1.868703e-03
9.800000e+08	2.892054e+14	0.000000e+00	8.117644e-01	2.775875e+15	2.991672e+15	7.018923e+13	2.043078e+04	5.879731e+03	3.770529e+03	0	1.857550e-03
9.900000e+08	2.840999e+14	0.000000e+00	8.117644e-01	2.732337e+15	2.945681e+15	6.987387e+13	2.035510e+04	5.869138e+03	3.763736e+03	0	1.846554e-03
1.000000e+09	2.791250e+14	0.000000e+00	8.117644e-01	2.689898e+15	2.900845e+15	6.956064e+13	2.028059e+04	5.858686e+03	3.757034e+03	0	1.835712e-03
1.010000e+09	2.742763e+14	0.000000e+00	8.117644e-01	2.648522e+15	2.857125e+15	6.924955e+13	2.020724e+04	5.848372e+03	3.750420e+03	0	1.825021e-03
1.020000e+09	2.695495e+14	0.000000e+00	8.117644e-01	2.608172e+15	2.814483e+15	6.894056e+13	2.013500e+04	5.838194e+03	3.743893e+03	0	1.814476e-03
1.030000e+09	2.649405e+14	0.000000e+00	8.117644e-01	2.568813e+15	2.772882e+15	6.863366e+13	2.006387e+04	5.828147e+03	3.737450e+03	0	1.804074e-03
1.040000e+09	2.604453e+14	0.000000e+00	8.117644e-01	2.530414e+15	2.732289e+15	6.832883e+13	1.999380e+04	5.818229e+03	3.731090e+03	0	1.793813e-03
1.050000e+09	2.560601e+14	0.000000e+00	8.117644e-01	2.492941e+15	2.692669e+15	6.802606e+13	1.992478e+04	5.808437e+03	3.724811e+03	0	1.783688e-03
1.060000e+09	2.517813e+14	0.000000e+00	8.117644e-01	2.456365e+15	2.653991e+15	6.772534e+13	1.985677e+04	5.798769e+03	3.718611e+03	0	1.773697e-03
1.070000e+09	2.476054e+14	0.000000e+00	8.117644e-01	2.420656e+15	2.616224e+15	6.742664e+13	1.978975e+04	5.789222e+03	3.712488e+03	0	1.763837e-03
1.080000e+09	2.435291e+14	0.000000e+00	8.117644e-01	2.385787e+15	2.579340e+15	6.712995e+13	1.972371e+04	5.779793e+03	3.706442e+03	0	1.754104e-03
1.090000e+09	2.395492e+14	0.000000e+00	8.117644e-01	2.351731e+15	2.543309e+15	6.683526e+13	1.965861e+04	5.770480e+03	3.700470e+03	0	1.744496e-03
1.100000e+09	2.356627e+14	0.000000e+00	8.117644e-01	2.318462e+15	2.508105e+15	6.654254e+13	1.959444e+04	5.761281e+03	3.694570e+03	0	1.735010e-03
1.110000e+09	2.318664e+14	0.000000e+00	8.117644e-01	2.285955e+15	2.473702e+15	6.625179e+13	1.953117e+04	5.752192e+03	3.688742e+03	0	1.725643e-03
1.120000e+09	2.281578e+14	0.000000e+00	8.117644e-01	2.254186e+15	2.440076e+15	6.596299e+13	1.946879e+04	5.743213e+03	3.682984e+03	0	1.716393e-03
1.130000e+09	2.245339e+14	0.000000e+00	8.117644e-01	2.223133e+15	2.407201e+15	6.567611e+13	1.940727e+04	5.734340e+03	3.677294e+03	0	1.707257e-03
1.140000e+09	2.209922e+14	0.000000e+00	8.117644e-01	2.192774e+15	2.375056e+15	6.539116e+13	1.934659e+04	5.725571e+03	3.671670e+03	0	1.698233e-03
1.150000e+09	2.175302e+14	0.000000e+00	8.117644e-01	2.163088e+15	2.343617e+15	6.510811e+13	1.928674e+04	5.716905e+03	3.666113e+03	0	1.689318e-03
1.160000e+09	2.141455e+14	0.000000e+00	8.117644e-01	2.134054e+15	2.312865e+15	6.482694e+13	1.922769e+04	5.708339e+03	3.660620e+03	0	1.680511e-03
1.170000e+09	2.108357e+14	0.000000e+00	8.117644e-01	2.105653e+15	2.282778e+15	6.454765e+13	1.916944e+04	5.699872e+03	3.655190e+03	0	1.671808e-03
1.180000e+09	2.075986e+14	0.000000e+00	8.117644e-01	2.077866e+15	2.253336e+15	6.427022e+13	1.911195e+04	5.691501e+03	3.649822e+03	0	1.663208e-03
1.190000e+09	2.044321e+14	0.000000e+00	8.117644e-01	2.050674e+15	2.224521e+15	6.399463e+13	1.905522e+04	5.683224e+03	3.644514e+03	0	1.654708e-03
1.200000e+09	2.013340e+14	0.000000e+00	8.117644e-01	2.024062e+15	2.196314e+15	6.372087e+13	1.899923e+04	5.675041e+03	3.639267e+03	0	1.646307e-03
1.210000e+09	1.983024e+14	0.000000e+00	8.117644e-01	1.998011e+15	2.168698e+15	6.344893e+13	1.894397e+04	5.666948e+03	3.634077e+03	0	1.638002e-03
1.220000e+09	1.953353e+14	0.000000e+00	8.117644e-01	1.972506e+15	2.141655e+15	6.317879e+13	1.888941e+04	5.658945e+03	3.628945e+03	0	1.629791e-03
1.230000e+09	1.924309e+14	0.000000e+00	8.117644e-01	1.947531e+15	2.115171e+15	6.291044e+13	1.883555e+04	5.651029e+03	3.623868e+03	0	1.621673e-03
1.240000e+09	1.895874e+14	0.000000e+00	8.117644e-01	1.923071e+15	2.089227e+15	6.264386e+13	1.878236e+04	5.643199e+03	3.618847e+03	0	1.613646e-03
1.250000e+09	1.868031e+14	0.000000e+00	8.117644e-01	1.899112e+15	2.063811e+15	6.237904e+13	1.872985e+04	5.635454e+03	3.613880e+03	0	1.605707e-03
1.260000e+09	1.840763e+14	0.000000e+00	8.117644e-01	1.875639e+15	2.038906e+15	6.211596e+13	1.867798e+04	5.627791e+03	3.608967e+03	0	1.597856e-03
1.270000e+09	1.814054e+14	0.000000e+00	8.117644e-01	1.852639e+15	2.014498e+15	6.185462e+13	1.862675e+04	5.620210e+03	3.604105e+03	0	1.590090e-03
1.280000e+09	1.787888e+14	0.000000e+00	8.117644e-01	1.830099e+15	1.990575e+15	6.159500e+13	1.857615e+04	5.612708e+03	3.599294e+03	0	1.582408e-03
1.290000e+09	1.762251e+14	0.000000e+00	8.117644e-01	1.808006e+15	1.967122e+15	6.133708e+13	1.852616e+04	5.605285e+03	3.594534e+03	0	1.574808e-03
1.300000e+09	1.737128e+14	0.000000e+00	8.117644e-01	1.786349e+15	1.944128e+15	6.108086e+13	1.847677e+04	5.597939e+03	3.589823e+03	0	1.567288e-03
1.310000e+09	1.712505e+14	0.000000e+00	8.117644e-01	1.765116e+15	1.921579e+15	6.082632e+13	1.842797e+04	5.590669e+03	3.585161e+03	0	1.559848e-03
1.320000e+09	1.688369e+14	0.000000e+00	8.117644e-01	1.744295e+15	1.899465e+15	6.057344e+13	1.837975e+04	5.583473e+03	3.580547e+03	0	1.552485e-03
1.330000e+09	1.664707e+14	0.000000e+00	8.117644e-01	1.723875e+15	1.877773e+15	6.032222e+13	1.833210e+04	5.576350e+03	3.575979e+03	0	1.545198e-03
1.340000e+09	1.641505e+14	0.000000e+00	8.117644e-01	1.703846e+15	1.856492e+15	6.007263e+13	1.828500e+04	5.569299e+03	3.571457e+03	0	1.537986e-03
1.350000e+09	1.618753e+14	0.000000e+00	8.117644e-01	1.684197e+15	1.835611e+15	5.982468e+13	1.823845e+04	5.562318e+03	3.566980e+03	0	1.530847e-03
1.360000e+09	1.596438e+14	0.000000e+00	8.117644e-01	1.664920e+15	1.815121e+15	5.957835e+13	1.819243e+04	5.555407e+03	3.562548e+03	0	1.523780e-03
