#t		Qconv[W]	Ri[Rp]		R*[Rp]		Qc[W]		Qm[W]		Qr[W]		Tcmb[K]		Tl[K]		Tup[K]		RiFlag		Bs[T]
0.000000e+00	3.035473e+14	0.000000e+00	5.189874e-01	5.942177e+15	7.345020e+13	1.839835e+14	1.618314e+04	5.401754e+03	2.355782e+03	0	2.390080e-03
1.000000e+07	2.532171e+14	0.000000e+00	5.189874e-01	4.961550e+15	1.133473e+14	1.829641e+14	1.537170e+04	5.778959e+03	2.520287e+03	0	2.249924e-03
2.000000e+07	2.138109e+14	0.000000e+00	5.189874e-01	4.193647e+15	1.572896e+14	1.819523e+14	1.468810e+04	6.092158e+03	2.656877e+03	0	2.126572e-03
3.000000e+07	1.824546e+14	0.000000e+00	5.189874e-01	3.582516e+15	2.029288e+14	1.809481e+14	1.410599e+04	6.354472e+03	2.771276e+03	0	2.017074e-03
4.000000e+07	1.571520e+14	0.000000e+00	5.189874e-01	3.089295e+15	2.484644e+14	1.799513e+14	1.360558e+04	6.575656e+03	2.867737e+03	0	1.919155e-03
5.000000e+07	1.364841e+14	0.000000e+00	5.189874e-01	2.686357e+15	2.926049e+14	1.789621e+14	1.317175e+04	6.763129e+03	2.949497e+03	0	1.831039e-03
6.000000e+07	1.194208e+14	0.000000e+00	5.189874e-01	2.353641e+15	3.344785e+14	1.779801e+14	1.279277e+04	6.922654e+03	3.019069e+03	0	1.751312e-03
7.000000e+07	1.051997e+14	0.000000e+00	5.189874e-01	2.076303e+15	3.735396e+14	1.770055e+14	1.245941e+04	7.058782e+03	3.078436e+03	0	1.678837e-03
8.000000e+07	9.324735e+13	0.000000e+00	5.189874e-01	1.843171e+15	4.094862e+14	1.760382e+14	1.216429e+04	7.175160e+03	3.129190e+03	0	1.612683e-03
9.000000e+07	8.312550e+13	0.000000e+00	5.189874e-01	1.645712e+15	4.421930e+14	1.750780e+14	1.190151e+04	7.274754e+03	3.172624e+03	0	1.552083e-03
1.000000e+08	7.449496e+13	0.000000e+00	5.189874e-01	1.477319e+15	4.716599e+14	1.741250e+14	1.166623e+04	7.359998e+03	3.209800e+03	0	1.496394e-03
1.100000e+08	6.708994e+13	0.000000e+00	5.189874e-01	1.332812e+15	4.979720e+14	1.731790e+14	1.145452e+04	7.432908e+03	3.241598e+03	0	1.445072e-03
1.200000e+08	6.069989e+13	0.000000e+00	5.189874e-01	1.208091e+15	5.212703e+14	1.722401e+14	1.126310e+04	7.495173e+03	3.268752e+03	0	1.397654e-03
1.300000e+08	5.515641e+13	0.000000e+00	5.189874e-01	1.099874e+15	5.417304e+14	1.713081e+14	1.108925e+04	7.548214e+03	3.291884e+03	0	1.353741e-03
1.400000e+08	5.032361e+13	0.000000e+00	5.189874e-01	1.005513e+15	5.595466e+14	1.703830e+14	1.093069e+04	7.593233e+03	3.311517e+03	0	1.312988e-03
1.500000e+08	4.609096e+13	0.000000e+00	5.189874e-01	9.228545e+14	5.749211e+14	1.694647e+14	1.078550e+04	7.631257e+03	3.328100e+03	0	1.275094e-03
1.600000e+08	4.236791e+13	0.000000e+00	5.189874e-01	8.501335e+14	5.880559e+14	1.685533e+14	1.065205e+04	7.663165e+03	3.342016e+03	0	1.239793e-03
1.700000e+08	3.907975e+13	0.000000e+00	5.189874e-01	7.858943e+14	5.991478e+14	1.676485e+14	1.052895e+04	7.689713e+03	3.353594e+03	0	1.206852e-03
1.800000e+08	3.616450e+13	0.000000e+00	5.189874e-01	7.289285e+14	6.083852e+14	1.667504e+14	1.041501e+04	7.711552e+03	3.363118e+03	0	1.176064e-03
1.900000e+08	3.357042e+13	0.000000e+00	5.189874e-01	6.782277e+14	6.159451e+14	1.658590e+14	1.030921e+04	7.729249e+03	3.370836e+03	0	1.147244e-03
2.000000e+08	3.125409e+13	0.000000e+00	5.189874e-01	6.329455e+14	6.219936e+14	1.649741e+14	1.021066e+04	7.743295e+03	3.376961e+03	0	1.120227e-03
2.100000e+08	2.917893e+13	0.000000e+00	5.189874e-01	5.923685e+14	6.266836e+14	1.640957e+14	1.011860e+04	7.754119e+03	3.381682e+03	0	1.094864e-03
2.200000e+08	2.731392e+13	0.000000e+00	5.189874e-01	5.558921e+14	6.301568e+14	1.632237e+14	1.003237e+04	7.762096e+03	3.385161e+03	0	1.071022e-03
2.300000e+08	2.563270e+13	0.000000e+00	5.189874e-01	5.230022e+14	6.325415e+14	1.623582e+14	9.951376e+03	7.767556e+03	3.387542e+03	0	1.048580e-03
2.400000e+08	2.411273e+13	0.000000e+00	5.189874e-01	4.932594e+14	6.339559e+14	1.614990e+14	9.875116e+03	7.770787e+03	3.388951e+03	0	1.027430e-03
2.500000e+08	2.273470e+13	0.000000e+00	5.189874e-01	4.662871e+14	6.345065e+14	1.606461e+14	9.803140e+03	7.772043e+03	3.389499e+03	0	1.007473e-03
2.600000e+08	2.148199e+13	0.000000e+00	5.189874e-01	4.417612e+14	6.342903e+14	1.597994e+14	9.735052e+03	7.771550e+03	3.389284e+03	0	9.886177e-04
2.700000e+08	2.034025e+13	0.000000e+00	5.189874e-01	4.194016e+14	6.333947e+14	1.589589e+14	9.670504e+03	7.769505e+03	3.388392e+03	0	9.707834e-04
2.800000e+08	1.929705e+13	0.000000e+00	5.189874e-01	3.989659e+14	6.318986e+14	1.581246e+14	9.609186e+03	7.766085e+03	3.386901e+03	0	9.538948e-04
2.900000e+08	1.834157e+13	0.000000e+00	5.189874e-01	3.802433e+14	6.298731e+14	1.572963e+14	9.550822e+03	7.761446e+03	3.384878e+03	0	9.378838e-04
3.000000e+08	1.746440e+13	0.000000e+00	5.189874e-01	3.630501e+14	6.273822e+14	1.564741e+14	9.495166e+03	7.755726e+03	3.382383e+03	0	9.226877e-04
3.100000e+08	1.665730e+13	0.000000e+00	5.189874e-01	3.472254e+14	6.244833e+14	1.556579e+14	9.442000e+03	7.749048e+03	3.379471e+03	0	9.082493e-04
3.200000e+08	1.591306e+13	0.000000e+00	5.189874e-01	3.326287e+14	6.212279e+14	1.548476e+14	9.391127e+03	7.741522e+03	3.376188e+03	0	8.945160e-04
3.300000e+08	1.522533e+13	0.000000e+00	5.189874e-01	3.191359e+14	6.176624e+14	1.540432e+14	9.342369e+03	7.733247e+03	3.372579e+03	0	8.814394e-04
3.400000e+08	1.458852e+13	0.000000e+00	5.189874e-01	3.066382e+14	6.138280e+14	1.532447e+14	9.295569e+03	7.724309e+03	3.368682e+03	0	8.689751e-04
3.500000e+08	1.399770e+13	0.000000e+00	5.189874e-01	2.950391e+14	6.097620e+14	1.524519e+14	9.250583e+03	7.714787e+03	3.364529e+03	0	8.570822e-04
3.600000e+08	1.344850e+13	0.000000e+00	5.189874e-01	2.842533e+14	6.054976e+14	1.516649e+14	9.207282e+03	7.704751e+03	3.360152e+03	0	8.457230e-04
3.700000e+08	1.293703e+13	0.000000e+00	5.189874e-01	2.742051e+14	6.010643e+14	1.508836e+14	9.165547e+03	7.694264e+03	3.355578e+03	0	8.348626e-04
3.800000e+08	1.245984e+13	0.000000e+00	5.189874e-01	2.648271e+14	5.964887e+14	1.501080e+14	9.125274e+03	7.683381e+03	3.350832e+03	0	8.244690e-04
3.900000e+08	1.201386e+13	0.000000e+00	5.189874e-01	2.560593e+14	5.917946e+14	1.493379e+14	9.086364e+03	7.672153e+03	3.345936e+03	0	8.145125e-04
4.000000e+08	1.159635e+13	0.000000e+00	5.189874e-01	2.478481e+14	5.870029e+14	1.485734e+14	9.048730e+03	7.660626e+03	3.340909e+03	0	8.049655e-04
4.100000e+08	1.120484e+13	0.000000e+00	5.189874e-01	2.401456e+14	5.821326e+14	1.478144e+14	9.012292e+03	7.648840e+03	3.335769e+03	0	7.958027e-04
4.200000e+08	1.083713e+13	0.000000e+00	5.189874e-01	2.329086e+14	5.772005e+14	1.470609e+14	8.976975e+03	7.636832e+03	3.330532e+03	0	7.870005e-04
4.300000e+08	1.049125e+13	0.000000e+00	5.189874e-01	2.260986e+14	5.722213e+14	1.463129e+14	8.942712e+03	7.624634e+03	3.325212e+03	0	7.785371e-04
4.400000e+08	1.016541e+13	0.000000e+00	5.189874e-01	2.196807e+14	5.672087e+14	1.455702e+14	8.909442e+03	7.612276e+03	3.319822e+03	0	7.703922e-04
4.500000e+08	9.858006e+12	0.000000e+00	5.189874e-01	2.136236e+14	5.621743e+14	1.448328e+14	8.877108e+03	7.599785e+03	3.314375e+03	0	7.625469e-04
4.600000e+08	9.567588e+12	0.000000e+00	5.189874e-01	2.078990e+14	5.571284e+14	1.441008e+14	8.845657e+03	7.587184e+03	3.308879e+03	0	7.549839e-04
4.700000e+08	9.292844e+12	0.000000e+00	5.189874e-01	2.024812e+14	5.520804e+14	1.433739e+14	8.815041e+03	7.574495e+03	3.303345e+03	0	7.476869e-04
4.800000e+08	9.032584e+12	0.000000e+00	5.189874e-01	1.973469e+14	5.470385e+14	1.426523e+14	8.785216e+03	7.561737e+03	3.297782e+03	0	7.406407e-04
4.900000e+08	8.785731e+12	0.000000e+00	5.189874e-01	1.924753e+14	5.420100e+14	1.419359e+14	8.756140e+03	7.548928e+03	3.292196e+03	0	7.338312e-04
5.000000e+08	8.551303e+12	0.000000e+00	5.189874e-01	1.878469e+14	5.370012e+14	1.412246e+14	8.727776e+03	7.536084e+03	3.286594e+03	0	7.272454e-04
5.100000e+08	8.328407e+12	0.000000e+00	5.189874e-01	1.834445e+14	5.320178e+14	1.405183e+14	8.700087e+03	7.523219e+03	3.280983e+03	0	7.208710e-04
5.200000e+08	8.116230e+12	0.000000e+00	5.189874e-01	1.792521e+14	5.270644e+14	1.398171e+14	8.673042e+03	7.510345e+03	3.275369e+03	0	7.146965e-04
5.300000e+08	7.914029e+12	0.000000e+00	5.189874e-01	1.752551e+14	5.221458e+14	1.391210e+14	8.646609e+03	7.497474e+03	3.269755e+03	0	7.087114e-04
5.400000e+08	7.721124e+12	0.000000e+00	5.189874e-01	1.714404e+14	5.172653e+14	1.384297e+14	8.620761e+03	7.484615e+03	3.264148e+03	0	7.029057e-04
5.500000e+08	7.536894e+12	0.000000e+00	5.189874e-01	1.677957e+14	5.124262e+14	1.377434e+14	8.595471e+03	7.471779e+03	3.258550e+03	0	6.972700e-04
5.600000e+08	7.360767e+12	0.000000e+00	5.189874e-01	1.643099e+14	5.076314e+14	1.370620e+14	8.570713e+03	7.458974e+03	3.252965e+03	0	6.917958e-04
5.700000e+08	7.192220e+12	0.000000e+00	5.189874e-01	1.609727e+14	5.028833e+14	1.363854e+14	8.546466e+03	7.446206e+03	3.247397e+03	0	6.864747e-04
5.800000e+08	7.030773e+12	0.000000e+00	5.189874e-01	1.577748e+14	4.981837e+14	1.357136e+14	8.522707e+03	7.433483e+03	3.241848e+03	0	6.812993e-04
5.900000e+08	6.875983e+12	0.000000e+00	5.189874e-01	1.547075e+14	4.935345e+14	1.350465e+14	8.499415e+03	7.420811e+03	3.236322e+03	0	6.762623e-04
6.000000e+08	6.727441e+12	0.000000e+00	5.189874e-01	1.517628e+14	4.889370e+14	1.343842e+14	8.476573e+03	7.408194e+03	3.230819e+03	0	6.713570e-04
6.100000e+08	6.584771e+12	0.000000e+00	5.189874e-01	1.489333e+14	4.843925e+14	1.337266e+14	8.454162e+03	7.395638e+03	3.225343e+03	0	6.665772e-04
6.200000e+08	6.447625e+12	0.000000e+00	5.189874e-01	1.462123e+14	4.799016e+14	1.330736e+14	8.432165e+03	7.383146e+03	3.219895e+03	0	6.619169e-04
6.300000e+08	6.315682e+12	0.000000e+00	5.189874e-01	1.435934e+14	4.754655e+14	1.324252e+14	8.410567e+03	7.370722e+03	3.214477e+03	0	6.573706e-04
6.400000e+08	6.188644e+12	0.000000e+00	5.189874e-01	1.410708e+14	4.710843e+14	1.317814e+14	8.389353e+03	7.358370e+03	3.209090e+03	0	6.529332e-04
6.500000e+08	6.066235e+12	0.000000e+00	5.189874e-01	1.386392e+14	4.667587e+14	1.311422e+14	8.368508e+03	7.346092e+03	3.203736e+03	0	6.485995e-04
6.600000e+08	5.948200e+12	0.000000e+00	5.189874e-01	1.362934e+14	4.624887e+14	1.305074e+14	8.348019e+03	7.333892e+03	3.198415e+03	0	6.443652e-04
6.700000e+08	5.834299e+12	0.000000e+00	5.189874e-01	1.340290e+14	4.582745e+14	1.298771e+14	8.327874e+03	7.321770e+03	3.193128e+03	0	6.402257e-04
6.800000e+08	5.724313e+12	0.000000e+00	5.189874e-01	1.318414e+14	4.541161e+14	1.292512e+14	8.308062e+03	7.309729e+03	3.187877e+03	0	6.361771e-04
6.900000e+08	5.618035e+12	0.000000e+00	5.189874e-01	1.297268e+14	4.500134e+14	1.286297e+14	8.288570e+03	7.297770e+03	3.182662e+03	0	6.322154e-04
7.000000e+08	5.515274e+12	0.000000e+00	5.189874e-01	1.276813e+14	4.459661e+14	1.280126e+14	8.269388e+03	7.285895e+03	3.177483e+03	0	6.283369e-04
7.100000e+08	5.415851e+12	0.000000e+00	5.189874e-01	1.257014e+14	4.419740e+14	1.273998e+14	8.250506e+03	7.274106e+03	3.172341e+03	0	6.245384e-04
7.200000e+08	5.319599e+12	0.000000e+00	5.189874e-01	1.237839e+14	4.380367e+14	1.267913e+14	8.231915e+03	7.262402e+03	3.167237e+03	0	6.208164e-04
7.300000e+08	5.226361e+12	0.000000e+00	5.189874e-01	1.219257e+14	4.341538e+14	1.261870e+14	8.213605e+03	7.250784e+03	3.162171e+03	0	6.171679e-04
7.400000e+08	5.135993e+12	0.000000e+00	5.189874e-01	1.201240e+14	4.303248e+14	1.255869e+14	8.195568e+03	7.239254e+03	3.157142e+03	0	6.135901e-04
7.500000e+08	5.048356e+12	0.000000e+00	5.189874e-01	1.183761e+14	4.265494e+14	1.249911e+14	8.177795e+03	7.227812e+03	3.152152e+03	0	6.100801e-04
7.600000e+08	4.963324e+12	0.000000e+00	5.189874e-01	1.166794e+14	4.228268e+14	1.243994e+14	8.160279e+03	7.216458e+03	3.147200e+03	0	6.066354e-04
7.700000e+08	4.880776e+12	0.000000e+00	5.189874e-01	1.150317e+14	4.191565e+14	1.238118e+14	8.143012e+03	7.205192e+03	3.142287e+03	0	6.032535e-04
7.800000e+08	4.800599e+12	0.000000e+00	5.189874e-01	1.134306e+14	4.155379e+14	1.232282e+14	8.125987e+03	7.194014e+03	3.137412e+03	0	5.999320e-04
7.900000e+08	4.722688e+12	0.000000e+00	5.189874e-01	1.118742e+14	4.119704e+14	1.226488e+14	8.109197e+03	7.182924e+03	3.132576e+03	0	5.966688e-04
8.000000e+08	4.646943e+12	0.000000e+00	5.189874e-01	1.103605e+14	4.084532e+14	1.220733e+14	8.092636e+03	7.171922e+03	3.127778e+03	0	5.934616e-04
8.100000e+08	4.573269e+12	0.000000e+00	5.189874e-01	1.088876e+14	4.049858e+14	1.215019e+14	8.076297e+03	7.161008e+03	3.123018e+03	0	5.903086e-04
8.200000e+08	4.501580e+12	0.000000e+00	5.189874e-01	1.074538e+14	4.015675e+14	1.209344e+14	8.060174e+03	7.150182e+03	3.118297e+03	0	5.872079e-04
8.300000e+08	4.431790e+12	0.000000e+00	5.189874e-01	1.060575e+14	3.981973e+14	1.203708e+14	8.044262e+03	7.139443e+03	3.113613e+03	0	5.841575e-04
8.400000e+08	4.363823e+12	0.000000e+00	5.189874e-01	1.046971e+14	3.948749e+14	1.198111e+14	8.028556e+03	7.128791e+03	3.108968e+03	0	5.811558e-04
8.500000e+08	4.297604e+12	0.000000e+00	5.189874e-01	1.033712e+14	3.915995e+14	1.192553e+14	8.013049e+03	7.118225e+03	3.104360e+03	0	5.782012e-04
8.600000e+08	4.233062e+12	0.000000e+00	5.189874e-01	1.020784e+14	3.883701e+14	1.187033e+14	7.997737e+03	7.107744e+03	3.099789e+03	0	5.752921e-04
8.700000e+08	4.170131e+12	0.000000e+00	5.189874e-01	1.008174e+14	3.851863e+14	1.181551e+14	7.982615e+03	7.097349e+03	3.095256e+03	0	5.724270e-04
8.800000e+08	4.108749e+12	0.000000e+00	5.189874e-01	9.958695e+13	3.820473e+14	1.176107e+14	7.967679e+03	7.087039e+03	3.090759e+03	0	5.696045e-04
8.900000e+08	4.048857e+12	0.000000e+00	5.189874e-01	9.838592e+13	3.789522e+14	1.170700e+14	7.952924e+03	7.076813e+03	3.086299e+03	0	5.668233e-04
9.000000e+08	3.990397e+12	0.000000e+00	5.189874e-01	9.721319e+13	3.759005e+14	1.165330e+14	7.938345e+03	7.066670e+03	3.081876e+03	0	5.640820e-04
9.100000e+08	3.933317e+12	0.000000e+00	5.189874e-01	9.606771e+13	3.728914e+14	1.159997e+14	7.923939e+03	7.056610e+03	3.077488e+03	0	5.613795e-04
9.200000e+08	3.877565e+12	0.000000e+00	5.189874e-01	9.494849e+13	3.699242e+14	1.154701e+14	7.909702e+03	7.046631e+03	3.073137e+03	0	5.587145e-04
9.300000e+08	3.823094e+12	0.000000e+00	5.189874e-01	9.385457e+13	3.669982e+14	1.149440e+14	7.895629e+03	7.036734e+03	3.068820e+03	0	5.560859e-04
9.400000e+08	3.769859e+12	0.000000e+00	5.189874e-01	9.278506e+13	3.641128e+14	1.144216e+14	7.881717e+03	7.026918e+03	3.064539e+03	0	5.534927e-04
9.500000e+08	3.717814e+12	0.000000e+00	5.189874e-01	9.173911e+13	3.612672e+14	1.139028e+14	7.867962e+03	7.017181e+03	3.060293e+03	0	5.509338e-04
9.600000e+08	3.666920e+12	0.000000e+00	5.189874e-01	9.071591e+13	3.584607e+14	1.133875e+14	7.854362e+03	7.007523e+03	3.056081e+03	0	5.484083e-04
9.700000e+08	3.617137e+12	0.000000e+00	5.189874e-01	8.971467e+13	3.556927e+14	1.128756e+14	7.840912e+03	6.997944e+03	3.051903e+03	0	5.459152e-04
9.800000e+08	3.568426e+12	0.000000e+00	5.189874e-01	8.873466e+13	3.529625e+14	1.123673e+14	7.827609e+03	6.988441e+03	3.047759e+03	0	5.434536e-04
9.900000e+08	3.520753e+12	0.000000e+00	5.189874e-01	8.777517e+13	3.502695e+14	1.118624e+14	7.814451e+03	6.979016e+03	3.043648e+03	0	5.410226e-04
1.000000e+09	3.474083e+12	0.000000e+00	5.189874e-01	8.683554e+13	3.476129e+14	1.113610e+14	7.801434e+03	6.969666e+03	3.039571e+03	0	5.386214e-04
1.010000e+09	3.428383e+12	0.000000e+00	5.189874e-01	8.591512e+13	3.449923e+14	1.108630e+14	7.788555e+03	6.960391e+03	3.035526e+03	0	5.362492e-04
1.020000e+09	3.383623e+12	0.000000e+00	5.189874e-01	8.501330e+13	3.424069e+14	1.103683e+14	7.775812e+03	6.951190e+03	3.031513e+03	0	5.339053e-04
1.030000e+09	3.339773e+12	0.000000e+00	5.189874e-01	8.412950e+13	3.398561e+14	1.098770e+14	7.763202e+03	6.942062e+03	3.027533e+03	0	5.315888e-04
1.040000e+09	3.296803e+12	0.000000e+00	5.189874e-01	8.326315e+13	3.373393e+14	1.093890e+14	7.750722e+03	6.933007e+03	3.023584e+03	0	5.292992e-04
1.050000e+09	3.254688e+12	0.000000e+00	5.189874e-01	8.241373e+13	3.348560e+14	1.089043e+14	7.738370e+03	6.924024e+03	3.019666e+03	0	5.270356e-04
1.060000e+09	3.213400e+12	0.000000e+00	5.189874e-01	8.158070e+13	3.324056e+14	1.084228e+14	7.726143e+03	6.915112e+03	3.015779e+03	0	5.247976e-04
1.070000e+09	3.172915e+12	0.000000e+00	5.189874e-01	8.076360e+13	3.299873e+14	1.079446e+14	7.714038e+03	6.906270e+03	3.011923e+03	0	5.225843e-04
1.080000e+09	3.133210e+12	0.000000e+00	5.189874e-01	7.996193e+13	3.276008e+14	1.074697e+14	7.702054e+03	6.897497e+03	3.008097e+03	0	5.203953e-04
1.090000e+09	3.094260e+12	0.000000e+00	5.189874e-01	7.917527e+13	3.252454e+14	1.069979e+14	7.690188e+03	6.888793e+03	3.004301e+03	0	5.182299e-04
1.100000e+09	3.056045e+12	0.000000e+00	5.189874e-01	7.840316e+13	3.229206e+14	1.065293e+14	7.678439e+03	6.880156e+03	3.000534e+03	0	5.160876e-04
1.110000e+09	3.018542e+12	0.000000e+00	5.189874e-01	7.764519e+13	3.206258e+14	1.060638e+14	7.666803e+03	6.871586e+03	2.996797e+03	0	5.139679e-04
1.120000e+09	2.981732e+12	0.000000e+00	5.189874e-01	7.690097e+13	3.183607e+14	1.056014e+14	7.655278e+03	6.863083e+03	2.993089e+03	0	5.118701e-04
1.130000e+09	2.945595e+12	0.000000e+00	5.189874e-01	7.617011e+13	3.161245e+14	1.051422e+14	7.643864e+03	6.854645e+03	2.989409e+03	0	5.097938e-04
1.140000e+09	2.910113e+12	0.000000e+00	5.189874e-01	7.545225e+13	3.139169e+14	1.046860e+14	7.632557e+03	6.846271e+03	2.985757e+03	0	5.077386e-04
1.150000e+09	2.875268e+12	0.000000e+00	5.189874e-01	7.474702e+13	3.117372e+14	1.042329e+14	7.621356e+03	6.837961e+03	2.982133e+03	0	5.057039e-04
1.160000e+09	2.841041e+12	0.000000e+00	5.189874e-01	7.405409e+13	3.095851e+14	1.037827e+14	7.610259e+03	6.829715e+03	2.978536e+03	0	5.036893e-04
1.170000e+09	2.807417e+12	0.000000e+00	5.189874e-01	7.337313e+13	3.074600e+14	1.033356e+14	7.599264e+03	6.821530e+03	2.974967e+03	0	5.016944e-04
1.180000e+09	2.774380e+12	0.000000e+00	5.189874e-01	7.270382e+13	3.053614e+14	1.028915e+14	7.588370e+03	6.813408e+03	2.971425e+03	0	4.997186e-04
1.190000e+09	2.741914e+12	0.000000e+00	5.189874e-01	7.204586e+13	3.032891e+14	1.024503e+14	7.577575e+03	6.805346e+03	2.967909e+03	0	4.977617e-04
1.200000e+09	2.710004e+12	0.000000e+00	5.189874e-01	7.139896e+13	3.012424e+14	1.020120e+14	7.566876e+03	6.797344e+03	2.964419e+03	0	4.958232e-04
1.210000e+09	2.678636e+12	0.000000e+00	5.189874e-01	7.076283e+13	2.992208e+14	1.015766e+14	7.556273e+03	6.789402e+03	2.960955e+03	0	4.939028e-04
1.220000e+09	2.647796e+12	0.000000e+00	5.189874e-01	7.013720e+13	2.972242e+14	1.011442e+14	7.545764e+03	6.781518e+03	2.957517e+03	0	4.919999e-04
1.230000e+09	2.617471e+12	0.000000e+00	5.189874e-01	6.952180e+13	2.952519e+14	1.007146e+14	7.535347e+03	6.773693e+03	2.954104e+03	0	4.901144e-04
1.240000e+09	2.587647e+12	0.000000e+00	5.189874e-01	6.891639e+13	2.933035e+14	1.002878e+14	7.525021e+03	6.765924e+03	2.950716e+03	0	4.882459e-04
1.250000e+09	2.558313e+12	0.000000e+00	5.189874e-01	6.832071e+13	2.913787e+14	9.986383e+13	7.514785e+03	6.758213e+03	2.947353e+03	0	4.863939e-04
1.260000e+09	2.529456e+12	0.000000e+00	5.189874e-01	6.773453e+13	2.894771e+14	9.944267e+13	7.504636e+03	6.750557e+03	2.944014e+03	0	4.845582e-04
1.270000e+09	2.501066e+12	0.000000e+00	5.189874e-01	6.715763e+13	2.875981e+14	9.902428e+13	7.494574e+03	6.742957e+03	2.940700e+03	0	4.827385e-04
1.280000e+09	2.473129e+12	0.000000e+00	5.189874e-01	6.658977e+13	2.857416e+14	9.860865e+13	7.484597e+03	6.735411e+03	2.937409e+03	0	4.809344e-04
1.290000e+09	2.445637e+12	0.000000e+00	5.189874e-01	6.603075e+13	2.839071e+14	9.819574e+13	7.474704e+03	6.727919e+03	2.934142e+03	0	4.791456e-04
1.300000e+09	2.418577e+12	0.000000e+00	5.189874e-01	6.548035e+13	2.820941e+14	9.778555e+13	7.464893e+03	6.720480e+03	2.930898e+03	0	4.773719e-04
1.310000e+09	2.391941e+12	0.000000e+00	5.189874e-01	6.493839e+13	2.803025e+14	9.737805e+13	7.455164e+03	6.713095e+03	2.927677e+03	0	4.756130e-04
1.320000e+09	2.365718e+12	0.000000e+00	5.189874e-01	6.440466e+13	2.785318e+14	9.697321e+13	7.445515e+03	6.705761e+03	2.924478e+03	0	4.738685e-04
1.330000e+09	2.339899e+12	0.000000e+00	5.189874e-01	6.387897e+13	2.767817e+14	9.657103e+13	7.435944e+03	6.698479e+03	2.921302e+03	0	4.721383e-04
1.340000e+09	2.314474e+12	0.000000e+00	5.189874e-01	6.336115e+13	2.750517e+14	9.617147e+13	7.426452e+03	6.691247e+03	2.918149e+03	0	4.704221e-04
1.350000e+09	2.289435e+12	0.000000e+00	5.189874e-01	6.285101e+13	2.733417e+14	9.577451e+13	7.417035e+03	6.684066e+03	2.915017e+03	0	4.687195e-04
1.360000e+09	2.264774e+12	0.000000e+00	5.189874e-01	6.234840e+13	2.716512e+14	9.538015e+13	7.407694e+03	6.676935e+03	2.911907e+03	0	4.670304e-04
