#t		Qconv[W]	Ri[Rp]		R*[Rp]		Qc[W]		Qm[W]		Qr[W]		Tcmb[K]		Tl[K]		Tup[K]		RiFlag		Bs[T]
0.000000e+00	1.207456e+13	0.000000e+00	5.126581e-01	2.435410e+14	8.029625e+13	2.186531e+14	8.556623e+03	3.963147e+03	2.429966e+03	0	8.182241e-04
1.000000e+07	1.186313e+13	0.000000e+00	5.126581e-01	2.396757e+14	8.264715e+13	2.174416e+14	8.525246e+03	3.980367e+03	2.440524e+03	0	8.134201e-04
2.000000e+07	1.165625e+13	0.000000e+00	5.126581e-01	2.358930e+14	8.500254e+13	2.162392e+14	8.494363e+03	3.997251e+03	2.450876e+03	0	8.086639e-04
3.000000e+07	1.145378e+13	0.000000e+00	5.126581e-01	2.321903e+14	8.736066e+13	2.150457e+14	8.463965e+03	4.013802e+03	2.461024e+03	0	8.039543e-04
4.000000e+07	1.125561e+13	0.000000e+00	5.126581e-01	2.285657e+14	8.971981e+13	2.138612e+14	8.434041e+03	4.030024e+03	2.470971e+03	0	7.992907e-04
5.000000e+07	1.106162e+13	0.000000e+00	5.126581e-01	2.250171e+14	9.207833e+13	2.126855e+14	8.404582e+03	4.045923e+03	2.480719e+03	0	7.946722e-04
6.000000e+07	1.087171e+13	0.000000e+00	5.126581e-01	2.215424e+14	9.443455e+13	2.115185e+14	8.375577e+03	4.061500e+03	2.490270e+03	0	7.900981e-04
7.000000e+07	1.068576e+13	0.000000e+00	5.126581e-01	2.181397e+14	9.678687e+13	2.103603e+14	8.347017e+03	4.076761e+03	2.499627e+03	0	7.855676e-04
8.000000e+07	1.050367e+13	0.000000e+00	5.126581e-01	2.148072e+14	9.913370e+13	2.092106e+14	8.318894e+03	4.091709e+03	2.508793e+03	0	7.810800e-04
9.000000e+07	1.032535e+13	0.000000e+00	5.126581e-01	2.115431e+14	1.014735e+14	2.080696e+14	8.291197e+03	4.106348e+03	2.517768e+03	0	7.766346e-04
1.000000e+08	1.015070e+13	0.000000e+00	5.126581e-01	2.083456e+14	1.038047e+14	2.069369e+14	8.263919e+03	4.120682e+03	2.526557e+03	0	7.722308e-04
1.100000e+08	9.979628e+12	0.000000e+00	5.126581e-01	2.052132e+14	1.061259e+14	2.058127e+14	8.237051e+03	4.134714e+03	2.535161e+03	0	7.678680e-04
1.200000e+08	9.812045e+12	0.000000e+00	5.126581e-01	2.021441e+14	1.084357e+14	2.046968e+14	8.210585e+03	4.148449e+03	2.543582e+03	0	7.635456e-04
1.300000e+08	9.647865e+12	0.000000e+00	5.126581e-01	1.991369e+14	1.107326e+14	2.035892e+14	8.184512e+03	4.161890e+03	2.551823e+03	0	7.592629e-04
1.400000e+08	9.487006e+12	0.000000e+00	5.126581e-01	1.961901e+14	1.130153e+14	2.024898e+14	8.158825e+03	4.175041e+03	2.559887e+03	0	7.550195e-04
1.500000e+08	9.329387e+12	0.000000e+00	5.126581e-01	1.933021e+14	1.152825e+14	2.013985e+14	8.133516e+03	4.187906e+03	2.567775e+03	0	7.508148e-04
1.600000e+08	9.174932e+12	0.000000e+00	5.126581e-01	1.904716e+14	1.175329e+14	2.003153e+14	8.108578e+03	4.200489e+03	2.575490e+03	0	7.466483e-04
1.700000e+08	9.023564e+12	0.000000e+00	5.126581e-01	1.876973e+14	1.197654e+14	1.992400e+14	8.084003e+03	4.212792e+03	2.583034e+03	0	7.425194e-04
1.800000e+08	8.875212e+12	0.000000e+00	5.126581e-01	1.849777e+14	1.219787e+14	1.981727e+14	8.059784e+03	4.224821e+03	2.590409e+03	0	7.384278e-04
1.900000e+08	8.729805e+12	0.000000e+00	5.126581e-01	1.823118e+14	1.241718e+14	1.971133e+14	8.035914e+03	4.236579e+03	2.597618e+03	0	7.343729e-04
2.000000e+08	8.587275e+12	0.000000e+00	5.126581e-01	1.796981e+14	1.263435e+14	1.960616e+14	8.012386e+03	4.248069e+03	2.604664e+03	0	7.303543e-04
2.100000e+08	8.447555e+12	0.000000e+00	5.126581e-01	1.771355e+14	1.284929e+14	1.950177e+14	7.989194e+03	4.259296e+03	2.611547e+03	0	7.263715e-04
2.200000e+08	8.310582e+12	0.000000e+00	5.126581e-01	1.746229e+14	1.306189e+14	1.939814e+14	7.966331e+03	4.270263e+03	2.618271e+03	0	7.224241e-04
2.300000e+08	8.176292e+12	0.000000e+00	5.126581e-01	1.721591e+14	1.327206e+14	1.929528e+14	7.943791e+03	4.280973e+03	2.624838e+03	0	7.185118e-04
2.400000e+08	8.044624e+12	0.000000e+00	5.126581e-01	1.697429e+14	1.347972e+14	1.919317e+14	7.921567e+03	4.291430e+03	2.631250e+03	0	7.146340e-04
2.500000e+08	7.915521e+12	0.000000e+00	5.126581e-01	1.673735e+14	1.368478e+14	1.909181e+14	7.899654e+03	4.301639e+03	2.637509e+03	0	7.107905e-04
2.600000e+08	7.788925e+12	0.000000e+00	5.126581e-01	1.650496e+14	1.388716e+14	1.899118e+14	7.878045e+03	4.311602e+03	2.643618e+03	0	7.069808e-04
2.700000e+08	7.664780e+12	0.000000e+00	5.126581e-01	1.627703e+14	1.408679e+14	1.889130e+14	7.856734e+03	4.321323e+03	2.649578e+03	0	7.032046e-04
2.800000e+08	7.543031e+12	0.000000e+00	5.126581e-01	1.605346e+14	1.428359e+14	1.879214e+14	7.835717e+03	4.330806e+03	2.655393e+03	0	6.994614e-04
2.900000e+08	7.423626e+12	0.000000e+00	5.126581e-01	1.583416e+14	1.447751e+14	1.869371e+14	7.814987e+03	4.340055e+03	2.661063e+03	0	6.957510e-04
3.000000e+08	7.306514e+12	0.000000e+00	5.126581e-01	1.561902e+14	1.466848e+14	1.859600e+14	7.794538e+03	4.349072e+03	2.666593e+03	0	6.920729e-04
3.100000e+08	7.191644e+12	0.000000e+00	5.126581e-01	1.540797e+14	1.485645e+14	1.849899e+14	7.774366e+03	4.357863e+03	2.671982e+03	0	6.884269e-04
3.200000e+08	7.078967e+12	0.000000e+00	5.126581e-01	1.520091e+14	1.504137e+14	1.840270e+14	7.754466e+03	4.366429e+03	2.677235e+03	0	6.848126e-04
3.300000e+08	6.968436e+12	0.000000e+00	5.126581e-01	1.499775e+14	1.522318e+14	1.830710e+14	7.734832e+03	4.374775e+03	2.682352e+03	0	6.812297e-04
3.400000e+08	6.860005e+12	0.000000e+00	5.126581e-01	1.479842e+14	1.540184e+14	1.821220e+14	7.715459e+03	4.382904e+03	2.687336e+03	0	6.776778e-04
3.500000e+08	6.753628e+12	0.000000e+00	5.126581e-01	1.460282e+14	1.557732e+14	1.811798e+14	7.696342e+03	4.390820e+03	2.692190e+03	0	6.741566e-04
3.600000e+08	6.649261e+12	0.000000e+00	5.126581e-01	1.441088e+14	1.574959e+14	1.802445e+14	7.677477e+03	4.398526e+03	2.696915e+03	0	6.706659e-04
3.700000e+08	6.546861e+12	0.000000e+00	5.126581e-01	1.422253e+14	1.591860e+14	1.793160e+14	7.658859e+03	4.406026e+03	2.701513e+03	0	6.672053e-04
3.800000e+08	6.446385e+12	0.000000e+00	5.126581e-01	1.403768e+14	1.608434e+14	1.783942e+14	7.640483e+03	4.413322e+03	2.705987e+03	0	6.637745e-04
3.900000e+08	6.347794e+12	0.000000e+00	5.126581e-01	1.385626e+14	1.624677e+14	1.774790e+14	7.622345e+03	4.420419e+03	2.710338e+03	0	6.603731e-04
4.000000e+08	6.251047e+12	0.000000e+00	5.126581e-01	1.367819e+14	1.640589e+14	1.765704e+14	7.604440e+03	4.427319e+03	2.714569e+03	0	6.570010e-04
4.100000e+08	6.156104e+12	0.000000e+00	5.126581e-01	1.350341e+14	1.656167e+14	1.756685e+14	7.586765e+03	4.434027e+03	2.718682e+03	0	6.536578e-04
4.200000e+08	6.062928e+12	0.000000e+00	5.126581e-01	1.333185e+14	1.671410e+14	1.747730e+14	7.569314e+03	4.440545e+03	2.722678e+03	0	6.503432e-04
4.300000e+08	5.971481e+12	0.000000e+00	5.126581e-01	1.316344e+14	1.686318e+14	1.738839e+14	7.552084e+03	4.446876e+03	2.726560e+03	0	6.470569e-04
4.400000e+08	5.881727e+12	0.000000e+00	5.126581e-01	1.299811e+14	1.700889e+14	1.730013e+14	7.535071e+03	4.453024e+03	2.730329e+03	0	6.437987e-04
4.500000e+08	5.793630e+12	0.000000e+00	5.126581e-01	1.283580e+14	1.715123e+14	1.721250e+14	7.518271e+03	4.458992e+03	2.733989e+03	0	6.405682e-04
4.600000e+08	5.707154e+12	0.000000e+00	5.126581e-01	1.267644e+14	1.729021e+14	1.712550e+14	7.501679e+03	4.464783e+03	2.737540e+03	0	6.373652e-04
4.700000e+08	5.622267e+12	0.000000e+00	5.126581e-01	1.251998e+14	1.742582e+14	1.703912e+14	7.485293e+03	4.470401e+03	2.740984e+03	0	6.341893e-04
4.800000e+08	5.538935e+12	0.000000e+00	5.126581e-01	1.236635e+14	1.755807e+14	1.695336e+14	7.469108e+03	4.475848e+03	2.744324e+03	0	6.310405e-04
4.900000e+08	5.457125e+12	0.000000e+00	5.126581e-01	1.221549e+14	1.768696e+14	1.686822e+14	7.453122e+03	4.481128e+03	2.747561e+03	0	6.279182e-04
5.000000e+08	5.376805e+12	0.000000e+00	5.126581e-01	1.206735e+14	1.781252e+14	1.678368e+14	7.437329e+03	4.486243e+03	2.750697e+03	0	6.248223e-04
5.100000e+08	5.297945e+12	0.000000e+00	5.126581e-01	1.192187e+14	1.793475e+14	1.669975e+14	7.421727e+03	4.491197e+03	2.753735e+03	0	6.217526e-04
5.200000e+08	5.220513e+12	0.000000e+00	5.126581e-01	1.177899e+14	1.805367e+14	1.661642e+14	7.406312e+03	4.495992e+03	2.756675e+03	0	6.187086e-04
5.300000e+08	5.144481e+12	0.000000e+00	5.126581e-01	1.163866e+14	1.816929e+14	1.653368e+14	7.391082e+03	4.500632e+03	2.759520e+03	0	6.156903e-04
5.400000e+08	5.069819e+12	0.000000e+00	5.126581e-01	1.150083e+14	1.828163e+14	1.645153e+14	7.376032e+03	4.505120e+03	2.762271e+03	0	6.126972e-04
5.500000e+08	4.996498e+12	0.000000e+00	5.126581e-01	1.136544e+14	1.839072e+14	1.636996e+14	7.361160e+03	4.509457e+03	2.764931e+03	0	6.097292e-04
5.600000e+08	4.924490e+12	0.000000e+00	5.126581e-01	1.123245e+14	1.849658e+14	1.628898e+14	7.346462e+03	4.513648e+03	2.767501e+03	0	6.067860e-04
5.700000e+08	4.853770e+12	0.000000e+00	5.126581e-01	1.110180e+14	1.859922e+14	1.620857e+14	7.331936e+03	4.517695e+03	2.769982e+03	0	6.038673e-04
5.800000e+08	4.784308e+12	0.000000e+00	5.126581e-01	1.097345e+14	1.869869e+14	1.612873e+14	7.317578e+03	4.521601e+03	2.772377e+03	0	6.009728e-04
5.900000e+08	4.716081e+12	0.000000e+00	5.126581e-01	1.084735e+14	1.879501e+14	1.604946e+14	7.303385e+03	4.525368e+03	2.774686e+03	0	5.981024e-04
6.000000e+08	4.649062e+12	0.000000e+00	5.126581e-01	1.072345e+14	1.888820e+14	1.597074e+14	7.289355e+03	4.528999e+03	2.776913e+03	0	5.952557e-04
6.100000e+08	4.583226e+12	0.000000e+00	5.126581e-01	1.060171e+14	1.897830e+14	1.589259e+14	7.275484e+03	4.532497e+03	2.779058e+03	0	5.924325e-04
6.200000e+08	4.518548e+12	0.000000e+00	5.126581e-01	1.048209e+14	1.906534e+14	1.581499e+14	7.261771e+03	4.535864e+03	2.781122e+03	0	5.896325e-04
6.300000e+08	4.455006e+12	0.000000e+00	5.126581e-01	1.036453e+14	1.914935e+14	1.573793e+14	7.248211e+03	4.539104e+03	2.783109e+03	0	5.868555e-04
6.400000e+08	4.392575e+12	0.000000e+00	5.126581e-01	1.024900e+14	1.923037e+14	1.566142e+14	7.234803e+03	4.542218e+03	2.785018e+03	0	5.841013e-04
6.500000e+08	4.331233e+12	0.000000e+00	5.126581e-01	1.013546e+14	1.930843e+14	1.558545e+14	7.221544e+03	4.545209e+03	2.786852e+03	0	5.813696e-04
6.600000e+08	4.270957e+12	0.000000e+00	5.126581e-01	1.002386e+14	1.938357e+14	1.551001e+14	7.208432e+03	4.548080e+03	2.788612e+03	0	5.786601e-04
6.700000e+08	4.211726e+12	0.000000e+00	5.126581e-01	9.914167e+13	1.945584e+14	1.543510e+14	7.195463e+03	4.550833e+03	2.790300e+03	0	5.759726e-04
6.800000e+08	4.153518e+12	0.000000e+00	5.126581e-01	9.806342e+13	1.952524e+14	1.536072e+14	7.182636e+03	4.553470e+03	2.791917e+03	0	5.733069e-04
6.900000e+08	4.096311e+12	0.000000e+00	5.126581e-01	9.700345e+13	1.959185e+14	1.528686e+14	7.169948e+03	4.555994e+03	2.793464e+03	0	5.706626e-04
7.000000e+08	4.040087e+12	0.000000e+00	5.126581e-01	9.596139e+13	1.965568e+14	1.521352e+14	7.157396e+03	4.558407e+03	2.794944e+03	0	5.680397e-04
7.100000e+08	3.984823e+12	0.000000e+00	5.126581e-01	9.493689e+13	1.971679e+14	1.514069e+14	7.144979e+03	4.560711e+03	2.796357e+03	0	5.654378e-04
7.200000e+08	3.930502e+12	0.000000e+00	5.126581e-01	9.392957e+13	1.977520e+14	1.506837e+14	7.132694e+03	4.562909e+03	2.797705e+03	0	5.628566e-04
7.300000e+08	3.877103e+12	0.000000e+00	5.126581e-01	9.293911e+13	1.983097e+14	1.499656e+14	7.120538e+03	4.565003e+03	2.798988e+03	0	5.602961e-04
7.400000e+08	3.824608e+12	0.000000e+00	5.126581e-01	9.196514e+13	1.988414e+14	1.492524e+14	7.108511e+03	4.566995e+03	2.800210e+03	0	5.577558e-04
7.500000e+08	3.772999e+12	0.000000e+00	5.126581e-01	9.100734e+13	1.993473e+14	1.485443e+14	7.096609e+03	4.568887e+03	2.801370e+03	0	5.552356e-04
7.600000e+08	3.722257e+12	0.000000e+00	5.126581e-01	9.006539e+13	1.998281e+14	1.478411e+14	7.084831e+03	4.570682e+03	2.802470e+03	0	5.527353e-04
7.700000e+08	3.672365e+12	0.000000e+00	5.126581e-01	8.913896e+13	2.002840e+14	1.471427e+14	7.073174e+03	4.572380e+03	2.803512e+03	0	5.502547e-04
7.800000e+08	3.623306e+12	0.000000e+00	5.126581e-01	8.822773e+13	2.007155e+14	1.464492e+14	7.061637e+03	4.573986e+03	2.804496e+03	0	5.477934e-04
7.900000e+08	3.575063e+12	0.000000e+00	5.126581e-01	8.733141e+13	2.011230e+14	1.457606e+14	7.050217e+03	4.575499e+03	2.805424e+03	0	5.453513e-04
8.000000e+08	3.527619e+12	0.000000e+00	5.126581e-01	8.644970e+13	2.015069e+14	1.450767e+14	7.038913e+03	4.576923e+03	2.806297e+03	0	5.429281e-04
8.100000e+08	3.480958e+12	0.000000e+00	5.126581e-01	8.558229e+13	2.018677e+14	1.443976e+14	7.027723e+03	4.578260e+03	2.807117e+03	0	5.405237e-04
8.200000e+08	3.435065e+12	0.000000e+00	5.126581e-01	8.472892e+13	2.022058e+14	1.437231e+14	7.016644e+03	4.579510e+03	2.807883e+03	0	5.381377e-04
8.300000e+08	3.389924e+12	0.000000e+00	5.126581e-01	8.388928e+13	2.025216e+14	1.430533e+14	7.005676e+03	4.580677e+03	2.808599e+03	0	5.357700e-04
8.400000e+08	3.345520e+12	0.000000e+00	5.126581e-01	8.306311e+13	2.028154e+14	1.423882e+14	6.994816e+03	4.581761e+03	2.809264e+03	0	5.334204e-04
8.500000e+08	3.301838e+12	0.000000e+00	5.126581e-01	8.225015e+13	2.030878e+14	1.417276e+14	6.984063e+03	4.582766e+03	2.809879e+03	0	5.310887e-04
8.600000e+08	3.258864e+12	0.000000e+00	5.126581e-01	8.145012e+13	2.033392e+14	1.410716e+14	6.973415e+03	4.583691e+03	2.810447e+03	0	5.287745e-04
8.700000e+08	3.216583e+12	0.000000e+00	5.126581e-01	8.066278e+13	2.035699e+14	1.404201e+14	6.962869e+03	4.584540e+03	2.810967e+03	0	5.264778e-04
8.800000e+08	3.174983e+12	0.000000e+00	5.126581e-01	7.988787e+13	2.037804e+14	1.397731e+14	6.952426e+03	4.585314e+03	2.811442e+03	0	5.241982e-04
8.900000e+08	3.134048e+12	0.000000e+00	5.126581e-01	7.912514e+13	2.039711e+14	1.391305e+14	6.942082e+03	4.586015e+03	2.811871e+03	0	5.219357e-04
9.000000e+08	3.093767e+12	0.000000e+00	5.126581e-01	7.837435e+13	2.041423e+14	1.384924e+14	6.931837e+03	4.586643e+03	2.812257e+03	0	5.196899e-04
9.100000e+08	3.054126e+12	0.000000e+00	5.126581e-01	7.763527e+13	2.042945e+14	1.378586e+14	6.921689e+03	4.587202e+03	2.812599e+03	0	5.174608e-04
9.200000e+08	3.015112e+12	0.000000e+00	5.126581e-01	7.690768e+13	2.044281e+14	1.372291e+14	6.911637e+03	4.587692e+03	2.812900e+03	0	5.152479e-04
9.300000e+08	2.976713e+12	0.000000e+00	5.126581e-01	7.619133e+13	2.045435e+14	1.366040e+14	6.901678e+03	4.588115e+03	2.813159e+03	0	5.130513e-04
9.400000e+08	2.938917e+12	0.000000e+00	5.126581e-01	7.548602e+13	2.046411e+14	1.359831e+14	6.891811e+03	4.588472e+03	2.813378e+03	0	5.108706e-04
9.500000e+08	2.901713e+12	0.000000e+00	5.126581e-01	7.479152e+13	2.047212e+14	1.353665e+14	6.882036e+03	4.588766e+03	2.813558e+03	0	5.087057e-04
9.600000e+08	2.865087e+12	0.000000e+00	5.126581e-01	7.410763e+13	2.047842e+14	1.347541e+14	6.872351e+03	4.588997e+03	2.813700e+03	0	5.065563e-04
9.700000e+08	2.829030e+12	0.000000e+00	5.126581e-01	7.343414e+13	2.048306e+14	1.341458e+14	6.862753e+03	4.589167e+03	2.813804e+03	0	5.044223e-04
9.800000e+08	2.793530e+12	0.000000e+00	5.126581e-01	7.277085e+13	2.048607e+14	1.335417e+14	6.853243e+03	4.589277e+03	2.813872e+03	0	5.023035e-04
9.900000e+08	2.758576e+12	0.000000e+00	5.126581e-01	7.211756e+13	2.048748e+14	1.329417e+14	6.843818e+03	4.589329e+03	2.813903e+03	0	5.001997e-04
1.000000e+09	2.724158e+12	0.000000e+00	5.126581e-01	7.147407e+13	2.048734e+14	1.323458e+14	6.834478e+03	4.589323e+03	2.813900e+03	0	4.981107e-04
1.010000e+09	2.690265e+12	0.000000e+00	5.126581e-01	7.084020e+13	2.048568e+14	1.317539e+14	6.825221e+03	4.589263e+03	2.813863e+03	0	4.960363e-04
1.020000e+09	2.656886e+12	0.000000e+00	5.126581e-01	7.021577e+13	2.048254e+14	1.311660e+14	6.816046e+03	4.589148e+03	2.813792e+03	0	4.939763e-04
1.030000e+09	2.624013e+12	0.000000e+00	5.126581e-01	6.960058e+13	2.047794e+14	1.305821e+14	6.806951e+03	4.588979e+03	2.813689e+03	0	4.919305e-04
1.040000e+09	2.591635e+12	0.000000e+00	5.126581e-01	6.899448e+13	2.047193e+14	1.300021e+14	6.797936e+03	4.588759e+03	2.813554e+03	0	4.898988e-04
1.050000e+09	2.559743e+12	0.000000e+00	5.126581e-01	6.839727e+13	2.046455e+14	1.294261e+14	6.788999e+03	4.588489e+03	2.813388e+03	0	4.878810e-04
1.060000e+09	2.528327e+12	0.000000e+00	5.126581e-01	6.780879e+13	2.045581e+14	1.288539e+14	6.780139e+03	4.588169e+03	2.813192e+03	0	4.858768e-04
1.070000e+09	2.497378e+12	0.000000e+00	5.126581e-01	6.722888e+13	2.044576e+14	1.282856e+14	6.771355e+03	4.587800e+03	2.812966e+03	0	4.838862e-04
1.080000e+09	2.466888e+12	0.000000e+00	5.126581e-01	6.665738e+13	2.043444e+14	1.277211e+14	6.762646e+03	4.587385e+03	2.812712e+03	0	4.819089e-04
1.090000e+09	2.436848e+12	0.000000e+00	5.126581e-01	6.609412e+13	2.042186e+14	1.271605e+14	6.754011e+03	4.586923e+03	2.812429e+03	0	4.799448e-04
1.100000e+09	2.407249e+12	0.000000e+00	5.126581e-01	6.553895e+13	2.040807e+14	1.266035e+14	6.745449e+03	4.586417e+03	2.812118e+03	0	4.779936e-04
1.110000e+09	2.378083e+12	0.000000e+00	5.126581e-01	6.499171e+13	2.039309e+14	1.260504e+14	6.736958e+03	4.585867e+03	2.811781e+03	0	4.760553e-04
1.120000e+09	2.349341e+12	0.000000e+00	5.126581e-01	6.445227e+13	2.037696e+14	1.255009e+14	6.728538e+03	4.585275e+03	2.811418e+03	0	4.741297e-04
1.130000e+09	2.321016e+12	0.000000e+00	5.126581e-01	6.392047e+13	2.035971e+14	1.249551e+14	6.720188e+03	4.584640e+03	2.811029e+03	0	4.722165e-04
1.140000e+09	2.293099e+12	0.000000e+00	5.126581e-01	6.339617e+13	2.034136e+14	1.244129e+14	6.711907e+03	4.583965e+03	2.810615e+03	0	4.703156e-04
1.150000e+09	2.265584e+12	0.000000e+00	5.126581e-01	6.287923e+13	2.032195e+14	1.238744e+14	6.703693e+03	4.583250e+03	2.810177e+03	0	4.684269e-04
1.160000e+09	2.238463e+12	0.000000e+00	5.126581e-01	6.236951e+13	2.030150e+14	1.233394e+14	6.695546e+03	4.582497e+03	2.809715e+03	0	4.665502e-04
1.170000e+09	2.211728e+12	0.000000e+00	5.126581e-01	6.186689e+13	2.028004e+14	1.228081e+14	6.687465e+03	4.581706e+03	2.809229e+03	0	4.646854e-04
1.180000e+09	2.185372e+12	0.000000e+00	5.126581e-01	6.137122e+13	2.025760e+14	1.222802e+14	6.679449e+03	4.580878e+03	2.808722e+03	0	4.628322e-04
1.190000e+09	2.159388e+12	0.000000e+00	5.126581e-01	6.088239e+13	2.023421e+14	1.217559e+14	6.671497e+03	4.580014e+03	2.808192e+03	0	4.609905e-04
1.200000e+09	2.133769e+12	0.000000e+00	5.126581e-01	6.040027e+13	2.020989e+14	1.212350e+14	6.663608e+03	4.579115e+03	2.807641e+03	0	4.591602e-04
1.210000e+09	2.108509e+12	0.000000e+00	5.126581e-01	5.992474e+13	2.018467e+14	1.207177e+14	6.655781e+03	4.578182e+03	2.807069e+03	0	4.573411e-04
1.220000e+09	2.083601e+12	0.000000e+00	5.126581e-01	5.945566e+13	2.015858e+14	1.202037e+14	6.648016e+03	4.577215e+03	2.806476e+03	0	4.555331e-04
1.230000e+09	2.059038e+12	0.000000e+00	5.126581e-01	5.899294e+13	2.013164e+14	1.196931e+14	6.640311e+03	4.576217e+03	2.805864e+03	0	4.537360e-04
1.240000e+09	2.034815e+12	0.000000e+00	5.126581e-01	5.853645e+13	2.010387e+14	1.191859e+14	6.632667e+03	4.575186e+03	2.805232e+03	0	4.519497e-04
1.250000e+09	2.010924e+12	0.000000e+00	5.126581e-01	5.808608e+13	2.007530e+14	1.186821e+14	6.625081e+03	4.574125e+03	2.804581e+03	0	4.501739e-04
1.260000e+09	1.987361e+12	0.000000e+00	5.126581e-01	5.764172e+13	2.004595e+14	1.181815e+14	6.617554e+03	4.573034e+03	2.803912e+03	0	4.484087e-04
1.270000e+09	1.964119e+12	0.000000e+00	5.126581e-01	5.720327e+13	2.001585e+14	1.176843e+14	6.610083e+03	4.571913e+03	2.803225e+03	0	4.466538e-04
1.280000e+09	1.941192e+12	0.000000e+00	5.126581e-01	5.677061e+13	1.998502e+14	1.171904e+14	6.602670e+03	4.570764e+03	2.802521e+03	0	4.449091e-04
1.290000e+09	1.918574e+12	0.000000e+00	5.126581e-01	5.634364e+13	1.995348e+14	1.166997e+14	6.595313e+03	4.569587e+03	2.801799e+03	0	4.431744e-04
1.300000e+09	1.896261e+12	0.000000e+00	5.126581e-01	5.592227e+13	1.992125e+14	1.162122e+14	6.588010e+03	4.568384e+03	2.801061e+03	0	4.414496e-04
1.310000e+09	1.874246e+12	0.000000e+00	5.126581e-01	5.550640e+13	1.988836e+14	1.157279e+14	6.580762e+03	4.567153e+03	2.800307e+03	0	4.397346e-04
1.320000e+09	1.852525e+12	0.000000e+00	5.126581e-01	5.509592e+13	1.985483e+14	1.152467e+14	6.573568e+03	4.565897e+03	2.799537e+03	0	4.380293e-04
1.330000e+09	1.831092e+12	0.000000e+00	5.126581e-01	5.469074e+13	1.982067e+14	1.147688e+14	6.566427e+03	4.564617e+03	2.798751e+03	0	4.363335e-04
1.340000e+09	1.809942e+12	0.000000e+00	5.126581e-01	5.429077e+13	1.978591e+14	1.142939e+14	6.559339e+03	4.563311e+03	2.797951e+03	0	4.346470e-04
1.350000e+09	1.789070e+12	0.000000e+00	5.126581e-01	5.389593e+13	1.975056e+14	1.138222e+14	6.552302e+03	4.561983e+03	2.797136e+03	0	4.329698e-04
1.360000e+09	1.768471e+12	0.000000e+00	5.126581e-01	5.350611e+13	1.971465e+14	1.133535e+14	6.545316e+03	4.560631e+03	2.796307e+03	0	4.313017e-04
