#t		Qconv[W]	Ri[Rp]		R*[Rp]		Qc[W]		Qm[W]		Qr[W]		Tcmb[K]		Tl[K]		Tup[K]		RiFlag		Bs[T]
0.000000e+00	7.355303e+13	0.000000e+00	5.159236e-01	1.120878e+15	8.017871e+13	3.015534e+14	1.264443e+04	4.896157e+03	2.562358e+03	0	1.461542e-03
1.000000e+07	7.128231e+13	0.000000e+00	5.159236e-01	1.088309e+15	8.561529e+13	2.998826e+14	1.254981e+04	4.943148e+03	2.586951e+03	0	1.446345e-03
2.000000e+07	6.910670e+13	0.000000e+00	5.159236e-01	1.057096e+15	9.115577e+13	2.982243e+14	1.245790e+04	4.988745e+03	2.610813e+03	0	1.431478e-03
3.000000e+07	6.702084e+13	0.000000e+00	5.159236e-01	1.027163e+15	9.679008e+13	2.965783e+14	1.236860e+04	5.032992e+03	2.633970e+03	0	1.416928e-03
4.000000e+07	6.501977e+13	0.000000e+00	5.159236e-01	9.984379e+14	1.025082e+14	2.949447e+14	1.228180e+04	5.075932e+03	2.656442e+03	0	1.402684e-03
5.000000e+07	6.309888e+13	0.000000e+00	5.159236e-01	9.708568e+14	1.083001e+14	2.933232e+14	1.219741e+04	5.117604e+03	2.678250e+03	0	1.388732e-03
6.000000e+07	6.125390e+13	0.000000e+00	5.159236e-01	9.443584e+14	1.141562e+14	2.917138e+14	1.211532e+04	5.158047e+03	2.699416e+03	0	1.375063e-03
7.000000e+07	5.948083e+13	0.000000e+00	5.159236e-01	9.188863e+14	1.200666e+14	2.901164e+14	1.203544e+04	5.197297e+03	2.719957e+03	0	1.361665e-03
8.000000e+07	5.777597e+13	0.000000e+00	5.159236e-01	8.943875e+14	1.260221e+14	2.885309e+14	1.195770e+04	5.235388e+03	2.739892e+03	0	1.348529e-03
9.000000e+07	5.613585e+13	0.000000e+00	5.159236e-01	8.708130e+14	1.320134e+14	2.869572e+14	1.188201e+04	5.272355e+03	2.759238e+03	0	1.335646e-03
1.000000e+08	5.455726e+13	0.000000e+00	5.159236e-01	8.481167e+14	1.380314e+14	2.853952e+14	1.180830e+04	5.308228e+03	2.778012e+03	0	1.323007e-03
1.100000e+08	5.303715e+13	0.000000e+00	5.159236e-01	8.262557e+14	1.440676e+14	2.838447e+14	1.173649e+04	5.343038e+03	2.796229e+03	0	1.310603e-03
1.200000e+08	5.157271e+13	0.000000e+00	5.159236e-01	8.051898e+14	1.501132e+14	2.823058e+14	1.166652e+04	5.376815e+03	2.813906e+03	0	1.298428e-03
1.300000e+08	5.016129e+13	0.000000e+00	5.159236e-01	7.848812e+14	1.561603e+14	2.807782e+14	1.159831e+04	5.409586e+03	2.831057e+03	0	1.286473e-03
1.400000e+08	4.880040e+13	0.000000e+00	5.159236e-01	7.652947e+14	1.622009e+14	2.792619e+14	1.153180e+04	5.441379e+03	2.847695e+03	0	1.274732e-03
1.500000e+08	4.748770e+13	0.000000e+00	5.159236e-01	7.463968e+14	1.682273e+14	2.777569e+14	1.146695e+04	5.472219e+03	2.863835e+03	0	1.263198e-03
1.600000e+08	4.622100e+13	0.000000e+00	5.159236e-01	7.281565e+14	1.742324e+14	2.762630e+14	1.140368e+04	5.502132e+03	2.879490e+03	0	1.251865e-03
1.700000e+08	4.499823e+13	0.000000e+00	5.159236e-01	7.105443e+14	1.802090e+14	2.747801e+14	1.134194e+04	5.531143e+03	2.894672e+03	0	1.240727e-03
1.800000e+08	4.381745e+13	0.000000e+00	5.159236e-01	6.935324e+14	1.861507e+14	2.733081e+14	1.128168e+04	5.559274e+03	2.909394e+03	0	1.229779e-03
1.900000e+08	4.267683e+13	0.000000e+00	5.159236e-01	6.770948e+14	1.920509e+14	2.718470e+14	1.122286e+04	5.586548e+03	2.923668e+03	0	1.219014e-03
2.000000e+08	4.157463e+13	0.000000e+00	5.159236e-01	6.612068e+14	1.979038e+14	2.703966e+14	1.116541e+04	5.612988e+03	2.937505e+03	0	1.208428e-03
2.100000e+08	4.050921e+13	0.000000e+00	5.159236e-01	6.458451e+14	2.037037e+14	2.689569e+14	1.110931e+04	5.638615e+03	2.950917e+03	0	1.198016e-03
2.200000e+08	3.947903e+13	0.000000e+00	5.159236e-01	6.309876e+14	2.094450e+14	2.675277e+14	1.105450e+04	5.663450e+03	2.963914e+03	0	1.187773e-03
2.300000e+08	3.848264e+13	0.000000e+00	5.159236e-01	6.166135e+14	2.151229e+14	2.661091e+14	1.100094e+04	5.687514e+03	2.976507e+03	0	1.177695e-03
2.400000e+08	3.751863e+13	0.000000e+00	5.159236e-01	6.027030e+14	2.207326e+14	2.647008e+14	1.094859e+04	5.710824e+03	2.988707e+03	0	1.167778e-03
2.500000e+08	3.658569e+13	0.000000e+00	5.159236e-01	5.892373e+14	2.262697e+14	2.633029e+14	1.089741e+04	5.733402e+03	3.000523e+03	0	1.158017e-03
2.600000e+08	3.568258e+13	0.000000e+00	5.159236e-01	5.761987e+14	2.317300e+14	2.619152e+14	1.084737e+04	5.755265e+03	3.011964e+03	0	1.148409e-03
2.700000e+08	3.480812e+13	0.000000e+00	5.159236e-01	5.635703e+14	2.371097e+14	2.605376e+14	1.079843e+04	5.776432e+03	3.023042e+03	0	1.138950e-03
2.800000e+08	3.396117e+13	0.000000e+00	5.159236e-01	5.513361e+14	2.424054e+14	2.591701e+14	1.075055e+04	5.796919e+03	3.033764e+03	0	1.129637e-03
2.900000e+08	3.314068e+13	0.000000e+00	5.159236e-01	5.394807e+14	2.476138e+14	2.578126e+14	1.070370e+04	5.816745e+03	3.044140e+03	0	1.120465e-03
3.000000e+08	3.234561e+13	0.000000e+00	5.159236e-01	5.279897e+14	2.527320e+14	2.564650e+14	1.065786e+04	5.835927e+03	3.054178e+03	0	1.111432e-03
3.100000e+08	3.157501e+13	0.000000e+00	5.159236e-01	5.168491e+14	2.577572e+14	2.551272e+14	1.061298e+04	5.854479e+03	3.063887e+03	0	1.102535e-03
3.200000e+08	3.082794e+13	0.000000e+00	5.159236e-01	5.060459e+14	2.626871e+14	2.537991e+14	1.056905e+04	5.872419e+03	3.073276e+03	0	1.093770e-03
3.300000e+08	3.010353e+13	0.000000e+00	5.159236e-01	4.955674e+14	2.675195e+14	2.524807e+14	1.052603e+04	5.889763e+03	3.082352e+03	0	1.085135e-03
3.400000e+08	2.940093e+13	0.000000e+00	5.159236e-01	4.854016e+14	2.722525e+14	2.511718e+14	1.048389e+04	5.906524e+03	3.091124e+03	0	1.076626e-03
3.500000e+08	2.871934e+13	0.000000e+00	5.159236e-01	4.755371e+14	2.768845e+14	2.498725e+14	1.044261e+04	5.922718e+03	3.099599e+03	0	1.068241e-03
3.600000e+08	2.805800e+13	0.000000e+00	5.159236e-01	4.659629e+14	2.814140e+14	2.485826e+14	1.040217e+04	5.938360e+03	3.107785e+03	0	1.059978e-03
3.700000e+08	2.741617e+13	0.000000e+00	5.159236e-01	4.566685e+14	2.858397e+14	2.473020e+14	1.036253e+04	5.953463e+03	3.115690e+03	0	1.051833e-03
3.800000e+08	2.679316e+13	0.000000e+00	5.159236e-01	4.476439e+14	2.901607e+14	2.460307e+14	1.032368e+04	5.968042e+03	3.123319e+03	0	1.043805e-03
3.900000e+08	2.618828e+13	0.000000e+00	5.159236e-01	4.388796e+14	2.943762e+14	2.447685e+14	1.028559e+04	5.982110e+03	3.130682e+03	0	1.035890e-03
4.000000e+08	2.560091e+13	0.000000e+00	5.159236e-01	4.303664e+14	2.984855e+14	2.435155e+14	1.024825e+04	5.995680e+03	3.137783e+03	0	1.028087e-03
4.100000e+08	2.503042e+13	0.000000e+00	5.159236e-01	4.220955e+14	3.024882e+14	2.422715e+14	1.021162e+04	6.008765e+03	3.144631e+03	0	1.020393e-03
4.200000e+08	2.447622e+13	0.000000e+00	5.159236e-01	4.140584e+14	3.063841e+14	2.410365e+14	1.017570e+04	6.021377e+03	3.151232e+03	0	1.012805e-03
4.300000e+08	2.393776e+13	0.000000e+00	5.159236e-01	4.062471e+14	3.101730e+14	2.398104e+14	1.014045e+04	6.033530e+03	3.157592e+03	0	1.005323e-03
4.400000e+08	2.341448e+13	0.000000e+00	5.159236e-01	3.986539e+14	3.138550e+14	2.385931e+14	1.010587e+04	6.045234e+03	3.163717e+03	0	9.979438e-04
4.500000e+08	2.290588e+13	0.000000e+00	5.159236e-01	3.912713e+14	3.174303e+14	2.373846e+14	1.007193e+04	6.056501e+03	3.169614e+03	0	9.906651e-04
4.600000e+08	2.241144e+13	0.000000e+00	5.159236e-01	3.840922e+14	3.208992e+14	2.361847e+14	1.003861e+04	6.067344e+03	3.175288e+03	0	9.834852e-04
4.700000e+08	2.193070e+13	0.000000e+00	5.159236e-01	3.771097e+14	3.242622e+14	2.349934e+14	1.000591e+04	6.077772e+03	3.180746e+03	0	9.764021e-04
4.800000e+08	2.146319e+13	0.000000e+00	5.159236e-01	3.703173e+14	3.275198e+14	2.338107e+14	9.973789e+03	6.087798e+03	3.185992e+03	0	9.694141e-04
4.900000e+08	2.100847e+13	0.000000e+00	5.159236e-01	3.637087e+14	3.306728e+14	2.326364e+14	9.942248e+03	6.097431e+03	3.191034e+03	0	9.625191e-04
5.000000e+08	2.056612e+13	0.000000e+00	5.159236e-01	3.572777e+14	3.337220e+14	2.314706e+14	9.911267e+03	6.106683e+03	3.195876e+03	0	9.557156e-04
5.100000e+08	2.013572e+13	0.000000e+00	5.159236e-01	3.510186e+14	3.366683e+14	2.303130e+14	9.880830e+03	6.115562e+03	3.200523e+03	0	9.490016e-04
5.200000e+08	1.971689e+13	0.000000e+00	5.159236e-01	3.449257e+14	3.395126e+14	2.291638e+14	9.850925e+03	6.124080e+03	3.204980e+03	0	9.423756e-04
5.300000e+08	1.930925e+13	0.000000e+00	5.159236e-01	3.389935e+14	3.422559e+14	2.280227e+14	9.821535e+03	6.132246e+03	3.209254e+03	0	9.358359e-04
5.400000e+08	1.891243e+13	0.000000e+00	5.159236e-01	3.332170e+14	3.448997e+14	2.268897e+14	9.792649e+03	6.140069e+03	3.213348e+03	0	9.293808e-04
5.500000e+08	1.852609e+13	0.000000e+00	5.159236e-01	3.275911e+14	3.474448e+14	2.257648e+14	9.764252e+03	6.147559e+03	3.217268e+03	0	9.230087e-04
5.600000e+08	1.814988e+13	0.000000e+00	5.159236e-01	3.221110e+14	3.498927e+14	2.246479e+14	9.736332e+03	6.154724e+03	3.221018e+03	0	9.167182e-04
5.700000e+08	1.778349e+13	0.000000e+00	5.159236e-01	3.167720e+14	3.522447e+14	2.235390e+14	9.708877e+03	6.161573e+03	3.224602e+03	0	9.105076e-04
5.800000e+08	1.742660e+13	0.000000e+00	5.159236e-01	3.115697e+14	3.545021e+14	2.224379e+14	9.681875e+03	6.168116e+03	3.228026e+03	0	9.043755e-04
5.900000e+08	1.707891e+13	0.000000e+00	5.159236e-01	3.064997e+14	3.566665e+14	2.213446e+14	9.655315e+03	6.174359e+03	3.231294e+03	0	8.983204e-04
6.000000e+08	1.674013e+13	0.000000e+00	5.159236e-01	3.015580e+14	3.587393e+14	2.202591e+14	9.629184e+03	6.180313e+03	3.234409e+03	0	8.923410e-04
6.100000e+08	1.640998e+13	0.000000e+00	5.159236e-01	2.967404e+14	3.607219e+14	2.191812e+14	9.603473e+03	6.185983e+03	3.237377e+03	0	8.864357e-04
6.200000e+08	1.608819e+13	0.000000e+00	5.159236e-01	2.920432e+14	3.626160e+14	2.181109e+14	9.578171e+03	6.191379e+03	3.240200e+03	0	8.806033e-04
6.300000e+08	1.577450e+13	0.000000e+00	5.159236e-01	2.874626e+14	3.644230e+14	2.170482e+14	9.553267e+03	6.196507e+03	3.242884e+03	0	8.748424e-04
6.400000e+08	1.546867e+13	0.000000e+00	5.159236e-01	2.829950e+14	3.661447e+14	2.159930e+14	9.528752e+03	6.201376e+03	3.245432e+03	0	8.691516e-04
6.500000e+08	1.517044e+13	0.000000e+00	5.159236e-01	2.786370e+14	3.677825e+14	2.149453e+14	9.504616e+03	6.205991e+03	3.247848e+03	0	8.635298e-04
6.600000e+08	1.487959e+13	0.000000e+00	5.159236e-01	2.743853e+14	3.693382e+14	2.139049e+14	9.480851e+03	6.210361e+03	3.250135e+03	0	8.579755e-04
6.700000e+08	1.459589e+13	0.000000e+00	5.159236e-01	2.702365e+14	3.708134e+14	2.128718e+14	9.457446e+03	6.214493e+03	3.252297e+03	0	8.524877e-04
6.800000e+08	1.431913e+13	0.000000e+00	5.159236e-01	2.661876e+14	3.722096e+14	2.118459e+14	9.434394e+03	6.218392e+03	3.254338e+03	0	8.470650e-04
6.900000e+08	1.404909e+13	0.000000e+00	5.159236e-01	2.622356e+14	3.735286e+14	2.108273e+14	9.411686e+03	6.222065e+03	3.256260e+03	0	8.417063e-04
7.000000e+08	1.378557e+13	0.000000e+00	5.159236e-01	2.583776e+14	3.747720e+14	2.098158e+14	9.389313e+03	6.225519e+03	3.258068e+03	0	8.364104e-04
7.100000e+08	1.352838e+13	0.000000e+00	5.159236e-01	2.546108e+14	3.759414e+14	2.088114e+14	9.367268e+03	6.228760e+03	3.259764e+03	0	8.311762e-04
7.200000e+08	1.327732e+13	0.000000e+00	5.159236e-01	2.509324e+14	3.770386e+14	2.078140e+14	9.345543e+03	6.231794e+03	3.261352e+03	0	8.260025e-04
7.300000e+08	1.303222e+13	0.000000e+00	5.159236e-01	2.473399e+14	3.780651e+14	2.068236e+14	9.324131e+03	6.234627e+03	3.262834e+03	0	8.208883e-04
7.400000e+08	1.279290e+13	0.000000e+00	5.159236e-01	2.438308e+14	3.790225e+14	2.058401e+14	9.303023e+03	6.237264e+03	3.264214e+03	0	8.158324e-04
7.500000e+08	1.255919e+13	0.000000e+00	5.159236e-01	2.404025e+14	3.799127e+14	2.048635e+14	9.282214e+03	6.239711e+03	3.265495e+03	0	8.108337e-04
7.600000e+08	1.233093e+13	0.000000e+00	5.159236e-01	2.370528e+14	3.807370e+14	2.038936e+14	9.261697e+03	6.241973e+03	3.266679e+03	0	8.058913e-04
7.700000e+08	1.210795e+13	0.000000e+00	5.159236e-01	2.337794e+14	3.814972e+14	2.029305e+14	9.241464e+03	6.244057e+03	3.267769e+03	0	8.010041e-04
7.800000e+08	1.189010e+13	0.000000e+00	5.159236e-01	2.305800e+14	3.821948e+14	2.019741e+14	9.221509e+03	6.245966e+03	3.268768e+03	0	7.961712e-04
7.900000e+08	1.167724e+13	0.000000e+00	5.159236e-01	2.274525e+14	3.828314e+14	2.010244e+14	9.201827e+03	6.247705e+03	3.269678e+03	0	7.913914e-04
8.000000e+08	1.146922e+13	0.000000e+00	5.159236e-01	2.243950e+14	3.834086e+14	2.000812e+14	9.182410e+03	6.249281e+03	3.270503e+03	0	7.866639e-04
8.100000e+08	1.126590e+13	0.000000e+00	5.159236e-01	2.214053e+14	3.839278e+14	1.991446e+14	9.163253e+03	6.250697e+03	3.271244e+03	0	7.819877e-04
8.200000e+08	1.106715e+13	0.000000e+00	5.159236e-01	2.184815e+14	3.843906e+14	1.982144e+14	9.144351e+03	6.251958e+03	3.271904e+03	0	7.773618e-04
8.300000e+08	1.087284e+13	0.000000e+00	5.159236e-01	2.156219e+14	3.847986e+14	1.972907e+14	9.125697e+03	6.253068e+03	3.272485e+03	0	7.727854e-04
8.400000e+08	1.068284e+13	0.000000e+00	5.159236e-01	2.128246e+14	3.851532e+14	1.963733e+14	9.107286e+03	6.254033e+03	3.272990e+03	0	7.682576e-04
8.500000e+08	1.049704e+13	0.000000e+00	5.159236e-01	2.100878e+14	3.854559e+14	1.954623e+14	9.089113e+03	6.254855e+03	3.273420e+03	0	7.637774e-04
8.600000e+08	1.031530e+13	0.000000e+00	5.159236e-01	2.074099e+14	3.857080e+14	1.945576e+14	9.071173e+03	6.255540e+03	3.273779e+03	0	7.593440e-04
8.700000e+08	1.013753e+13	0.000000e+00	5.159236e-01	2.047892e+14	3.859110e+14	1.936591e+14	9.053461e+03	6.256092e+03	3.274067e+03	0	7.549565e-04
8.800000e+08	9.963606e+12	0.000000e+00	5.159236e-01	2.022241e+14	3.860664e+14	1.927668e+14	9.035972e+03	6.256513e+03	3.274288e+03	0	7.506142e-04
8.900000e+08	9.793427e+12	0.000000e+00	5.159236e-01	1.997132e+14	3.861753e+14	1.918806e+14	9.018701e+03	6.256809e+03	3.274443e+03	0	7.463161e-04
9.000000e+08	9.626888e+12	0.000000e+00	5.159236e-01	1.972550e+14	3.862393e+14	1.910005e+14	9.001643e+03	6.256983e+03	3.274534e+03	0	7.420615e-04
9.100000e+08	9.463891e+12	0.000000e+00	5.159236e-01	1.948479e+14	3.862595e+14	1.901264e+14	8.984795e+03	6.257038e+03	3.274562e+03	0	7.378495e-04
9.200000e+08	9.304338e+12	0.000000e+00	5.159236e-01	1.924907e+14	3.862374e+14	1.892583e+14	8.968152e+03	6.256978e+03	3.274531e+03	0	7.336795e-04
9.300000e+08	9.148136e+12	0.000000e+00	5.159236e-01	1.901820e+14	3.861742e+14	1.883961e+14	8.951709e+03	6.256806e+03	3.274441e+03	0	7.295506e-04
9.400000e+08	8.995195e+12	0.000000e+00	5.159236e-01	1.879204e+14	3.860710e+14	1.875399e+14	8.935463e+03	6.256526e+03	3.274295e+03	0	7.254621e-04
9.500000e+08	8.845426e+12	0.000000e+00	5.159236e-01	1.857047e+14	3.859292e+14	1.866895e+14	8.919409e+03	6.256141e+03	3.274093e+03	0	7.214133e-04
9.600000e+08	8.698744e+12	0.000000e+00	5.159236e-01	1.835338e+14	3.857500e+14	1.858448e+14	8.903544e+03	6.255654e+03	3.273838e+03	0	7.174034e-04
9.700000e+08	8.555068e+12	0.000000e+00	5.159236e-01	1.814064e+14	3.855344e+14	1.850060e+14	8.887863e+03	6.255069e+03	3.273532e+03	0	7.134317e-04
9.800000e+08	8.414318e+12	0.000000e+00	5.159236e-01	1.793213e+14	3.852837e+14	1.841728e+14	8.872364e+03	6.254387e+03	3.273175e+03	0	7.094975e-04
9.900000e+08	8.276416e+12	0.000000e+00	5.159236e-01	1.772775e+14	3.849989e+14	1.833453e+14	8.857042e+03	6.253613e+03	3.272770e+03	0	7.056002e-04
1.000000e+09	8.141287e+12	0.000000e+00	5.159236e-01	1.752739e+14	3.846811e+14	1.825234e+14	8.841895e+03	6.252748e+03	3.272318e+03	0	7.017390e-04
1.010000e+09	8.008860e+12	0.000000e+00	5.159236e-01	1.733094e+14	3.843314e+14	1.817071e+14	8.826917e+03	6.251796e+03	3.271819e+03	0	6.979133e-04
1.020000e+09	7.879062e+12	0.000000e+00	5.159236e-01	1.713830e+14	3.839509e+14	1.808964e+14	8.812108e+03	6.250760e+03	3.271277e+03	0	6.941224e-04
1.030000e+09	7.751828e+12	0.000000e+00	5.159236e-01	1.694938e+14	3.835406e+14	1.800911e+14	8.797462e+03	6.249641e+03	3.270692e+03	0	6.903658e-04
1.040000e+09	7.627089e+12	0.000000e+00	5.159236e-01	1.676408e+14	3.831015e+14	1.792912e+14	8.782977e+03	6.248443e+03	3.270064e+03	0	6.866427e-04
1.050000e+09	7.504782e+12	0.000000e+00	5.159236e-01	1.658231e+14	3.826345e+14	1.784968e+14	8.768650e+03	6.247167e+03	3.269397e+03	0	6.829527e-04
1.060000e+09	7.384846e+12	0.000000e+00	5.159236e-01	1.640397e+14	3.821406e+14	1.777077e+14	8.754477e+03	6.245817e+03	3.268690e+03	0	6.792949e-04
1.070000e+09	7.267219e+12	0.000000e+00	5.159236e-01	1.622898e+14	3.816207e+14	1.769239e+14	8.740457e+03	6.244395e+03	3.267946e+03	0	6.756690e-04
1.080000e+09	7.151843e+12	0.000000e+00	5.159236e-01	1.605727e+14	3.810758e+14	1.761454e+14	8.726585e+03	6.242902e+03	3.267165e+03	0	6.720742e-04
1.090000e+09	7.038661e+12	0.000000e+00	5.159236e-01	1.588873e+14	3.805066e+14	1.753722e+14	8.712860e+03	6.241342e+03	3.266348e+03	0	6.685100e-04
1.100000e+09	6.927619e+12	0.000000e+00	5.159236e-01	1.572330e+14	3.799141e+14	1.746041e+14	8.699279e+03	6.239715e+03	3.265497e+03	0	6.649759e-04
1.110000e+09	6.818663e+12	0.000000e+00	5.159236e-01	1.556090e+14	3.792992e+14	1.738412e+14	8.685838e+03	6.238025e+03	3.264612e+03	0	6.614712e-04
1.120000e+09	6.711741e+12	0.000000e+00	5.159236e-01	1.540146e+14	3.786625e+14	1.730834e+14	8.672536e+03	6.236273e+03	3.263695e+03	0	6.579955e-04
1.130000e+09	6.606802e+12	0.000000e+00	5.159236e-01	1.524490e+14	3.780050e+14	1.723306e+14	8.659370e+03	6.234461e+03	3.262747e+03	0	6.545483e-04
1.140000e+09	6.503799e+12	0.000000e+00	5.159236e-01	1.509115e+14	3.773273e+14	1.715829e+14	8.646337e+03	6.232592e+03	3.261769e+03	0	6.511288e-04
1.150000e+09	6.402683e+12	0.000000e+00	5.159236e-01	1.494014e+14	3.766303e+14	1.708402e+14	8.633435e+03	6.230666e+03	3.260761e+03	0	6.477368e-04
1.160000e+09	6.303410e+12	0.000000e+00	5.159236e-01	1.479181e+14	3.759147e+14	1.701025e+14	8.620662e+03	6.228686e+03	3.259725e+03	0	6.443716e-04
1.170000e+09	6.205933e+12	0.000000e+00	5.159236e-01	1.464609e+14	3.751811e+14	1.693696e+14	8.608015e+03	6.226654e+03	3.258662e+03	0	6.410328e-04
1.180000e+09	6.110209e+12	0.000000e+00	5.159236e-01	1.450292e+14	3.744304e+14	1.686417e+14	8.595492e+03	6.224571e+03	3.257571e+03	0	6.377198e-04
1.190000e+09	6.016197e+12	0.000000e+00	5.159236e-01	1.436225e+14	3.736631e+14	1.679185e+14	8.583091e+03	6.222439e+03	3.256456e+03	0	6.344323e-04
1.200000e+09	5.923856e+12	0.000000e+00	5.159236e-01	1.422400e+14	3.728799e+14	1.672002e+14	8.570811e+03	6.220260e+03	3.255315e+03	0	6.311696e-04
1.210000e+09	5.833145e+12	0.000000e+00	5.159236e-01	1.408813e+14	3.720815e+14	1.664866e+14	8.558648e+03	6.218035e+03	3.254151e+03	0	6.279314e-04
1.220000e+09	5.744027e+12	0.000000e+00	5.159236e-01	1.395457e+14	3.712684e+14	1.657778e+14	8.546601e+03	6.215765e+03	3.252963e+03	0	6.247171e-04
1.230000e+09	5.656464e+12	0.000000e+00	5.159236e-01	1.382328e+14	3.704413e+14	1.650737e+14	8.534667e+03	6.213452e+03	3.251752e+03	0	6.215264e-04
1.240000e+09	5.570419e+12	0.000000e+00	5.159236e-01	1.369420e+14	3.696009e+14	1.643742e+14	8.522846e+03	6.211098e+03	3.250520e+03	0	6.183587e-04
1.250000e+09	5.485856e+12	0.000000e+00	5.159236e-01	1.356728e+14	3.687476e+14	1.636793e+14	8.511135e+03	6.208704e+03	3.249267e+03	0	6.152138e-04
1.260000e+09	5.402742e+12	0.000000e+00	5.159236e-01	1.344247e+14	3.678820e+14	1.629890e+14	8.499532e+03	6.206271e+03	3.247994e+03	0	6.120910e-04
1.270000e+09	5.321043e+12	0.000000e+00	5.159236e-01	1.331972e+14	3.670046e+14	1.623032e+14	8.488035e+03	6.203801e+03	3.246701e+03	0	6.089900e-04
1.280000e+09	5.240727e+12	0.000000e+00	5.159236e-01	1.319899e+14	3.661160e+14	1.616220e+14	8.476643e+03	6.201295e+03	3.245390e+03	0	6.059104e-04
1.290000e+09	5.161761e+12	0.000000e+00	5.159236e-01	1.308022e+14	3.652167e+14	1.609453e+14	8.465354e+03	6.198754e+03	3.244060e+03	0	6.028518e-04
1.300000e+09	5.084116e+12	0.000000e+00	5.159236e-01	1.296339e+14	3.643071e+14	1.602729e+14	8.454166e+03	6.196179e+03	3.242713e+03	0	5.998137e-04
1.310000e+09	5.007761e+12	0.000000e+00	5.159236e-01	1.284843e+14	3.633879e+14	1.596050e+14	8.443078e+03	6.193572e+03	3.241348e+03	0	5.967958e-04
1.320000e+09	4.932667e+12	0.000000e+00	5.159236e-01	1.273531e+14	3.624593e+14	1.589415e+14	8.432088e+03	6.190933e+03	3.239967e+03	0	5.937977e-04
1.330000e+09	4.858805e+12	0.000000e+00	5.159236e-01	1.262400e+14	3.615219e+14	1.582823e+14	8.421194e+03	6.188265e+03	3.238571e+03	0	5.908189e-04
1.340000e+09	4.786149e+12	0.000000e+00	5.159236e-01	1.251444e+14	3.605761e+14	1.576274e+14	8.410396e+03	6.185567e+03	3.237159e+03	0	5.878592e-04
1.350000e+09	4.714672e+12	0.000000e+00	5.159236e-01	1.240660e+14	3.596223e+14	1.569768e+14	8.399690e+03	6.182841e+03	3.235732e+03	0	5.849181e-04
1.360000e+09	4.644347e+12	0.000000e+00	5.159236e-01	1.230045e+14	3.586610e+14	1.563304e+14	8.389077e+03	6.180088e+03	3.234292e+03	0	5.819953e-04
