#t		Qconv[W]	Ri[Rp]		R*[Rp]		Qc[W]		Qm[W]		Qr[W]		Tcmb[K]		Tl[K]		Tup[K]		RiFlag		Bs[T]
0.000000e+00	1.031479e+14	0.000000e+00	5.159237e-01	1.439474e+15	7.776827e+13	3.552708e+14	1.411034e+04	5.250556e+03	2.636922e+03	0	1.624819e-03
1.000000e+07	1.001979e+14	0.000000e+00	5.159237e-01	1.401305e+15	8.332711e+13	3.533023e+14	1.401114e+04	5.302513e+03	2.663016e+03	0	1.609179e-03
2.000000e+07	9.735946e+13	0.000000e+00	5.159237e-01	1.364568e+15	8.902585e+13	3.513486e+14	1.391455e+04	5.353083e+03	2.688413e+03	0	1.593838e-03
3.000000e+07	9.462694e+13	0.000000e+00	5.159237e-01	1.329192e+15	9.485537e+13	3.494094e+14	1.382046e+04	5.402305e+03	2.713133e+03	0	1.578786e-03
4.000000e+07	9.199504e+13	0.000000e+00	5.159237e-01	1.295108e+15	1.008064e+14	3.474848e+14	1.372879e+04	5.450216e+03	2.737195e+03	0	1.564011e-03
5.000000e+07	8.945880e+13	0.000000e+00	5.159237e-01	1.262253e+15	1.068697e+14	3.455745e+14	1.363944e+04	5.496854e+03	2.760618e+03	0	1.549504e-03
6.000000e+07	8.701359e+13	0.000000e+00	5.159237e-01	1.230568e+15	1.130358e+14	3.436784e+14	1.355233e+04	5.542252e+03	2.783417e+03	0	1.535255e-03
7.000000e+07	8.465506e+13	0.000000e+00	5.159237e-01	1.199997e+15	1.192955e+14	3.417965e+14	1.346740e+04	5.586443e+03	2.805611e+03	0	1.521257e-03
8.000000e+07	8.237915e+13	0.000000e+00	5.159237e-01	1.170487e+15	1.256393e+14	3.399285e+14	1.338455e+04	5.629460e+03	2.827214e+03	0	1.507500e-03
9.000000e+07	8.018203e+13	0.000000e+00	5.159237e-01	1.141992e+15	1.320580e+14	3.380744e+14	1.330372e+04	5.671331e+03	2.848243e+03	0	1.493977e-03
1.000000e+08	7.806012e+13	0.000000e+00	5.159237e-01	1.114463e+15	1.385424e+14	3.362341e+14	1.322483e+04	5.712086e+03	2.868711e+03	0	1.480680e-03
1.100000e+08	7.601004e+13	0.000000e+00	5.159237e-01	1.087859e+15	1.450834e+14	3.344075e+14	1.314784e+04	5.751754e+03	2.888633e+03	0	1.467603e-03
1.200000e+08	7.402864e+13	0.000000e+00	5.159237e-01	1.062138e+15	1.516722e+14	3.325944e+14	1.307266e+04	5.790360e+03	2.908021e+03	0	1.454738e-03
1.300000e+08	7.211291e+13	0.000000e+00	5.159237e-01	1.037263e+15	1.582999e+14	3.307947e+14	1.299925e+04	5.827931e+03	2.926890e+03	0	1.442080e-03
1.400000e+08	7.026004e+13	0.000000e+00	5.159237e-01	1.013197e+15	1.649580e+14	3.290084e+14	1.292754e+04	5.864492e+03	2.945252e+03	0	1.429621e-03
1.500000e+08	6.846736e+13	0.000000e+00	5.159237e-01	9.899063e+14	1.716381e+14	3.272352e+14	1.285748e+04	5.900067e+03	2.963118e+03	0	1.417358e-03
1.600000e+08	6.673238e+13	0.000000e+00	5.159237e-01	9.673585e+14	1.783319e+14	3.254752e+14	1.278902e+04	5.934679e+03	2.980501e+03	0	1.405283e-03
1.700000e+08	6.505271e+13	0.000000e+00	5.159237e-01	9.455233e+14	1.850316e+14	3.237281e+14	1.272210e+04	5.968351e+03	2.997411e+03	0	1.393392e-03
1.800000e+08	6.342610e+13	0.000000e+00	5.159237e-01	9.243718e+14	1.917293e+14	3.219939e+14	1.265669e+04	6.001104e+03	3.013861e+03	0	1.381680e-03
1.900000e+08	6.185044e+13	0.000000e+00	5.159237e-01	9.038769e+14	1.984178e+14	3.202725e+14	1.259272e+04	6.032961e+03	3.029860e+03	0	1.370143e-03
2.000000e+08	6.032369e+13	0.000000e+00	5.159237e-01	8.840125e+14	2.050896e+14	3.185638e+14	1.253016e+04	6.063942e+03	3.045419e+03	0	1.358775e-03
2.100000e+08	5.884395e+13	0.000000e+00	5.159237e-01	8.647543e+14	2.117380e+14	3.168676e+14	1.246897e+04	6.094066e+03	3.060548e+03	0	1.347573e-03
2.200000e+08	5.740940e+13	0.000000e+00	5.159237e-01	8.460788e+14	2.183562e+14	3.151839e+14	1.240910e+04	6.123354e+03	3.075257e+03	0	1.336532e-03
2.300000e+08	5.601832e+13	0.000000e+00	5.159237e-01	8.279639e+14	2.249377e+14	3.135125e+14	1.235051e+04	6.151825e+03	3.089556e+03	0	1.325648e-03
2.400000e+08	5.466906e+13	0.000000e+00	5.159237e-01	8.103885e+14	2.314766e+14	3.118534e+14	1.229317e+04	6.179497e+03	3.103453e+03	0	1.314918e-03
2.500000e+08	5.336006e+13	0.000000e+00	5.159237e-01	7.933327e+14	2.379669e+14	3.102064e+14	1.223704e+04	6.206388e+03	3.116958e+03	0	1.304339e-03
2.600000e+08	5.208984e+13	0.000000e+00	5.159237e-01	7.767773e+14	2.444032e+14	3.085715e+14	1.218207e+04	6.232516e+03	3.130080e+03	0	1.293905e-03
2.700000e+08	5.085698e+13	0.000000e+00	5.159237e-01	7.607041e+14	2.507800e+14	3.069486e+14	1.212825e+04	6.257898e+03	3.142827e+03	0	1.283616e-03
2.800000e+08	4.966012e+13	0.000000e+00	5.159237e-01	7.450957e+14	2.570925e+14	3.053375e+14	1.207554e+04	6.282552e+03	3.155209e+03	0	1.273466e-03
2.900000e+08	4.849798e+13	0.000000e+00	5.159237e-01	7.299355e+14	2.633359e+14	3.037381e+14	1.202390e+04	6.306493e+03	3.167232e+03	0	1.263454e-03
3.000000e+08	4.736933e+13	0.000000e+00	5.159237e-01	7.152078e+14	2.695059e+14	3.021504e+14	1.197330e+04	6.329737e+03	3.178906e+03	0	1.253576e-03
3.100000e+08	4.627298e+13	0.000000e+00	5.159237e-01	7.008974e+14	2.755982e+14	3.005743e+14	1.192372e+04	6.352301e+03	3.190238e+03	0	1.243829e-03
3.200000e+08	4.520781e+13	0.000000e+00	5.159237e-01	6.869898e+14	2.816090e+14	2.990097e+14	1.187512e+04	6.374200e+03	3.201236e+03	0	1.234211e-03
3.300000e+08	4.417275e+13	0.000000e+00	5.159237e-01	6.734712e+14	2.875347e+14	2.974564e+14	1.182748e+04	6.395449e+03	3.211908e+03	0	1.224719e-03
3.400000e+08	4.316676e+13	0.000000e+00	5.159237e-01	6.603283e+14	2.933718e+14	2.959144e+14	1.178077e+04	6.416062e+03	3.222260e+03	0	1.215350e-03
3.500000e+08	4.218886e+13	0.000000e+00	5.159237e-01	6.475485e+14	2.991174e+14	2.943836e+14	1.173497e+04	6.436055e+03	3.232301e+03	0	1.206102e-03
3.600000e+08	4.123810e+13	0.000000e+00	5.159237e-01	6.351195e+14	3.047686e+14	2.928639e+14	1.169005e+04	6.455441e+03	3.242037e+03	0	1.196973e-03
3.700000e+08	4.031358e+13	0.000000e+00	5.159237e-01	6.230296e+14	3.103228e+14	2.913552e+14	1.164599e+04	6.474234e+03	3.251475e+03	0	1.187960e-03
3.800000e+08	3.941441e+13	0.000000e+00	5.159237e-01	6.112677e+14	3.157777e+14	2.898574e+14	1.160276e+04	6.492448e+03	3.260623e+03	0	1.179062e-03
3.900000e+08	3.853978e+13	0.000000e+00	5.159237e-01	5.998231e+14	3.211310e+14	2.883705e+14	1.156034e+04	6.510096e+03	3.269486e+03	0	1.170275e-03
4.000000e+08	3.768887e+13	0.000000e+00	5.159237e-01	5.886853e+14	3.263809e+14	2.868942e+14	1.151871e+04	6.527192e+03	3.278071e+03	0	1.161598e-03
4.100000e+08	3.686091e+13	0.000000e+00	5.159237e-01	5.778445e+14	3.315258e+14	2.854287e+14	1.147785e+04	6.543747e+03	3.286386e+03	0	1.153029e-03
4.200000e+08	3.605516e+13	0.000000e+00	5.159237e-01	5.672910e+14	3.365643e+14	2.839737e+14	1.143774e+04	6.559775e+03	3.294435e+03	0	1.144566e-03
4.300000e+08	3.527091e+13	0.000000e+00	5.159237e-01	5.570158e+14	3.414948e+14	2.825291e+14	1.139835e+04	6.575288e+03	3.302226e+03	0	1.136206e-03
4.400000e+08	3.450748e+13	0.000000e+00	5.159237e-01	5.470100e+14	3.463166e+14	2.810950e+14	1.135968e+04	6.590297e+03	3.309764e+03	0	1.127949e-03
4.500000e+08	3.376421e+13	0.000000e+00	5.159237e-01	5.372651e+14	3.510286e+14	2.796712e+14	1.132170e+04	6.604815e+03	3.317055e+03	0	1.119791e-03
4.600000e+08	3.304045e+13	0.000000e+00	5.159237e-01	5.277729e+14	3.556301e+14	2.782575e+14	1.128439e+04	6.618854e+03	3.324106e+03	0	1.111732e-03
4.700000e+08	3.233560e+13	0.000000e+00	5.159237e-01	5.185256e+14	3.601206e+14	2.768541e+14	1.124773e+04	6.632424e+03	3.330921e+03	0	1.103770e-03
4.800000e+08	3.164907e+13	0.000000e+00	5.159237e-01	5.095155e+14	3.644997e+14	2.754607e+14	1.121172e+04	6.645536e+03	3.337506e+03	0	1.095902e-03
4.900000e+08	3.098029e+13	0.000000e+00	5.159237e-01	5.007353e+14	3.687673e+14	2.740772e+14	1.117632e+04	6.658202e+03	3.343867e+03	0	1.088128e-03
5.000000e+08	3.032871e+13	0.000000e+00	5.159237e-01	4.921780e+14	3.729232e+14	2.727037e+14	1.114154e+04	6.670432e+03	3.350009e+03	0	1.080445e-03
5.100000e+08	2.969381e+13	0.000000e+00	5.159237e-01	4.838367e+14	3.769674e+14	2.713399e+14	1.110734e+04	6.682237e+03	3.355938e+03	0	1.072853e-03
5.200000e+08	2.907507e+13	0.000000e+00	5.159237e-01	4.757049e+14	3.809004e+14	2.699859e+14	1.107372e+04	6.693627e+03	3.361658e+03	0	1.065349e-03
5.300000e+08	2.847201e+13	0.000000e+00	5.159237e-01	4.677763e+14	3.847221e+14	2.686416e+14	1.104067e+04	6.704612e+03	3.367175e+03	0	1.057932e-03
5.400000e+08	2.788415e+13	0.000000e+00	5.159237e-01	4.600447e+14	3.884334e+14	2.673068e+14	1.100816e+04	6.715201e+03	3.372493e+03	0	1.050600e-03
5.500000e+08	2.731103e+13	0.000000e+00	5.159237e-01	4.525042e+14	3.920345e+14	2.659815e+14	1.097619e+04	6.725405e+03	3.377617e+03	0	1.043352e-03
5.600000e+08	2.675221e+13	0.000000e+00	5.159237e-01	4.451492e+14	3.955263e+14	2.646657e+14	1.094473e+04	6.735232e+03	3.382553e+03	0	1.036187e-03
5.700000e+08	2.620727e+13	0.000000e+00	5.159237e-01	4.379741e+14	3.989093e+14	2.633592e+14	1.091379e+04	6.744692e+03	3.387304e+03	0	1.029103e-03
5.800000e+08	2.567579e+13	0.000000e+00	5.159237e-01	4.309736e+14	4.021846e+14	2.620619e+14	1.088334e+04	6.753794e+03	3.391875e+03	0	1.022099e-03
5.900000e+08	2.515738e+13	0.000000e+00	5.159237e-01	4.241426e+14	4.053529e+14	2.607739e+14	1.085338e+04	6.762547e+03	3.396271e+03	0	1.015173e-03
6.000000e+08	2.465164e+13	0.000000e+00	5.159237e-01	4.174761e+14	4.084156e+14	2.594950e+14	1.082389e+04	6.770960e+03	3.400496e+03	0	1.008324e-03
6.100000e+08	2.415821e+13	0.000000e+00	5.159237e-01	4.109692e+14	4.113734e+14	2.582251e+14	1.079487e+04	6.779040e+03	3.404554e+03	0	1.001551e-03
6.200000e+08	2.367672e+13	0.000000e+00	5.159237e-01	4.046175e+14	4.142275e+14	2.569642e+14	1.076629e+04	6.786797e+03	3.408450e+03	0	9.948526e-04
6.300000e+08	2.320683e+13	0.000000e+00	5.159237e-01	3.984162e+14	4.169793e+14	2.557122e+14	1.073815e+04	6.794237e+03	3.412186e+03	0	9.882273e-04
6.400000e+08	2.274821e+13	0.000000e+00	5.159237e-01	3.923613e+14	4.196300e+14	2.544690e+14	1.071044e+04	6.801370e+03	3.415769e+03	0	9.816740e-04
6.500000e+08	2.230052e+13	0.000000e+00	5.159237e-01	3.864483e+14	4.221808e+14	2.532346e+14	1.068315e+04	6.808203e+03	3.419200e+03	0	9.751915e-04
6.600000e+08	2.186346e+13	0.000000e+00	5.159237e-01	3.806732e+14	4.246331e+14	2.520089e+14	1.065627e+04	6.814743e+03	3.422485e+03	0	9.687785e-04
6.700000e+08	2.143671e+13	0.000000e+00	5.159237e-01	3.750322e+14	4.269886e+14	2.507918e+14	1.062979e+04	6.820999e+03	3.425626e+03	0	9.624340e-04
6.800000e+08	2.101999e+13	0.000000e+00	5.159237e-01	3.695214e+14	4.292484e+14	2.495832e+14	1.060370e+04	6.826976e+03	3.428628e+03	0	9.561566e-04
6.900000e+08	2.061300e+13	0.000000e+00	5.159237e-01	3.641372e+14	4.314141e+14	2.483831e+14	1.057800e+04	6.832683e+03	3.431494e+03	0	9.499454e-04
7.000000e+08	2.021548e+13	0.000000e+00	5.159237e-01	3.588759e+14	4.334873e+14	2.471914e+14	1.055266e+04	6.838126e+03	3.434228e+03	0	9.437991e-04
7.100000e+08	1.982715e+13	0.000000e+00	5.159237e-01	3.537341e+14	4.354693e+14	2.460081e+14	1.052769e+04	6.843311e+03	3.436832e+03	0	9.377167e-04
7.200000e+08	1.944776e+13	0.000000e+00	5.159237e-01	3.487084e+14	4.373619e+14	2.448331e+14	1.050308e+04	6.848247e+03	3.439311e+03	0	9.316971e-04
7.300000e+08	1.907705e+13	0.000000e+00	5.159237e-01	3.437957e+14	4.391666e+14	2.436662e+14	1.047881e+04	6.852938e+03	3.441667e+03	0	9.257391e-04
7.400000e+08	1.871478e+13	0.000000e+00	5.159237e-01	3.389928e+14	4.408848e+14	2.425075e+14	1.045489e+04	6.857392e+03	3.443904e+03	0	9.198418e-04
7.500000e+08	1.836073e+13	0.000000e+00	5.159237e-01	3.342967e+14	4.425184e+14	2.413569e+14	1.043129e+04	6.861614e+03	3.446024e+03	0	9.140042e-04
7.600000e+08	1.801465e+13	0.000000e+00	5.159237e-01	3.297043e+14	4.440689e+14	2.402143e+14	1.040803e+04	6.865610e+03	3.448031e+03	0	9.082251e-04
7.700000e+08	1.767633e+13	0.000000e+00	5.159237e-01	3.252130e+14	4.455379e+14	2.390796e+14	1.038508e+04	6.869388e+03	3.449928e+03	0	9.025036e-04
7.800000e+08	1.734556e+13	0.000000e+00	5.159237e-01	3.208198e+14	4.469271e+14	2.379529e+14	1.036244e+04	6.872951e+03	3.451718e+03	0	8.968387e-04
7.900000e+08	1.702213e+13	0.000000e+00	5.159237e-01	3.165221e+14	4.482380e+14	2.368339e+14	1.034011e+04	6.876306e+03	3.453403e+03	0	8.912294e-04
8.000000e+08	1.670583e+13	0.000000e+00	5.159237e-01	3.123174e+14	4.494722e+14	2.357227e+14	1.031808e+04	6.879458e+03	3.454986e+03	0	8.856747e-04
8.100000e+08	1.639648e+13	0.000000e+00	5.159237e-01	3.082031e+14	4.506314e+14	2.346193e+14	1.029633e+04	6.882413e+03	3.456470e+03	0	8.801738e-04
8.200000e+08	1.609389e+13	0.000000e+00	5.159237e-01	3.041768e+14	4.517174e+14	2.335234e+14	1.027487e+04	6.885176e+03	3.457857e+03	0	8.747257e-04
8.300000e+08	1.579787e+13	0.000000e+00	5.159237e-01	3.002361e+14	4.527314e+14	2.324351e+14	1.025370e+04	6.887751e+03	3.459151e+03	0	8.693294e-04
8.400000e+08	1.550824e+13	0.000000e+00	5.159237e-01	2.963787e+14	4.536754e+14	2.313544e+14	1.023279e+04	6.890145e+03	3.460353e+03	0	8.639840e-04
8.500000e+08	1.522484e+13	0.000000e+00	5.159237e-01	2.926024e+14	4.545507e+14	2.302811e+14	1.021215e+04	6.892361e+03	3.461466e+03	0	8.586887e-04
8.600000e+08	1.494749e+13	0.000000e+00	5.159237e-01	2.889051e+14	4.553590e+14	2.292152e+14	1.019178e+04	6.894405e+03	3.462492e+03	0	8.534426e-04
8.700000e+08	1.467605e+13	0.000000e+00	5.159237e-01	2.852846e+14	4.561018e+14	2.281566e+14	1.017166e+04	6.896281e+03	3.463435e+03	0	8.482449e-04
8.800000e+08	1.441034e+13	0.000000e+00	5.159237e-01	2.817390e+14	4.567808e+14	2.271053e+14	1.015179e+04	6.897994e+03	3.464295e+03	0	8.430945e-04
8.900000e+08	1.415022e+13	0.000000e+00	5.159237e-01	2.782663e+14	4.573974e+14	2.260613e+14	1.013217e+04	6.899547e+03	3.465075e+03	0	8.379908e-04
9.000000e+08	1.389554e+13	0.000000e+00	5.159237e-01	2.748645e+14	4.579530e+14	2.250244e+14	1.011279e+04	6.900946e+03	3.465778e+03	0	8.329329e-04
9.100000e+08	1.364616e+13	0.000000e+00	5.159237e-01	2.715319e+14	4.584495e+14	2.239946e+14	1.009364e+04	6.902195e+03	3.466405e+03	0	8.279200e-04
9.200000e+08	1.340194e+13	0.000000e+00	5.159237e-01	2.682666e+14	4.588881e+14	2.229719e+14	1.007473e+04	6.903297e+03	3.466958e+03	0	8.229513e-04
9.300000e+08	1.316275e+13	0.000000e+00	5.159237e-01	2.650668e+14	4.592701e+14	2.219562e+14	1.005604e+04	6.904257e+03	3.467440e+03	0	8.180259e-04
9.400000e+08	1.292845e+13	0.000000e+00	5.159237e-01	2.619310e+14	4.595973e+14	2.209474e+14	1.003758e+04	6.905078e+03	3.467853e+03	0	8.131431e-04
9.500000e+08	1.269892e+13	0.000000e+00	5.159237e-01	2.588574e+14	4.598710e+14	2.199455e+14	1.001933e+04	6.905765e+03	3.468198e+03	0	8.083022e-04
9.600000e+08	1.247403e+13	0.000000e+00	5.159237e-01	2.558446e+14	4.600926e+14	2.189504e+14	1.000130e+04	6.906321e+03	3.468477e+03	0	8.035023e-04
9.700000e+08	1.225367e+13	0.000000e+00	5.159237e-01	2.528908e+14	4.602633e+14	2.179621e+14	9.983475e+03	6.906749e+03	3.468692e+03	0	7.987428e-04
9.800000e+08	1.203772e+13	0.000000e+00	5.159237e-01	2.499946e+14	4.603848e+14	2.169805e+14	9.965856e+03	6.907053e+03	3.468845e+03	0	7.940228e-04
9.900000e+08	1.182607e+13	0.000000e+00	5.159237e-01	2.471547e+14	4.604582e+14	2.160056e+14	9.948437e+03	6.907237e+03	3.468937e+03	0	7.893417e-04
1.000000e+09	1.161861e+13	0.000000e+00	5.159237e-01	2.443695e+14	4.604848e+14	2.150373e+14	9.931216e+03	6.907304e+03	3.468971e+03	0	7.846988e-04
1.010000e+09	1.141524e+13	0.000000e+00	5.159237e-01	2.416377e+14	4.604661e+14	2.140756e+14	9.914188e+03	6.907257e+03	3.468947e+03	0	7.800932e-04
1.020000e+09	1.121584e+13	0.000000e+00	5.159237e-01	2.389579e+14	4.604031e+14	2.131204e+14	9.897350e+03	6.907099e+03	3.468868e+03	0	7.755245e-04
1.030000e+09	1.102033e+13	0.000000e+00	5.159237e-01	2.363290e+14	4.602973e+14	2.121717e+14	9.880698e+03	6.906834e+03	3.468734e+03	0	7.709917e-04
1.040000e+09	1.082860e+13	0.000000e+00	5.159237e-01	2.337495e+14	4.601498e+14	2.112293e+14	9.864229e+03	6.906464e+03	3.468549e+03	0	7.664944e-04
1.050000e+09	1.064056e+13	0.000000e+00	5.159237e-01	2.312183e+14	4.599618e+14	2.102934e+14	9.847939e+03	6.905993e+03	3.468312e+03	0	7.620317e-04
1.060000e+09	1.045612e+13	0.000000e+00	5.159237e-01	2.287343e+14	4.597344e+14	2.093637e+14	9.831824e+03	6.905423e+03	3.468026e+03	0	7.576031e-04
1.070000e+09	1.027519e+13	0.000000e+00	5.159237e-01	2.262961e+14	4.594690e+14	2.084403e+14	9.815883e+03	6.904756e+03	3.467691e+03	0	7.532079e-04
1.080000e+09	1.009769e+13	0.000000e+00	5.159237e-01	2.239029e+14	4.591666e+14	2.075232e+14	9.800110e+03	6.903997e+03	3.467310e+03	0	7.488455e-04
1.090000e+09	9.923526e+12	0.000000e+00	5.159237e-01	2.215534e+14	4.588282e+14	2.066122e+14	9.784504e+03	6.903147e+03	3.466883e+03	0	7.445152e-04
1.100000e+09	9.752622e+12	0.000000e+00	5.159237e-01	2.192466e+14	4.584551e+14	2.057073e+14	9.769061e+03	6.902209e+03	3.466412e+03	0	7.402163e-04
1.110000e+09	9.584898e+12	0.000000e+00	5.159237e-01	2.169814e+14	4.580481e+14	2.048084e+14	9.753778e+03	6.901185e+03	3.465898e+03	0	7.359484e-04
1.120000e+09	9.420277e+12	0.000000e+00	5.159237e-01	2.147570e+14	4.576085e+14	2.039156e+14	9.738653e+03	6.900079e+03	3.465342e+03	0	7.317107e-04
1.130000e+09	9.258685e+12	0.000000e+00	5.159237e-01	2.125722e+14	4.571371e+14	2.030288e+14	9.723682e+03	6.898892e+03	3.464746e+03	0	7.275028e-04
1.140000e+09	9.100050e+12	0.000000e+00	5.159237e-01	2.104262e+14	4.566351e+14	2.021479e+14	9.708863e+03	6.897626e+03	3.464110e+03	0	7.233239e-04
1.150000e+09	8.944300e+12	0.000000e+00	5.159237e-01	2.083181e+14	4.561033e+14	2.012729e+14	9.694193e+03	6.896285e+03	3.463436e+03	0	7.191735e-04
1.160000e+09	8.791368e+12	0.000000e+00	5.159237e-01	2.062469e+14	4.555429e+14	2.004037e+14	9.679670e+03	6.894870e+03	3.462726e+03	0	7.150510e-04
1.170000e+09	8.641186e+12	0.000000e+00	5.159237e-01	2.042118e+14	4.549545e+14	1.995403e+14	9.665291e+03	6.893383e+03	3.461979e+03	0	7.109559e-04
1.180000e+09	8.493690e+12	0.000000e+00	5.159237e-01	2.022120e+14	4.543392e+14	1.986827e+14	9.651053e+03	6.891826e+03	3.461197e+03	0	7.068876e-04
1.190000e+09	8.348817e+12	0.000000e+00	5.159237e-01	2.002466e+14	4.536979e+14	1.978308e+14	9.636954e+03	6.890202e+03	3.460382e+03	0	7.028455e-04
1.200000e+09	8.206506e+12	0.000000e+00	5.159237e-01	1.983148e+14	4.530314e+14	1.969845e+14	9.622991e+03	6.888513e+03	3.459533e+03	0	6.988291e-04
1.210000e+09	8.066696e+12	0.000000e+00	5.159237e-01	1.964160e+14	4.523407e+14	1.961438e+14	9.609163e+03	6.886759e+03	3.458653e+03	0	6.948378e-04
1.220000e+09	7.929331e+12	0.000000e+00	5.159237e-01	1.945492e+14	4.516264e+14	1.953087e+14	9.595467e+03	6.884945e+03	3.457741e+03	0	6.908712e-04
1.230000e+09	7.794354e+12	0.000000e+00	5.159237e-01	1.927138e+14	4.508895e+14	1.944791e+14	9.581901e+03	6.883070e+03	3.456800e+03	0	6.869286e-04
1.240000e+09	7.661710e+12	0.000000e+00	5.159237e-01	1.909091e+14	4.501307e+14	1.936550e+14	9.568462e+03	6.881137e+03	3.455829e+03	0	6.830095e-04
1.250000e+09	7.531345e+12	0.000000e+00	5.159237e-01	1.891344e+14	4.493507e+14	1.928364e+14	9.555149e+03	6.879148e+03	3.454830e+03	0	6.791136e-04
1.260000e+09	7.403209e+12	0.000000e+00	5.159237e-01	1.873889e+14	4.485504e+14	1.920231e+14	9.541959e+03	6.877104e+03	3.453804e+03	0	6.752401e-04
1.270000e+09	7.277250e+12	0.000000e+00	5.159237e-01	1.856722e+14	4.477305e+14	1.912152e+14	9.528891e+03	6.875008e+03	3.452751e+03	0	6.713886e-04
1.280000e+09	7.153419e+12	0.000000e+00	5.159237e-01	1.839834e+14	4.468916e+14	1.904126e+14	9.515942e+03	6.872860e+03	3.451672e+03	0	6.675587e-04
1.290000e+09	7.031669e+12	0.000000e+00	5.159237e-01	1.823220e+14	4.460345e+14	1.896153e+14	9.503110e+03	6.870662e+03	3.450568e+03	0	6.637497e-04
1.300000e+09	6.911953e+12	0.000000e+00	5.159237e-01	1.806874e+14	4.451599e+14	1.888232e+14	9.490394e+03	6.868416e+03	3.449440e+03	0	6.599613e-04
1.310000e+09	6.794225e+12	0.000000e+00	5.159237e-01	1.790790e+14	4.442684e+14	1.880363e+14	9.477791e+03	6.866124e+03	3.448289e+03	0	6.561929e-04
1.320000e+09	6.678443e+12	0.000000e+00	5.159237e-01	1.774962e+14	4.433606e+14	1.872546e+14	9.465301e+03	6.863786e+03	3.447115e+03	0	6.524441e-04
1.330000e+09	6.564562e+12	0.000000e+00	5.159237e-01	1.759384e+14	4.424372e+14	1.864780e+14	9.452920e+03	6.861404e+03	3.445919e+03	0	6.487143e-04
1.340000e+09	6.452541e+12	0.000000e+00	5.159237e-01	1.744052e+14	4.414988e+14	1.857064e+14	9.440648e+03	6.858980e+03	3.444701e+03	0	6.450031e-04
1.350000e+09	6.342340e+12	0.000000e+00	5.159237e-01	1.728960e+14	4.405460e+14	1.849399e+14	9.428482e+03	6.856514e+03	3.443463e+03	0	6.413100e-04
1.360000e+09	6.233918e+12	0.000000e+00	5.159237e-01	1.714102e+14	4.395794e+14	1.841784e+14	9.416422e+03	6.854009e+03	3.442205e+03	0	6.376346e-04
