#t		Qconv[W]	Ri[Rp]		R*[Rp]		Qc[W]		Qm[W]		Qr[W]		Tcmb[K]		Tl[K]		Tup[K]		RiFlag		Bs[T]
0.000000e+00	1.400837e+15	0.000000e+00	5.063292e-01	1.679511e+16	7.143191e+13	4.179017e+14	2.596518e+04	7.454137e+03	2.699794e+03	0	3.894298e-03
1.000000e+07	1.236471e+15	0.000000e+00	5.063292e-01	1.485181e+16	1.134902e+14	4.155862e+14	2.501010e+04	7.962289e+03	2.883841e+03	0	3.735608e-03
2.000000e+07	1.097092e+15	0.000000e+00	5.063292e-01	1.320343e+16	1.644892e+14	4.132880e+14	2.416149e+04	8.411313e+03	3.046471e+03	0	3.589613e-03
3.000000e+07	9.780483e+14	0.000000e+00	5.063292e-01	1.179512e+16	2.228614e+14	4.110070e+14	2.340390e+04	8.809717e+03	3.190768e+03	0	3.454777e-03
4.000000e+07	8.757089e+14	0.000000e+00	5.063292e-01	1.058406e+16	2.869050e+14	4.087431e+14	2.272459e+04	9.164434e+03	3.319243e+03	0	3.329813e-03
5.000000e+07	7.872067e+14	0.000000e+00	5.063292e-01	9.536426e+15	3.549596e+14	4.064960e+14	2.211302e+04	9.481175e+03	3.433962e+03	0	3.213632e-03
6.000000e+07	7.102570e+14	0.000000e+00	5.063292e-01	8.625273e+15	4.255038e+14	4.042657e+14	2.156036e+04	9.764695e+03	3.536650e+03	0	3.105311e-03
7.000000e+07	6.430222e+14	0.000000e+00	5.063292e-01	7.828913e+15	4.972027e+14	4.020520e+14	2.105917e+04	1.001899e+04	3.628752e+03	0	3.004060e-03
8.000000e+07	5.840108e+14	0.000000e+00	5.063292e-01	7.129745e+15	5.689228e+14	3.998547e+14	2.060318e+04	1.024745e+04	3.711499e+03	0	2.909200e-03
9.000000e+07	5.320027e+14	0.000000e+00	5.063292e-01	6.513365e+15	6.397282e+14	3.976738e+14	2.018701e+04	1.045298e+04	3.785938e+03	0	2.820144e-03
1.000000e+08	4.859920e+14	0.000000e+00	5.063292e-01	5.967896e+15	7.088659e+14	3.955091e+14	1.980607e+04	1.063807e+04	3.852976e+03	0	2.736379e-03
1.100000e+08	4.451433e+14	0.000000e+00	5.063292e-01	5.483476e+15	7.757466e+14	3.933604e+14	1.945641e+04	1.080489e+04	3.913394e+03	0	2.657459e-03
1.200000e+08	4.087586e+14	0.000000e+00	5.063292e-01	5.051857e+15	8.399242e+14	3.912277e+14	1.913461e+04	1.095531e+04	3.967877e+03	0	2.582987e-03
1.300000e+08	3.762509e+14	0.000000e+00	5.063292e-01	4.666107e+15	9.010744e+14	3.891107e+14	1.883770e+04	1.109101e+04	4.017023e+03	0	2.512614e-03
1.400000e+08	3.471236e+14	0.000000e+00	5.063292e-01	4.320359e+15	9.589758e+14	3.870095e+14	1.856307e+04	1.121342e+04	4.061359e+03	0	2.446028e-03
1.500000e+08	3.209549e+14	0.000000e+00	5.063292e-01	4.009627e+15	1.013492e+15	3.849237e+14	1.830847e+04	1.132384e+04	4.101351e+03	0	2.382948e-03
1.600000e+08	2.973843e+14	0.000000e+00	5.063292e-01	3.729649e+15	1.064556e+15	3.828534e+14	1.807191e+04	1.142340e+04	4.137413e+03	0	2.323125e-03
1.700000e+08	2.761025e+14	0.000000e+00	5.063292e-01	3.476772e+15	1.112157e+15	3.807983e+14	1.785162e+04	1.151313e+04	4.169912e+03	0	2.266331e-03
1.800000e+08	2.568431e+14	0.000000e+00	5.063292e-01	3.247844e+15	1.156330e+15	3.787584e+14	1.764606e+04	1.159393e+04	4.199177e+03	0	2.212361e-03
1.900000e+08	2.393756e+14	0.000000e+00	5.063292e-01	3.040141e+15	1.197142e+15	3.767336e+14	1.745386e+04	1.166662e+04	4.225502e+03	0	2.161026e-03
2.000000e+08	2.235002e+14	0.000000e+00	5.063292e-01	2.851298e+15	1.234688e+15	3.747236e+14	1.727378e+04	1.173192e+04	4.249152e+03	0	2.112156e-03
2.100000e+08	2.090425e+14	0.000000e+00	5.063292e-01	2.679254e+15	1.269083e+15	3.727284e+14	1.710476e+04	1.179048e+04	4.270363e+03	0	2.065593e-03
2.200000e+08	1.958506e+14	0.000000e+00	5.063292e-01	2.522210e+15	1.300456e+15	3.707478e+14	1.694581e+04	1.184290e+04	4.289350e+03	0	2.021195e-03
2.300000e+08	1.837911e+14	0.000000e+00	5.063292e-01	2.378589e+15	1.328944e+15	3.687818e+14	1.679607e+04	1.188972e+04	4.306306e+03	0	1.978828e-03
2.400000e+08	1.727468e+14	0.000000e+00	5.063292e-01	2.247005e+15	1.354690e+15	3.668302e+14	1.665476e+04	1.193141e+04	4.321405e+03	0	1.938370e-03
2.500000e+08	1.626148e+14	0.000000e+00	5.063292e-01	2.126238e+15	1.377841e+15	3.648929e+14	1.652118e+04	1.196841e+04	4.334806e+03	0	1.899707e-03
2.600000e+08	1.533039e+14	0.000000e+00	5.063292e-01	2.015209e+15	1.398544e+15	3.629698e+14	1.639470e+04	1.200111e+04	4.346652e+03	0	1.862735e-03
2.700000e+08	1.447336e+14	0.000000e+00	5.063292e-01	1.912965e+15	1.416943e+15	3.610607e+14	1.627476e+04	1.202989e+04	4.357073e+03	0	1.827355e-03
2.800000e+08	1.368323e+14	0.000000e+00	5.063292e-01	1.818659e+15	1.433179e+15	3.591656e+14	1.616084e+04	1.205506e+04	4.366189e+03	0	1.793478e-03
2.900000e+08	1.295365e+14	0.000000e+00	5.063292e-01	1.731539e+15	1.447391e+15	3.572843e+14	1.605249e+04	1.207692e+04	4.374108e+03	0	1.761019e-03
3.000000e+08	1.227897e+14	0.000000e+00	5.063292e-01	1.650935e+15	1.459711e+15	3.554167e+14	1.594927e+04	1.209575e+04	4.380926e+03	0	1.729898e-03
3.100000e+08	1.165413e+14	0.000000e+00	5.063292e-01	1.576249e+15	1.470267e+15	3.535628e+14	1.585082e+04	1.211179e+04	4.386736e+03	0	1.700043e-03
3.200000e+08	1.107463e+14	0.000000e+00	5.063292e-01	1.506945e+15	1.479180e+15	3.517223e+14	1.575678e+04	1.212526e+04	4.391618e+03	0	1.671384e-03
3.300000e+08	1.053642e+14	0.000000e+00	5.063292e-01	1.442545e+15	1.486567e+15	3.498952e+14	1.566683e+04	1.213639e+04	4.395648e+03	0	1.643858e-03
3.400000e+08	1.003587e+14	0.000000e+00	5.063292e-01	1.382620e+15	1.492537e+15	3.480813e+14	1.558070e+04	1.214535e+04	4.398894e+03	0	1.617403e-03
3.500000e+08	9.569730e+13	0.000000e+00	5.063292e-01	1.326782e+15	1.497193e+15	3.462807e+14	1.549811e+04	1.215233e+04	4.401419e+03	0	1.591964e-03
3.600000e+08	9.135063e+13	0.000000e+00	5.063292e-01	1.274685e+15	1.500633e+15	3.444931e+14	1.541883e+04	1.215747e+04	4.403282e+03	0	1.567486e-03
3.700000e+08	8.729226e+13	0.000000e+00	5.063292e-01	1.226016e+15	1.502950e+15	3.427184e+14	1.534264e+04	1.216093e+04	4.404534e+03	0	1.543921e-03
3.800000e+08	8.349833e+13	0.000000e+00	5.063292e-01	1.180490e+15	1.504229e+15	3.409566e+14	1.526933e+04	1.216283e+04	4.405225e+03	0	1.521222e-03
3.900000e+08	7.994728e+13	0.000000e+00	5.063292e-01	1.137853e+15	1.504551e+15	3.392075e+14	1.519872e+04	1.216331e+04	4.405399e+03	0	1.499344e-03
4.000000e+08	7.661956e+13	0.000000e+00	5.063292e-01	1.097872e+15	1.503992e+15	3.374710e+14	1.513064e+04	1.216248e+04	4.405097e+03	0	1.478245e-03
4.100000e+08	7.349747e+13	0.000000e+00	5.063292e-01	1.060338e+15	1.502622e+15	3.357471e+14	1.506493e+04	1.216044e+04	4.404357e+03	0	1.457888e-03
4.200000e+08	7.056493e+13	0.000000e+00	5.063292e-01	1.025059e+15	1.500508e+15	3.340355e+14	1.500146e+04	1.215728e+04	4.403214e+03	0	1.438234e-03
4.300000e+08	6.780734e+13	0.000000e+00	5.063292e-01	9.918633e+14	1.497710e+15	3.323364e+14	1.494008e+04	1.215310e+04	4.401700e+03	0	1.419250e-03
4.400000e+08	6.521140e+13	0.000000e+00	5.063292e-01	9.605920e+14	1.494287e+15	3.306494e+14	1.488067e+04	1.214798e+04	4.399844e+03	0	1.400902e-03
4.500000e+08	6.276498e+13	0.000000e+00	5.063292e-01	9.311015e+14	1.490290e+15	3.289746e+14	1.482312e+04	1.214198e+04	4.397674e+03	0	1.383160e-03
4.600000e+08	6.045704e+13	0.000000e+00	5.063292e-01	9.032606e+14	1.485771e+15	3.273117e+14	1.476732e+04	1.213519e+04	4.395214e+03	0	1.365994e-03
4.700000e+08	5.827746e+13	0.000000e+00	5.063292e-01	8.769493e+14	1.480774e+15	3.256608e+14	1.471318e+04	1.212767e+04	4.392489e+03	0	1.349378e-03
4.800000e+08	5.621702e+13	0.000000e+00	5.063292e-01	8.520579e+14	1.475343e+15	3.240218e+14	1.466061e+04	1.211947e+04	4.389519e+03	0	1.333284e-03
4.900000e+08	5.426726e+13	0.000000e+00	5.063292e-01	8.284861e+14	1.469518e+15	3.223945e+14	1.460952e+04	1.211065e+04	4.386325e+03	0	1.317688e-03
5.000000e+08	5.242042e+13	0.000000e+00	5.063292e-01	8.061416e+14	1.463334e+15	3.207788e+14	1.455983e+04	1.210126e+04	4.382924e+03	0	1.302567e-03
5.100000e+08	5.066940e+13	0.000000e+00	5.063292e-01	7.849401e+14	1.456827e+15	3.191746e+14	1.451147e+04	1.209135e+04	4.379334e+03	0	1.287899e-03
5.200000e+08	4.900766e+13	0.000000e+00	5.063292e-01	7.648039e+14	1.450027e+15	3.175819e+14	1.446437e+04	1.208096e+04	4.375570e+03	0	1.273663e-03
5.300000e+08	4.742919e+13	0.000000e+00	5.063292e-01	7.456616e+14	1.442965e+15	3.160006e+14	1.441848e+04	1.207013e+04	4.371648e+03	0	1.259839e-03
5.400000e+08	4.592847e+13	0.000000e+00	5.063292e-01	7.274475e+14	1.435667e+15	3.144305e+14	1.437372e+04	1.205889e+04	4.367580e+03	0	1.246409e-03
5.500000e+08	4.450041e+13	0.000000e+00	5.063292e-01	7.101011e+14	1.428159e+15	3.128716e+14	1.433005e+04	1.204730e+04	4.363379e+03	0	1.233355e-03
5.600000e+08	4.314029e+13	0.000000e+00	5.063292e-01	6.935664e+14	1.420463e+15	3.113238e+14	1.428742e+04	1.203536e+04	4.359056e+03	0	1.220659e-03
5.700000e+08	4.184380e+13	0.000000e+00	5.063292e-01	6.777920e+14	1.412601e+15	3.097869e+14	1.424577e+04	1.202312e+04	4.354623e+03	0	1.208306e-03
5.800000e+08	4.060692e+13	0.000000e+00	5.063292e-01	6.627301e+14	1.404593e+15	3.082610e+14	1.420506e+04	1.201060e+04	4.350089e+03	0	1.196281e-03
5.900000e+08	3.942594e+13	0.000000e+00	5.063292e-01	6.483366e+14	1.396457e+15	3.067459e+14	1.416525e+04	1.199783e+04	4.345463e+03	0	1.184570e-03
6.000000e+08	3.829743e+13	0.000000e+00	5.063292e-01	6.345708e+14	1.388211e+15	3.052415e+14	1.412630e+04	1.198483e+04	4.340755e+03	0	1.173158e-03
6.100000e+08	3.721822e+13	0.000000e+00	5.063292e-01	6.213948e+14	1.379870e+15	3.037478e+14	1.408817e+04	1.197162e+04	4.335971e+03	0	1.162033e-03
6.200000e+08	3.618535e+13	0.000000e+00	5.063292e-01	6.087735e+14	1.371447e+15	3.022646e+14	1.405082e+04	1.195823e+04	4.331121e+03	0	1.151183e-03
6.300000e+08	3.519610e+13	0.000000e+00	5.063292e-01	5.966743e+14	1.362957e+15	3.007919e+14	1.401424e+04	1.194467e+04	4.326209e+03	0	1.140595e-03
6.400000e+08	3.424791e+13	0.000000e+00	5.063292e-01	5.850671e+14	1.354413e+15	2.993295e+14	1.397837e+04	1.193096e+04	4.321243e+03	0	1.130259e-03
6.500000e+08	3.333843e+13	0.000000e+00	5.063292e-01	5.739235e+14	1.345825e+15	2.978775e+14	1.394319e+04	1.191712e+04	4.316229e+03	0	1.120164e-03
6.600000e+08	3.246546e+13	0.000000e+00	5.063292e-01	5.632176e+14	1.337203e+15	2.964357e+14	1.390869e+04	1.190315e+04	4.311172e+03	0	1.110300e-03
6.700000e+08	3.162695e+13	0.000000e+00	5.063292e-01	5.529247e+14	1.328557e+15	2.950040e+14	1.387482e+04	1.188909e+04	4.306077e+03	0	1.100658e-03
6.800000e+08	3.082098e+13	0.000000e+00	5.063292e-01	5.430223e+14	1.319896e+15	2.935824e+14	1.384156e+04	1.187493e+04	4.300950e+03	0	1.091228e-03
6.900000e+08	3.004579e+13	0.000000e+00	5.063292e-01	5.334892e+14	1.311229e+15	2.921707e+14	1.380890e+04	1.186069e+04	4.295793e+03	0	1.082001e-03
7.000000e+08	2.929972e+13	0.000000e+00	5.063292e-01	5.243054e+14	1.302562e+15	2.907690e+14	1.377681e+04	1.184639e+04	4.290613e+03	0	1.072970e-03
7.100000e+08	2.858120e+13	0.000000e+00	5.063292e-01	5.154525e+14	1.293902e+15	2.893770e+14	1.374527e+04	1.183203e+04	4.285411e+03	0	1.064127e-03
7.200000e+08	2.788879e+13	0.000000e+00	5.063292e-01	5.069133e+14	1.285256e+15	2.879948e+14	1.371425e+04	1.181762e+04	4.280193e+03	0	1.055463e-03
7.300000e+08	2.722113e+13	0.000000e+00	5.063292e-01	4.986715e+14	1.276629e+15	2.866223e+14	1.368375e+04	1.180317e+04	4.274961e+03	0	1.046973e-03
7.400000e+08	2.657695e+13	0.000000e+00	5.063292e-01	4.907120e+14	1.268027e+15	2.852593e+14	1.365374e+04	1.178870e+04	4.269718e+03	0	1.038648e-03
7.500000e+08	2.595507e+13	0.000000e+00	5.063292e-01	4.830206e+14	1.259454e+15	2.839059e+14	1.362420e+04	1.177420e+04	4.264468e+03	0	1.030483e-03
7.600000e+08	2.535436e+13	0.000000e+00	5.063292e-01	4.755840e+14	1.250915e+15	2.825618e+14	1.359513e+04	1.175969e+04	4.259212e+03	0	1.022471e-03
7.700000e+08	2.477379e+13	0.000000e+00	5.063292e-01	4.683897e+14	1.242413e+15	2.812271e+14	1.356650e+04	1.174517e+04	4.253953e+03	0	1.014606e-03
7.800000e+08	2.421236e+13	0.000000e+00	5.063292e-01	4.614259e+14	1.233953e+15	2.799017e+14	1.353830e+04	1.173065e+04	4.248694e+03	0	1.006883e-03
7.900000e+08	2.366916e+13	0.000000e+00	5.063292e-01	4.546817e+14	1.225537e+15	2.785855e+14	1.351052e+04	1.171614e+04	4.243437e+03	0	9.992962e-04
8.000000e+08	2.314331e+13	0.000000e+00	5.063292e-01	4.481466e+14	1.217168e+15	2.772784e+14	1.348314e+04	1.170163e+04	4.238183e+03	0	9.918404e-04
8.100000e+08	2.263401e+13	0.000000e+00	5.063292e-01	4.418110e+14	1.208850e+15	2.759804e+14	1.345615e+04	1.168714e+04	4.232934e+03	0	9.845108e-04
8.200000e+08	2.214049e+13	0.000000e+00	5.063292e-01	4.356657e+14	1.200585e+15	2.746914e+14	1.342954e+04	1.167267e+04	4.227693e+03	0	9.773025e-04
8.300000e+08	2.166201e+13	0.000000e+00	5.063292e-01	4.297019e+14	1.192373e+15	2.734113e+14	1.340330e+04	1.165822e+04	4.222461e+03	0	9.702110e-04
8.400000e+08	2.119790e+13	0.000000e+00	5.063292e-01	4.239117e+14	1.184219e+15	2.721400e+14	1.337742e+04	1.164380e+04	4.217238e+03	0	9.632320e-04
8.500000e+08	2.074752e+13	0.000000e+00	5.063292e-01	4.182872e+14	1.176123e+15	2.708775e+14	1.335188e+04	1.162941e+04	4.212027e+03	0	9.563614e-04
8.600000e+08	2.031027e+13	0.000000e+00	5.063292e-01	4.128213e+14	1.168087e+15	2.696237e+14	1.332668e+04	1.161506e+04	4.206829e+03	0	9.495952e-04
8.700000e+08	1.988556e+13	0.000000e+00	5.063292e-01	4.075070e+14	1.160112e+15	2.683785e+14	1.330181e+04	1.160075e+04	4.201645e+03	0	9.429295e-04
8.800000e+08	1.947286e+13	0.000000e+00	5.063292e-01	4.023380e+14	1.152199e+15	2.671419e+14	1.327725e+04	1.158648e+04	4.196475e+03	0	9.363607e-04
8.900000e+08	1.907166e+13	0.000000e+00	5.063292e-01	3.973081e+14	1.144350e+15	2.659138e+14	1.325301e+04	1.157225e+04	4.191322e+03	0	9.298854e-04
9.000000e+08	1.868147e+13	0.000000e+00	5.063292e-01	3.924115e+14	1.136566e+15	2.646941e+14	1.322906e+04	1.155806e+04	4.186185e+03	0	9.235001e-04
9.100000e+08	1.830183e+13	0.000000e+00	5.063292e-01	3.876427e+14	1.128846e+15	2.634828e+14	1.320541e+04	1.154393e+04	4.181066e+03	0	9.172016e-04
9.200000e+08	1.793232e+13	0.000000e+00	5.063292e-01	3.829966e+14	1.121192e+15	2.622797e+14	1.318205e+04	1.152985e+04	4.175965e+03	0	9.109869e-04
9.300000e+08	1.757253e+13	0.000000e+00	5.063292e-01	3.784683e+14	1.113604e+15	2.610849e+14	1.315896e+04	1.151582e+04	4.170884e+03	0	9.048530e-04
9.400000e+08	1.722206e+13	0.000000e+00	5.063292e-01	3.740530e+14	1.106083e+15	2.598983e+14	1.313615e+04	1.150184e+04	4.165822e+03	0	8.987970e-04
9.500000e+08	1.688054e+13	0.000000e+00	5.063292e-01	3.697464e+14	1.098629e+15	2.587198e+14	1.311360e+04	1.148792e+04	4.160780e+03	0	8.928162e-04
9.600000e+08	1.654763e+13	0.000000e+00	5.063292e-01	3.655442e+14	1.091242e+15	2.575493e+14	1.309131e+04	1.147406e+04	4.155760e+03	0	8.869080e-04
9.700000e+08	1.622300e+13	0.000000e+00	5.063292e-01	3.614426e+14	1.083923e+15	2.563868e+14	1.306927e+04	1.146026e+04	4.150760e+03	0	8.810698e-04
9.800000e+08	1.590632e+13	0.000000e+00	5.063292e-01	3.574376e+14	1.076671e+15	2.552321e+14	1.304747e+04	1.144651e+04	4.145783e+03	0	8.752992e-04
9.900000e+08	1.559730e+13	0.000000e+00	5.063292e-01	3.535258e+14	1.069486e+15	2.540854e+14	1.302592e+04	1.143283e+04	4.140827e+03	0	8.695938e-04
1.000000e+09	1.529566e+13	0.000000e+00	5.063292e-01	3.497036e+14	1.062369e+15	2.529464e+14	1.300460e+04	1.141921e+04	4.135894e+03	0	8.639514e-04
1.010000e+09	1.500111e+13	0.000000e+00	5.063292e-01	3.459679e+14	1.055319e+15	2.518151e+14	1.298351e+04	1.140565e+04	4.130984e+03	0	8.583698e-04
1.020000e+09	1.471341e+13	0.000000e+00	5.063292e-01	3.423155e+14	1.048336e+15	2.506915e+14	1.296264e+04	1.139216e+04	4.126097e+03	0	8.528469e-04
1.030000e+09	1.443231e+13	0.000000e+00	5.063292e-01	3.387434e+14	1.041420e+15	2.495755e+14	1.294199e+04	1.137873e+04	4.121234e+03	0	8.473807e-04
1.040000e+09	1.415757e+13	0.000000e+00	5.063292e-01	3.352489e+14	1.034571e+15	2.484671e+14	1.292156e+04	1.136537e+04	4.116394e+03	0	8.419693e-04
1.050000e+09	1.388898e+13	0.000000e+00	5.063292e-01	3.318293e+14	1.027788e+15	2.473661e+14	1.290134e+04	1.135207e+04	4.111578e+03	0	8.366106e-04
1.060000e+09	1.362631e+13	0.000000e+00	5.063292e-01	3.284820e+14	1.021071e+15	2.462726e+14	1.288132e+04	1.133884e+04	4.106786e+03	0	8.313031e-04
1.070000e+09	1.336937e+13	0.000000e+00	5.063292e-01	3.252046e+14	1.014420e+15	2.451864e+14	1.286150e+04	1.132568e+04	4.102018e+03	0	8.260447e-04
1.080000e+09	1.311795e+13	0.000000e+00	5.063292e-01	3.219947e+14	1.007834e+15	2.441076e+14	1.284188e+04	1.131258e+04	4.097274e+03	0	8.208340e-04
1.090000e+09	1.287189e+13	0.000000e+00	5.063292e-01	3.188502e+14	1.001313e+15	2.430359e+14	1.282245e+04	1.129955e+04	4.092555e+03	0	8.156692e-04
1.100000e+09	1.263099e+13	0.000000e+00	5.063292e-01	3.157688e+14	9.948559e+14	2.419715e+14	1.280321e+04	1.128659e+04	4.087860e+03	0	8.105487e-04
1.110000e+09	1.239509e+13	0.000000e+00	5.063292e-01	3.127486e+14	9.884628e+14	2.409143e+14	1.278416e+04	1.127369e+04	4.083190e+03	0	8.054710e-04
1.120000e+09	1.216403e+13	0.000000e+00	5.063292e-01	3.097876e+14	9.821333e+14	2.398641e+14	1.276528e+04	1.126087e+04	4.078545e+03	0	8.004346e-04
1.130000e+09	1.193766e+13	0.000000e+00	5.063292e-01	3.068839e+14	9.758668e+14	2.388209e+14	1.274659e+04	1.124811e+04	4.073923e+03	0	7.954380e-04
1.140000e+09	1.171582e+13	0.000000e+00	5.063292e-01	3.040358e+14	9.696629e+14	2.377847e+14	1.272806e+04	1.123542e+04	4.069327e+03	0	7.904799e-04
1.150000e+09	1.149837e+13	0.000000e+00	5.063292e-01	3.012416e+14	9.635204e+14	2.367554e+14	1.270971e+04	1.122280e+04	4.064755e+03	0	7.855589e-04
1.160000e+09	1.128519e+13	0.000000e+00	5.063292e-01	2.984995e+14	9.574396e+14	2.357330e+14	1.269153e+04	1.121024e+04	4.060208e+03	0	7.806737e-04
1.170000e+09	1.107613e+13	0.000000e+00	5.063292e-01	2.958081e+14	9.514194e+14	2.347174e+14	1.267351e+04	1.119776e+04	4.055686e+03	0	7.758229e-04
1.180000e+09	1.087107e+13	0.000000e+00	5.063292e-01	2.931659e+14	9.454594e+14	2.337086e+14	1.265565e+04	1.118534e+04	4.051188e+03	0	7.710054e-04
1.190000e+09	1.066990e+13	0.000000e+00	5.063292e-01	2.905713e+14	9.395591e+14	2.327065e+14	1.263796e+04	1.117299e+04	4.046715e+03	0	7.662198e-04
1.200000e+09	1.047250e+13	0.000000e+00	5.063292e-01	2.880231e+14	9.337174e+14	2.317110e+14	1.262041e+04	1.116070e+04	4.042266e+03	0	7.614651e-04
1.210000e+09	1.027875e+13	0.000000e+00	5.063292e-01	2.855198e+14	9.279344e+14	2.307221e+14	1.260302e+04	1.114849e+04	4.037841e+03	0	7.567401e-04
1.220000e+09	1.008856e+13	0.000000e+00	5.063292e-01	2.830602e+14	9.222093e+14	2.297398e+14	1.258579e+04	1.113634e+04	4.033441e+03	0	7.520436e-04
1.230000e+09	9.901821e+12	0.000000e+00	5.063292e-01	2.806432e+14	9.165413e+14	2.287640e+14	1.256869e+04	1.112426e+04	4.029065e+03	0	7.473746e-04
1.240000e+09	9.718436e+12	0.000000e+00	5.063292e-01	2.782674e+14	9.109299e+14	2.277946e+14	1.255175e+04	1.111224e+04	4.024714e+03	0	7.427319e-04
1.250000e+09	9.538310e+12	0.000000e+00	5.063292e-01	2.759317e+14	9.053746e+14	2.268316e+14	1.253494e+04	1.110029e+04	4.020386e+03	0	7.381146e-04
1.260000e+09	9.361354e+12	0.000000e+00	5.063292e-01	2.736352e+14	8.998746e+14	2.258750e+14	1.251828e+04	1.108841e+04	4.016082e+03	0	7.335215e-04
1.270000e+09	9.187481e+12	0.000000e+00	5.063292e-01	2.713766e+14	8.944293e+14	2.249246e+14	1.250176e+04	1.107659e+04	4.011803e+03	0	7.289517e-04
1.280000e+09	9.016608e+12	0.000000e+00	5.063292e-01	2.691551e+14	8.890385e+14	2.239806e+14	1.248537e+04	1.106484e+04	4.007547e+03	0	7.244043e-04
1.290000e+09	8.848653e+12	0.000000e+00	5.063292e-01	2.669696e+14	8.837009e+14	2.230427e+14	1.246911e+04	1.105316e+04	4.003315e+03	0	7.198782e-04
1.300000e+09	8.683539e+12	0.000000e+00	5.063292e-01	2.648192e+14	8.784164e+14	2.221110e+14	1.245299e+04	1.104154e+04	3.999106e+03	0	7.153724e-04
1.310000e+09	8.521192e+12	0.000000e+00	5.063292e-01	2.627030e+14	8.731844e+14	2.211854e+14	1.243699e+04	1.102998e+04	3.994921e+03	0	7.108862e-04
1.320000e+09	8.361540e+12	0.000000e+00	5.063292e-01	2.606201e+14	8.680041e+14	2.202658e+14	1.242112e+04	1.101849e+04	3.990759e+03	0	7.064185e-04
1.330000e+09	8.204513e+12	0.000000e+00	5.063292e-01	2.585696e+14	8.628748e+14	2.193523e+14	1.240538e+04	1.100706e+04	3.986620e+03	0	7.019684e-04
1.340000e+09	8.050044e+12	0.000000e+00	5.063292e-01	2.565509e+14	8.577963e+14	2.184447e+14	1.238976e+04	1.099570e+04	3.982504e+03	0	6.975351e-04
1.350000e+09	7.898069e+12	0.000000e+00	5.063292e-01	2.545630e+14	8.527677e+14	2.175431e+14	1.237426e+04	1.098440e+04	3.978411e+03	0	6.931176e-04
1.360000e+09	7.748526e+12	0.000000e+00	5.063292e-01	2.526052e+14	8.477884e+14	2.166473e+14	1.235888e+04	1.097316e+04	3.974341e+03	0	6.887152e-04
