#t		Qconv[W]	Ri[Rp]		R*[Rp]		Qc[W]		Qm[W]		Qr[W]		Tcmb[K]		Tl[K]		Tup[K]		RiFlag		Bs[T]
0.000000e+00	1.502622e+15	0.000000e+00	5.063291e-01	1.747485e+16	6.962342e+13	4.394401e+14	2.665426e+04	7.596985e+03	2.726030e+03	0	3.979820e-03
1.000000e+07	1.334524e+15	0.000000e+00	5.063291e-01	1.554986e+16	1.097984e+14	4.370053e+14	2.571928e+04	8.101826e+03	2.907183e+03	0	3.825506e-03
2.000000e+07	1.190728e+15	0.000000e+00	5.063291e-01	1.390265e+16	1.586762e+14	4.345887e+14	2.488365e+04	8.550816e+03	3.068294e+03	0	3.682853e-03
3.000000e+07	1.066932e+15	0.000000e+00	5.063291e-01	1.248409e+16	2.149252e+14	4.321901e+14	2.413364e+04	8.951593e+03	3.212105e+03	0	3.550524e-03
4.000000e+07	9.597297e+14	0.000000e+00	5.063291e-01	1.125528e+16	2.770442e+14	4.298095e+14	2.345785e+04	9.310445e+03	3.340872e+03	0	3.427387e-03
5.000000e+07	8.663996e+14	0.000000e+00	5.063291e-01	1.018516e+16	3.435234e+14	4.274466e+14	2.284670e+04	9.632603e+03	3.456472e+03	0	3.312477e-03
6.000000e+07	7.847500e+14	0.000000e+00	5.063291e-01	9.248668e+15	4.129430e+14	4.251013e+14	2.229213e+04	9.922458e+03	3.560481e+03	0	3.204970e-03
7.000000e+07	7.129995e+14	0.000000e+00	5.063291e-01	8.425464e+15	4.840257e+14	4.227735e+14	2.178730e+04	1.018373e+04	3.654233e+03	0	3.104154e-03
8.000000e+07	6.496891e+14	0.000000e+00	5.063291e-01	7.698868e+15	5.556596e+14	4.204630e+14	2.132637e+04	1.041960e+04	3.738870e+03	0	3.009415e-03
9.000000e+07	5.936148e+14	0.000000e+00	5.063291e-01	7.055117e+15	6.269036e+14	4.181697e+14	2.090433e+04	1.063279e+04	3.815371e+03	0	2.920217e-03
1.000000e+08	5.437760e+14	0.000000e+00	5.063291e-01	6.482771e+15	6.969795e+14	4.158934e+14	2.051686e+04	1.082569e+04	3.884588e+03	0	2.836091e-03
1.100000e+08	4.993358e+14	0.000000e+00	5.063291e-01	5.972259e+15	7.652594e+14	4.136340e+14	2.016022e+04	1.100035e+04	3.947261e+03	0	2.756625e-03
1.200000e+08	4.595899e+14	0.000000e+00	5.063291e-01	5.515525e+15	8.312503e+14	4.113913e+14	1.983115e+04	1.115858e+04	4.004040e+03	0	2.681454e-03
1.300000e+08	4.239421e+14	0.000000e+00	5.063291e-01	5.105750e+15	8.945763e+14	4.091653e+14	1.952681e+04	1.130198e+04	4.055497e+03	0	2.610251e-03
1.400000e+08	3.918852e+14	0.000000e+00	5.063291e-01	4.737130e+15	9.549639e+14	4.069557e+14	1.924470e+04	1.143196e+04	4.102138e+03	0	2.542727e-03
1.500000e+08	3.629856e+14	0.000000e+00	5.063291e-01	4.404703e+15	1.012224e+15	4.047625e+14	1.898265e+04	1.154977e+04	4.144412e+03	0	2.478620e-03
1.600000e+08	3.368709e+14	0.000000e+00	5.063291e-01	4.104205e+15	1.066240e+15	4.025854e+14	1.873871e+04	1.165653e+04	4.182719e+03	0	2.417694e-03
1.700000e+08	3.132199e+14	0.000000e+00	5.063291e-01	3.831960e+15	1.116955e+15	4.004245e+14	1.851117e+04	1.175323e+04	4.217418e+03	0	2.359735e-03
1.800000e+08	2.917545e+14	0.000000e+00	5.063291e-01	3.584784e+15	1.164360e+15	3.982794e+14	1.829851e+04	1.184077e+04	4.248829e+03	0	2.304549e-03
1.900000e+08	2.722331e+14	0.000000e+00	5.063291e-01	3.359909e+15	1.208485e+15	3.961502e+14	1.809939e+04	1.191995e+04	4.277241e+03	0	2.251959e-03
2.000000e+08	2.544450e+14	0.000000e+00	5.063291e-01	3.154922e+15	1.249390e+15	3.940366e+14	1.791260e+04	1.199149e+04	4.302914e+03	0	2.201801e-03
2.100000e+08	2.382059e+14	0.000000e+00	5.063291e-01	2.967713e+15	1.287159e+15	3.919386e+14	1.773707e+04	1.205606e+04	4.326082e+03	0	2.153927e-03
2.200000e+08	2.233542e+14	0.000000e+00	5.063291e-01	2.796430e+15	1.321894e+15	3.898560e+14	1.757183e+04	1.211424e+04	4.346958e+03	0	2.108199e-03
2.300000e+08	2.097478e+14	0.000000e+00	5.063291e-01	2.639443e+15	1.353712e+15	3.877886e+14	1.741602e+04	1.216656e+04	4.365734e+03	0	2.064489e-03
2.400000e+08	1.972612e+14	0.000000e+00	5.063291e-01	2.495316e+15	1.382736e+15	3.857364e+14	1.726886e+04	1.221352e+04	4.382584e+03	0	2.022681e-03
2.500000e+08	1.857837e+14	0.000000e+00	5.063291e-01	2.362779e+15	1.409096e+15	3.836993e+14	1.712964e+04	1.225555e+04	4.397667e+03	0	1.982665e-03
2.600000e+08	1.752170e+14	0.000000e+00	5.063291e-01	2.240704e+15	1.432926e+15	3.816770e+14	1.699774e+04	1.229307e+04	4.411128e+03	0	1.944340e-03
2.700000e+08	1.654739e+14	0.000000e+00	5.063291e-01	2.128093e+15	1.454360e+15	3.796696e+14	1.687259e+04	1.232642e+04	4.423097e+03	0	1.907612e-03
2.800000e+08	1.564768e+14	0.000000e+00	5.063291e-01	2.024055e+15	1.473531e+15	3.776768e+14	1.675366e+04	1.235596e+04	4.433695e+03	0	1.872392e-03
2.900000e+08	1.481565e+14	0.000000e+00	5.063291e-01	1.927797e+15	1.490572e+15	3.756985e+14	1.664049e+04	1.238198e+04	4.443032e+03	0	1.838599e-03
3.000000e+08	1.404512e+14	0.000000e+00	5.063291e-01	1.838609e+15	1.505609e+15	3.737347e+14	1.653266e+04	1.240476e+04	4.451207e+03	0	1.806156e-03
3.100000e+08	1.333056e+14	0.000000e+00	5.063291e-01	1.755857e+15	1.518767e+15	3.717852e+14	1.642976e+04	1.242456e+04	4.458313e+03	0	1.774991e-03
3.200000e+08	1.266700e+14	0.000000e+00	5.063291e-01	1.678971e+15	1.530167e+15	3.698498e+14	1.633146e+04	1.244162e+04	4.464433e+03	0	1.745037e-03
3.300000e+08	1.205000e+14	0.000000e+00	5.063291e-01	1.607442e+15	1.539925e+15	3.679286e+14	1.623742e+04	1.245614e+04	4.469644e+03	0	1.716231e-03
3.400000e+08	1.147554e+14	0.000000e+00	5.063291e-01	1.540808e+15	1.548147e+15	3.660213e+14	1.614735e+04	1.246833e+04	4.474018e+03	0	1.688513e-03
3.500000e+08	1.094002e+14	0.000000e+00	5.063291e-01	1.478655e+15	1.554940e+15	3.641278e+14	1.606098e+04	1.247837e+04	4.477619e+03	0	1.661829e-03
3.600000e+08	1.044019e+14	0.000000e+00	5.063291e-01	1.420610e+15	1.560405e+15	3.622480e+14	1.597807e+04	1.248642e+04	4.480507e+03	0	1.636124e-03
3.700000e+08	9.973090e+13	0.000000e+00	5.063291e-01	1.366336e+15	1.564633e+15	3.603819e+14	1.589839e+04	1.249263e+04	4.482737e+03	0	1.611351e-03
3.800000e+08	9.536075e+13	0.000000e+00	5.063291e-01	1.315525e+15	1.567714e+15	3.585293e+14	1.582172e+04	1.249715e+04	4.484359e+03	0	1.587462e-03
3.900000e+08	9.126729e+13	0.000000e+00	5.063291e-01	1.267902e+15	1.569732e+15	3.566900e+14	1.574789e+04	1.250011e+04	4.485420e+03	0	1.564415e-03
4.000000e+08	8.742862e+13	0.000000e+00	5.063291e-01	1.223215e+15	1.570765e+15	3.548641e+14	1.567670e+04	1.250162e+04	4.485963e+03	0	1.542167e-03
4.100000e+08	8.382490e+13	0.000000e+00	5.063291e-01	1.181235e+15	1.570887e+15	3.530513e+14	1.560801e+04	1.250180e+04	4.486028e+03	0	1.520680e-03
4.200000e+08	8.043803e+13	0.000000e+00	5.063291e-01	1.141756e+15	1.570169e+15	3.512515e+14	1.554165e+04	1.250075e+04	4.485650e+03	0	1.499917e-03
4.300000e+08	7.725156e+13	0.000000e+00	5.063291e-01	1.104587e+15	1.568674e+15	3.494648e+14	1.547750e+04	1.249856e+04	4.484864e+03	0	1.479844e-03
4.400000e+08	7.425048e+13	0.000000e+00	5.063291e-01	1.069556e+15	1.566464e+15	3.476909e+14	1.541542e+04	1.249532e+04	4.483702e+03	0	1.460427e-03
4.500000e+08	7.142108e+13	0.000000e+00	5.063291e-01	1.036506e+15	1.563596e+15	3.459297e+14	1.535529e+04	1.249111e+04	4.482191e+03	0	1.441636e-03
4.600000e+08	6.875086e+13	0.000000e+00	5.063291e-01	1.005293e+15	1.560123e+15	3.441812e+14	1.529701e+04	1.248600e+04	4.480359e+03	0	1.423441e-03
4.700000e+08	6.622834e+13	0.000000e+00	5.063291e-01	9.757851e+14	1.556094e+15	3.424452e+14	1.524047e+04	1.248007e+04	4.478229e+03	0	1.405815e-03
4.800000e+08	6.384304e+13	0.000000e+00	5.063291e-01	9.478612e+14	1.551555e+15	3.407217e+14	1.518558e+04	1.247337e+04	4.475826e+03	0	1.388731e-03
4.900000e+08	6.158534e+13	0.000000e+00	5.063291e-01	9.214110e+14	1.546551e+15	3.390105e+14	1.513224e+04	1.246597e+04	4.473170e+03	0	1.372164e-03
5.000000e+08	5.944641e+13	0.000000e+00	5.063291e-01	8.963328e+14	1.541120e+15	3.373115e+14	1.508039e+04	1.245792e+04	4.470282e+03	0	1.356091e-03
5.100000e+08	5.741814e+13	0.000000e+00	5.063291e-01	8.725332e+14	1.535301e+15	3.356247e+14	1.502994e+04	1.244927e+04	4.467178e+03	0	1.340489e-03
5.200000e+08	5.549305e+13	0.000000e+00	5.063291e-01	8.499264e+14	1.529127e+15	3.339499e+14	1.498081e+04	1.244007e+04	4.463876e+03	0	1.325337e-03
5.300000e+08	5.366429e+13	0.000000e+00	5.063291e-01	8.284333e+14	1.522633e+15	3.322871e+14	1.493295e+04	1.243036e+04	4.460392e+03	0	1.310615e-03
5.400000e+08	5.192552e+13	0.000000e+00	5.063291e-01	8.079810e+14	1.515847e+15	3.306361e+14	1.488630e+04	1.242018e+04	4.456740e+03	0	1.296305e-03
5.500000e+08	5.027090e+13	0.000000e+00	5.063291e-01	7.885023e+14	1.508799e+15	3.289968e+14	1.484079e+04	1.240957e+04	4.452933e+03	0	1.282387e-03
5.600000e+08	4.869503e+13	0.000000e+00	5.063291e-01	7.699350e+14	1.501512e+15	3.273692e+14	1.479636e+04	1.239857e+04	4.448985e+03	0	1.268844e-03
5.700000e+08	4.719295e+13	0.000000e+00	5.063291e-01	7.522217e+14	1.494012e+15	3.257532e+14	1.475298e+04	1.238720e+04	4.444907e+03	0	1.255661e-03
5.800000e+08	4.576002e+13	0.000000e+00	5.063291e-01	7.353093e+14	1.486321e+15	3.241486e+14	1.471059e+04	1.237551e+04	4.440710e+03	0	1.242822e-03
5.900000e+08	4.439200e+13	0.000000e+00	5.063291e-01	7.191487e+14	1.478460e+15	3.225554e+14	1.466914e+04	1.236351e+04	4.436404e+03	0	1.230311e-03
6.000000e+08	4.308493e+13	0.000000e+00	5.063291e-01	7.036943e+14	1.470449e+15	3.209735e+14	1.462860e+04	1.235123e+04	4.431998e+03	0	1.218116e-03
6.100000e+08	4.183513e+13	0.000000e+00	5.063291e-01	6.889039e+14	1.462305e+15	3.194028e+14	1.458893e+04	1.233870e+04	4.427501e+03	0	1.206222e-03
6.200000e+08	4.063920e+13	0.000000e+00	5.063291e-01	6.747381e+14	1.454043e+15	3.178431e+14	1.455008e+04	1.232593e+04	4.422921e+03	0	1.194617e-03
6.300000e+08	3.949399e+13	0.000000e+00	5.063291e-01	6.611605e+14	1.445681e+15	3.162945e+14	1.451203e+04	1.231296e+04	4.418266e+03	0	1.183288e-03
6.400000e+08	3.839656e+13	0.000000e+00	5.063291e-01	6.481373e+14	1.437232e+15	3.147568e+14	1.447474e+04	1.229980e+04	4.413543e+03	0	1.172225e-03
6.500000e+08	3.734416e+13	0.000000e+00	5.063291e-01	6.356368e+14	1.428709e+15	3.132299e+14	1.443817e+04	1.228646e+04	4.408758e+03	0	1.161416e-03
6.600000e+08	3.633426e+13	0.000000e+00	5.063291e-01	6.236298e+14	1.420124e+15	3.117138e+14	1.440231e+04	1.227297e+04	4.403917e+03	0	1.150851e-03
6.700000e+08	3.536447e+13	0.000000e+00	5.063291e-01	6.120888e+14	1.411489e+15	3.102083e+14	1.436713e+04	1.225934e+04	4.399026e+03	0	1.140519e-03
6.800000e+08	3.443260e+13	0.000000e+00	5.063291e-01	6.009882e+14	1.402813e+15	3.087134e+14	1.433259e+04	1.224559e+04	4.394091e+03	0	1.130412e-03
6.900000e+08	3.353657e+13	0.000000e+00	5.063291e-01	5.903043e+14	1.394108e+15	3.072290e+14	1.429867e+04	1.223173e+04	4.389117e+03	0	1.120520e-03
7.000000e+08	3.267445e+13	0.000000e+00	5.063291e-01	5.800148e+14	1.385380e+15	3.057550e+14	1.426535e+04	1.221776e+04	4.384107e+03	0	1.110835e-03
7.100000e+08	3.184443e+13	0.000000e+00	5.063291e-01	5.700987e+14	1.376639e+15	3.042914e+14	1.423261e+04	1.220372e+04	4.379066e+03	0	1.101348e-03
7.200000e+08	3.104485e+13	0.000000e+00	5.063291e-01	5.605368e+14	1.367893e+15	3.028379e+14	1.420042e+04	1.218960e+04	4.373999e+03	0	1.092052e-03
7.300000e+08	3.027411e+13	0.000000e+00	5.063291e-01	5.513106e+14	1.359146e+15	3.013946e+14	1.416877e+04	1.217541e+04	4.368909e+03	0	1.082939e-03
7.400000e+08	2.953073e+13	0.000000e+00	5.063291e-01	5.424033e+14	1.350408e+15	2.999614e+14	1.413764e+04	1.216117e+04	4.363799e+03	0	1.074002e-03
7.500000e+08	2.881334e+13	0.000000e+00	5.063291e-01	5.337986e+14	1.341682e+15	2.985382e+14	1.410701e+04	1.214688e+04	4.358673e+03	0	1.065233e-03
7.600000e+08	2.812063e+13	0.000000e+00	5.063291e-01	5.254816e+14	1.332975e+15	2.971249e+14	1.407686e+04	1.213256e+04	4.353534e+03	0	1.056627e-03
7.700000e+08	2.745139e+13	0.000000e+00	5.063291e-01	5.174383e+14	1.324291e+15	2.957214e+14	1.404718e+04	1.211821e+04	4.348384e+03	0	1.048178e-03
7.800000e+08	2.680446e+13	0.000000e+00	5.063291e-01	5.096553e+14	1.315635e+15	2.943277e+14	1.401795e+04	1.210384e+04	4.343226e+03	0	1.039878e-03
7.900000e+08	2.617877e+13	0.000000e+00	5.063291e-01	5.021202e+14	1.307012e+15	2.929437e+14	1.398916e+04	1.208945e+04	4.338063e+03	0	1.031723e-03
8.000000e+08	2.557332e+13	0.000000e+00	5.063291e-01	4.948214e+14	1.298424e+15	2.915692e+14	1.396079e+04	1.207505e+04	4.332897e+03	0	1.023707e-03
8.100000e+08	2.498714e+13	0.000000e+00	5.063291e-01	4.877477e+14	1.289875e+15	2.902043e+14	1.393283e+04	1.206065e+04	4.327730e+03	0	1.015825e-03
8.200000e+08	2.441934e+13	0.000000e+00	5.063291e-01	4.808888e+14	1.281369e+15	2.888488e+14	1.390527e+04	1.204625e+04	4.322564e+03	0	1.008072e-03
8.300000e+08	2.386908e+13	0.000000e+00	5.063291e-01	4.742350e+14	1.272909e+15	2.875027e+14	1.387809e+04	1.203186e+04	4.317400e+03	0	1.000442e-03
8.400000e+08	2.333556e+13	0.000000e+00	5.063291e-01	4.677769e+14	1.264496e+15	2.861659e+14	1.385129e+04	1.201749e+04	4.312241e+03	0	9.929321e-04
8.500000e+08	2.281803e+13	0.000000e+00	5.063291e-01	4.615060e+14	1.256134e+15	2.848384e+14	1.382485e+04	1.200313e+04	4.307088e+03	0	9.855368e-04
8.600000e+08	2.231577e+13	0.000000e+00	5.063291e-01	4.554139e+14	1.247824e+15	2.835199e+14	1.379876e+04	1.198879e+04	4.301943e+03	0	9.782522e-04
8.700000e+08	2.182814e+13	0.000000e+00	5.063291e-01	4.494930e+14	1.239568e+15	2.822106e+14	1.377301e+04	1.197447e+04	4.296806e+03	0	9.710741e-04
8.800000e+08	2.135448e+13	0.000000e+00	5.063291e-01	4.437360e+14	1.231368e+15	2.809102e+14	1.374760e+04	1.196019e+04	4.291680e+03	0	9.639987e-04
8.900000e+08	2.089420e+13	0.000000e+00	5.063291e-01	4.381358e+14	1.223226e+15	2.796188e+14	1.372251e+04	1.194593e+04	4.286565e+03	0	9.570223e-04
9.000000e+08	2.044674e+13	0.000000e+00	5.063291e-01	4.326859e+14	1.215143e+15	2.783363e+14	1.369774e+04	1.193171e+04	4.281462e+03	0	9.501412e-04
9.100000e+08	2.001156e+13	0.000000e+00	5.063291e-01	4.273802e+14	1.207120e+15	2.770625e+14	1.367327e+04	1.191753e+04	4.276373e+03	0	9.433520e-04
9.200000e+08	1.958815e+13	0.000000e+00	5.063291e-01	4.222127e+14	1.199157e+15	2.757975e+14	1.364910e+04	1.190339e+04	4.271299e+03	0	9.366514e-04
9.300000e+08	1.917604e+13	0.000000e+00	5.063291e-01	4.171779e+14	1.191257e+15	2.745411e+14	1.362522e+04	1.188929e+04	4.266240e+03	0	9.300362e-04
9.400000e+08	1.877477e+13	0.000000e+00	5.063291e-01	4.122704e+14	1.183420e+15	2.732933e+14	1.360163e+04	1.187523e+04	4.261196e+03	0	9.235032e-04
9.500000e+08	1.838391e+13	0.000000e+00	5.063291e-01	4.074854e+14	1.175646e+15	2.720540e+14	1.357831e+04	1.186122e+04	4.256170e+03	0	9.170496e-04
9.600000e+08	1.800305e+13	0.000000e+00	5.063291e-01	4.028180e+14	1.167937e+15	2.708232e+14	1.355525e+04	1.184727e+04	4.251161e+03	0	9.106725e-04
9.700000e+08	1.763180e+13	0.000000e+00	5.063291e-01	3.982636e+14	1.160291e+15	2.696008e+14	1.353247e+04	1.183336e+04	4.246170e+03	0	9.043691e-04
9.800000e+08	1.726979e+13	0.000000e+00	5.063291e-01	3.938181e+14	1.152711e+15	2.683867e+14	1.350993e+04	1.181950e+04	4.241198e+03	0	8.981368e-04
9.900000e+08	1.691667e+13	0.000000e+00	5.063291e-01	3.894774e+14	1.145197e+15	2.671808e+14	1.348765e+04	1.180570e+04	4.236245e+03	0	8.919731e-04
1.000000e+09	1.657210e+13	0.000000e+00	5.063291e-01	3.852375e+14	1.137747e+15	2.659831e+14	1.346562e+04	1.179195e+04	4.231312e+03	0	8.858755e-04
1.010000e+09	1.623578e+13	0.000000e+00	5.063291e-01	3.810947e+14	1.130363e+15	2.647935e+14	1.344382e+04	1.177826e+04	4.226399e+03	0	8.798417e-04
1.020000e+09	1.590739e+13	0.000000e+00	5.063291e-01	3.770457e+14	1.123044e+15	2.636120e+14	1.342225e+04	1.176462e+04	4.221506e+03	0	8.738692e-04
1.030000e+09	1.558665e+13	0.000000e+00	5.063291e-01	3.730869e+14	1.115792e+15	2.624385e+14	1.340091e+04	1.175105e+04	4.216635e+03	0	8.679561e-04
1.040000e+09	1.527328e+13	0.000000e+00	5.063291e-01	3.692152e+14	1.108605e+15	2.612729e+14	1.337980e+04	1.173753e+04	4.211784e+03	0	8.621000e-04
1.050000e+09	1.496703e+13	0.000000e+00	5.063291e-01	3.654276e+14	1.101483e+15	2.601152e+14	1.335890e+04	1.172407e+04	4.206956e+03	0	8.562989e-04
1.060000e+09	1.466765e+13	0.000000e+00	5.063291e-01	3.617212e+14	1.094427e+15	2.589653e+14	1.333821e+04	1.171068e+04	4.202149e+03	0	8.505509e-04
1.070000e+09	1.437489e+13	0.000000e+00	5.063291e-01	3.580932e+14	1.087436e+15	2.578232e+14	1.331774e+04	1.169734e+04	4.197364e+03	0	8.448539e-04
1.080000e+09	1.408853e+13	0.000000e+00	5.063291e-01	3.545409e+14	1.080509e+15	2.566887e+14	1.329747e+04	1.168407e+04	4.192601e+03	0	8.392062e-04
1.090000e+09	1.380835e+13	0.000000e+00	5.063291e-01	3.510618e+14	1.073648e+15	2.555619e+14	1.327740e+04	1.167086e+04	4.187861e+03	0	8.336059e-04
1.100000e+09	1.353415e+13	0.000000e+00	5.063291e-01	3.476536e+14	1.066851e+15	2.544426e+14	1.325752e+04	1.165771e+04	4.183144e+03	0	8.280512e-04
1.110000e+09	1.326574e+13	0.000000e+00	5.063291e-01	3.443139e+14	1.060117e+15	2.533308e+14	1.323784e+04	1.164463e+04	4.178449e+03	0	8.225405e-04
1.120000e+09	1.300291e+13	0.000000e+00	5.063291e-01	3.410406e+14	1.053448e+15	2.522265e+14	1.321834e+04	1.163161e+04	4.173777e+03	0	8.170720e-04
1.130000e+09	1.274549e+13	0.000000e+00	5.063291e-01	3.378314e+14	1.046842e+15	2.511296e+14	1.319903e+04	1.161866e+04	4.169128e+03	0	8.116441e-04
1.140000e+09	1.249331e+13	0.000000e+00	5.063291e-01	3.346844e+14	1.040298e+15	2.500400e+14	1.317990e+04	1.160576e+04	4.164503e+03	0	8.062554e-04
1.150000e+09	1.224619e+13	0.000000e+00	5.063291e-01	3.315976e+14	1.033817e+15	2.489577e+14	1.316095e+04	1.159294e+04	4.159900e+03	0	8.009041e-04
1.160000e+09	1.200400e+13	0.000000e+00	5.063291e-01	3.285693e+14	1.027398e+15	2.478826e+14	1.314217e+04	1.158018e+04	4.155321e+03	0	7.955890e-04
1.170000e+09	1.176656e+13	0.000000e+00	5.063291e-01	3.255976e+14	1.021041e+15	2.468146e+14	1.312356e+04	1.156748e+04	4.150765e+03	0	7.903085e-04
1.180000e+09	1.153373e+13	0.000000e+00	5.063291e-01	3.226808e+14	1.014745e+15	2.457538e+14	1.310512e+04	1.155485e+04	4.146232e+03	0	7.850611e-04
1.190000e+09	1.130539e+13	0.000000e+00	5.063291e-01	3.198172e+14	1.008509e+15	2.447000e+14	1.308684e+04	1.154228e+04	4.141723e+03	0	7.798456e-04
1.200000e+09	1.108138e+13	0.000000e+00	5.063291e-01	3.170054e+14	1.002333e+15	2.436532e+14	1.306873e+04	1.152978e+04	4.137236e+03	0	7.746605e-04
1.210000e+09	1.086158e+13	0.000000e+00	5.063291e-01	3.142439e+14	9.962163e+14	2.426134e+14	1.305077e+04	1.151734e+04	4.132773e+03	0	7.695046e-04
1.220000e+09	1.064588e+13	0.000000e+00	5.063291e-01	3.115310e+14	9.901591e+14	2.415804e+14	1.303297e+04	1.150497e+04	4.128334e+03	0	7.643765e-04
1.230000e+09	1.043414e+13	0.000000e+00	5.063291e-01	3.088656e+14	9.841601e+14	2.405543e+14	1.301532e+04	1.149266e+04	4.123917e+03	0	7.592750e-04
1.240000e+09	1.022627e+13	0.000000e+00	5.063291e-01	3.062462e+14	9.782189e+14	2.395350e+14	1.299782e+04	1.148042e+04	4.119524e+03	0	7.541989e-04
1.250000e+09	1.002214e+13	0.000000e+00	5.063291e-01	3.036716e+14	9.723350e+14	2.385224e+14	1.298047e+04	1.146824e+04	4.115154e+03	0	7.491468e-04
1.260000e+09	9.821650e+12	0.000000e+00	5.063291e-01	3.011405e+14	9.665081e+14	2.375164e+14	1.296326e+04	1.145612e+04	4.110807e+03	0	7.441177e-04
1.270000e+09	9.624704e+12	0.000000e+00	5.063291e-01	2.986518e+14	9.607375e+14	2.365171e+14	1.294620e+04	1.144407e+04	4.106483e+03	0	7.391104e-04
1.280000e+09	9.431202e+12	0.000000e+00	5.063291e-01	2.962043e+14	9.550223e+14	2.355244e+14	1.292928e+04	1.143209e+04	4.102182e+03	0	7.341236e-04
1.290000e+09	9.241050e+12	0.000000e+00	5.063291e-01	2.937969e+14	9.493622e+14	2.345382e+14	1.291249e+04	1.142016e+04	4.097904e+03	0	7.291562e-04
1.300000e+09	9.054158e+12	0.000000e+00	5.063291e-01	2.914285e+14	9.437568e+14	2.335584e+14	1.289584e+04	1.140831e+04	4.093649e+03	0	7.242072e-04
1.310000e+09	8.870440e+12	0.000000e+00	5.063291e-01	2.890982e+14	9.382051e+14	2.325851e+14	1.287933e+04	1.139651e+04	4.089416e+03	0	7.192754e-04
1.320000e+09	8.689810e+12	0.000000e+00	5.063291e-01	2.868049e+14	9.327068e+14	2.316182e+14	1.286294e+04	1.138478e+04	4.085206e+03	0	7.143597e-04
1.330000e+09	8.512190e+12	0.000000e+00	5.063291e-01	2.845478e+14	9.272616e+14	2.306576e+14	1.284669e+04	1.137311e+04	4.081018e+03	0	7.094589e-04
1.340000e+09	8.337500e+12	0.000000e+00	5.063291e-01	2.823258e+14	9.218683e+14	2.297032e+14	1.283056e+04	1.136150e+04	4.076853e+03	0	7.045721e-04
1.350000e+09	8.165667e+12	0.000000e+00	5.063291e-01	2.801381e+14	9.165270e+14	2.287551e+14	1.281456e+04	1.134995e+04	4.072710e+03	0	6.996981e-04
1.360000e+09	7.996617e+12	0.000000e+00	5.063291e-01	2.779839e+14	9.112366e+14	2.278132e+14	1.279868e+04	1.133847e+04	4.068590e+03	0	6.948359e-04
