#t		Qconv[W]	Ri[Rp]		R*[Rp]		Qc[W]		Qm[W]		Qr[W]		Tcmb[K]		Tl[K]		Tup[K]		RiFlag		Bs[T]
0.000000e+00	1.553193e+15	0.000000e+00	5.063292e-01	1.780329e+16	6.868054e+13	4.502018e+14	2.699327e+04	7.666983e+03	2.738827e+03	0	4.020870e-03
1.000000e+07	1.383499e+15	0.000000e+00	5.063292e-01	1.588942e+16	1.079115e+14	4.477074e+14	2.606841e+04	8.169999e+03	2.918517e+03	0	3.868755e-03
2.000000e+07	1.237732e+15	0.000000e+00	5.063292e-01	1.424486e+16	1.557110e+14	4.452316e+14	2.523952e+04	8.618742e+03	3.078818e+03	0	3.727809e-03
3.000000e+07	1.111758e+15	0.000000e+00	5.063292e-01	1.282316e+16	2.108573e+14	4.427743e+14	2.449366e+04	9.020450e+03	3.222318e+03	0	3.596789e-03
4.000000e+07	1.002286e+15	0.000000e+00	5.063292e-01	1.158731e+16	2.719451e+14	4.403353e+14	2.382001e+04	9.381110e+03	3.351154e+03	0	3.474632e-03
5.000000e+07	9.066728e+14	0.000000e+00	5.063292e-01	1.050757e+16	3.375405e+14	4.379146e+14	2.320948e+04	9.705723e+03	3.467114e+03	0	3.360432e-03
6.000000e+07	8.227754e+14	0.000000e+00	5.063292e-01	9.559830e+15	4.062771e+14	4.355119e+14	2.265436e+04	9.998507e+03	3.571703e+03	0	3.253409e-03
7.000000e+07	7.488448e+14	0.000000e+00	5.063292e-01	8.724418e+15	4.769107e+14	4.331271e+14	2.214810e+04	1.026305e+04	3.666203e+03	0	3.152890e-03
8.000000e+07	6.834419e+14	0.000000e+00	5.063292e-01	7.985134e+15	5.483460e+14	4.307600e+14	2.168507e+04	1.050242e+04	3.751713e+03	0	3.058290e-03
9.000000e+07	6.253740e+14	0.000000e+00	5.063292e-01	7.328553e+15	6.196445e+14	4.284105e+14	2.126044e+04	1.071928e+04	3.829179e+03	0	2.969100e-03
1.000000e+08	5.736463e+14	0.000000e+00	5.063292e-01	6.743474e+15	6.900204e+14	4.260785e+14	2.087001e+04	1.091592e+04	3.899426e+03	0	2.884870e-03
1.100000e+08	5.274234e+14	0.000000e+00	5.063292e-01	6.220490e+15	7.588316e+14	4.237637e+14	2.051016e+04	1.109438e+04	3.963173e+03	0	2.805205e-03
1.200000e+08	4.860002e+14	0.000000e+00	5.063292e-01	5.751656e+15	8.255651e+14	4.214662e+14	2.017771e+04	1.125640e+04	4.021053e+03	0	2.729755e-03
1.300000e+08	4.487777e+14	0.000000e+00	5.063292e-01	5.330228e+15	8.898232e+14	4.191856e+14	1.986989e+04	1.140357e+04	4.073624e+03	0	2.658206e-03
1.400000e+08	4.152449e+14	0.000000e+00	5.063292e-01	4.950445e+15	9.513075e+14	4.169219e+14	1.958425e+04	1.153726e+04	4.121382e+03	0	2.590278e-03
1.500000e+08	3.849638e+14	0.000000e+00	5.063292e-01	4.607371e+15	1.009805e+15	4.146750e+14	1.931864e+04	1.165871e+04	4.164767e+03	0	2.525718e-03
1.600000e+08	3.575569e+14	0.000000e+00	5.063292e-01	4.296752e+15	1.065177e+15	4.124446e+14	1.907117e+04	1.176902e+04	4.204172e+03	0	2.464298e-03
1.700000e+08	3.326981e+14	0.000000e+00	5.063292e-01	4.014911e+15	1.117342e+15	4.102307e+14	1.884014e+04	1.186918e+04	4.239950e+03	0	2.405812e-03
1.800000e+08	3.101042e+14	0.000000e+00	5.063292e-01	3.758654e+15	1.166270e+15	4.080331e+14	1.862406e+04	1.196007e+04	4.272419e+03	0	2.350070e-03
1.900000e+08	2.895285e+14	0.000000e+00	5.063292e-01	3.525201e+15	1.211973e+15	4.058518e+14	1.842158e+04	1.204249e+04	4.301863e+03	0	2.296899e-03
2.000000e+08	2.707557e+14	0.000000e+00	5.063292e-01	3.312120e+15	1.254493e+15	4.036864e+14	1.823153e+04	1.211717e+04	4.328539e+03	0	2.246143e-03
2.100000e+08	2.535967e+14	0.000000e+00	5.063292e-01	3.117281e+15	1.293898e+15	4.015370e+14	1.805282e+04	1.218475e+04	4.352681e+03	0	2.197654e-03
2.200000e+08	2.378857e+14	0.000000e+00	5.063292e-01	2.938810e+15	1.330278e+15	3.994034e+14	1.788450e+04	1.224583e+04	4.374500e+03	0	2.151300e-03
2.300000e+08	2.234763e+14	0.000000e+00	5.063292e-01	2.775057e+15	1.363735e+15	3.972854e+14	1.772570e+04	1.230094e+04	4.394186e+03	0	2.106955e-03
2.400000e+08	2.102391e+14	0.000000e+00	5.063292e-01	2.624561e+15	1.394383e+15	3.951830e+14	1.757566e+04	1.235057e+04	4.411915e+03	0	2.064505e-03
2.500000e+08	1.980598e+14	0.000000e+00	5.063292e-01	2.486032e+15	1.422343e+15	3.930959e+14	1.743366e+04	1.239516e+04	4.427844e+03	0	2.023844e-03
2.600000e+08	1.868366e+14	0.000000e+00	5.063292e-01	2.358320e+15	1.447742e+15	3.910242e+14	1.729909e+04	1.243512e+04	4.442119e+03	0	1.984870e-03
2.700000e+08	1.764792e+14	0.000000e+00	5.063292e-01	2.240405e+15	1.470708e+15	3.889675e+14	1.717135e+04	1.247082e+04	4.454870e+03	0	1.947493e-03
2.800000e+08	1.669069e+14	0.000000e+00	5.063292e-01	2.131377e+15	1.491368e+15	3.869260e+14	1.704994e+04	1.250259e+04	4.466219e+03	0	1.911626e-03
2.900000e+08	1.580478e+14	0.000000e+00	5.063292e-01	2.030424e+15	1.509851e+15	3.848993e+14	1.693438e+04	1.253074e+04	4.476276e+03	0	1.877188e-03
3.000000e+08	1.498376e+14	0.000000e+00	5.063292e-01	1.936817e+15	1.526281e+15	3.828873e+14	1.682424e+04	1.255556e+04	4.485142e+03	0	1.844103e-03
3.100000e+08	1.422184e+14	0.000000e+00	5.063292e-01	1.849905e+15	1.540782e+15	3.808901e+14	1.671913e+04	1.257730e+04	4.492908e+03	0	1.812300e-03
3.200000e+08	1.351386e+14	0.000000e+00	5.063292e-01	1.769101e+15	1.553469e+15	3.789073e+14	1.661870e+04	1.259620e+04	4.499661e+03	0	1.781714e-03
3.300000e+08	1.285515e+14	0.000000e+00	5.063292e-01	1.693881e+15	1.564459e+15	3.769390e+14	1.652261e+04	1.261249e+04	4.505478e+03	0	1.752282e-03
3.400000e+08	1.224151e+14	0.000000e+00	5.063292e-01	1.623769e+15	1.573860e+15	3.749850e+14	1.643058e+04	1.262635e+04	4.510431e+03	0	1.723944e-03
3.500000e+08	1.166917e+14	0.000000e+00	5.063292e-01	1.558337e+15	1.581777e+15	3.730451e+14	1.634232e+04	1.263798e+04	4.514585e+03	0	1.696647e-03
3.600000e+08	1.113469e+14	0.000000e+00	5.063292e-01	1.497200e+15	1.588310e+15	3.711193e+14	1.625759e+04	1.264754e+04	4.518001e+03	0	1.670338e-03
3.700000e+08	1.063500e+14	0.000000e+00	5.063292e-01	1.440007e+15	1.593552e+15	3.692075e+14	1.617616e+04	1.265520e+04	4.520736e+03	0	1.644968e-03
3.800000e+08	1.016729e+14	0.000000e+00	5.063292e-01	1.386441e+15	1.597594e+15	3.673095e+14	1.609781e+04	1.266109e+04	4.522840e+03	0	1.620491e-03
3.900000e+08	9.729013e+13	0.000000e+00	5.063292e-01	1.336215e+15	1.600521e+15	3.654252e+14	1.602235e+04	1.266534e+04	4.524360e+03	0	1.596863e-03
4.000000e+08	9.317869e+13	0.000000e+00	5.063292e-01	1.289068e+15	1.602411e+15	3.635545e+14	1.594961e+04	1.266809e+04	4.525342e+03	0	1.574045e-03
4.100000e+08	8.931760e+13	0.000000e+00	5.063292e-01	1.244763e+15	1.603342e+15	3.616974e+14	1.587941e+04	1.266944e+04	4.525825e+03	0	1.551996e-03
4.200000e+08	8.568773e+13	0.000000e+00	5.063292e-01	1.203083e+15	1.603383e+15	3.598536e+14	1.581160e+04	1.266950e+04	4.525846e+03	0	1.530680e-03
4.300000e+08	8.227167e+13	0.000000e+00	5.063292e-01	1.163832e+15	1.602602e+15	3.580230e+14	1.574605e+04	1.266837e+04	4.525441e+03	0	1.510063e-03
4.400000e+08	7.905355e+13	0.000000e+00	5.063292e-01	1.126829e+15	1.601061e+15	3.562057e+14	1.568263e+04	1.266613e+04	4.524641e+03	0	1.490111e-03
4.500000e+08	7.601883e+13	0.000000e+00	5.063292e-01	1.091910e+15	1.598817e+15	3.544014e+14	1.562120e+04	1.266287e+04	4.523476e+03	0	1.470794e-03
4.600000e+08	7.315424e+13	0.000000e+00	5.063292e-01	1.058924e+15	1.595927e+15	3.526101e+14	1.556166e+04	1.265866e+04	4.521972e+03	0	1.452083e-03
4.700000e+08	7.044762e+13	0.000000e+00	5.063292e-01	1.027735e+15	1.592441e+15	3.508316e+14	1.550391e+04	1.265358e+04	4.520157e+03	0	1.433949e-03
4.800000e+08	6.788782e+13	0.000000e+00	5.063292e-01	9.982151e+14	1.588408e+15	3.490658e+14	1.544785e+04	1.264769e+04	4.518052e+03	0	1.416366e-03
4.900000e+08	6.546461e+13	0.000000e+00	5.063292e-01	9.702489e+14	1.583871e+15	3.473127e+14	1.539339e+04	1.264105e+04	4.515681e+03	0	1.399309e-03
5.000000e+08	6.316861e+13	0.000000e+00	5.063292e-01	9.437300e+14	1.578873e+15	3.455722e+14	1.534044e+04	1.263372e+04	4.513063e+03	0	1.382755e-03
5.100000e+08	6.099117e+13	0.000000e+00	5.063292e-01	9.185606e+14	1.573453e+15	3.438440e+14	1.528893e+04	1.262575e+04	4.510217e+03	0	1.366681e-03
5.200000e+08	5.892434e+13	0.000000e+00	5.063292e-01	8.946504e+14	1.567647e+15	3.421282e+14	1.523879e+04	1.261719e+04	4.507160e+03	0	1.351066e-03
5.300000e+08	5.696081e+13	0.000000e+00	5.063292e-01	8.719165e+14	1.561490e+15	3.404247e+14	1.518994e+04	1.260809e+04	4.503909e+03	0	1.335889e-03
5.400000e+08	5.509381e+13	0.000000e+00	5.063292e-01	8.502823e+14	1.555011e+15	3.387332e+14	1.514232e+04	1.259849e+04	4.500479e+03	0	1.321131e-03
5.500000e+08	5.331711e+13	0.000000e+00	5.063292e-01	8.296771e+14	1.548242e+15	3.370538e+14	1.509588e+04	1.258843e+04	4.496884e+03	0	1.306774e-03
5.600000e+08	5.162496e+13	0.000000e+00	5.063292e-01	8.100355e+14	1.541209e+15	3.353864e+14	1.505056e+04	1.257794e+04	4.493137e+03	0	1.292800e-03
5.700000e+08	5.001203e+13	0.000000e+00	5.063292e-01	7.912972e+14	1.533938e+15	3.337308e+14	1.500630e+04	1.256706e+04	4.489250e+03	0	1.279194e-03
5.800000e+08	4.847339e+13	0.000000e+00	5.063292e-01	7.734063e+14	1.526452e+15	3.320869e+14	1.496306e+04	1.255581e+04	4.485234e+03	0	1.265939e-03
5.900000e+08	4.700448e+13	0.000000e+00	5.063292e-01	7.563109e+14	1.518774e+15	3.304547e+14	1.492079e+04	1.254424e+04	4.481099e+03	0	1.253020e-03
6.000000e+08	4.560107e+13	0.000000e+00	5.063292e-01	7.399630e+14	1.510924e+15	3.288340e+14	1.487945e+04	1.253237e+04	4.476857e+03	0	1.240423e-03
6.100000e+08	4.425923e+13	0.000000e+00	5.063292e-01	7.243181e+14	1.502920e+15	3.272248e+14	1.483899e+04	1.252021e+04	4.472515e+03	0	1.228135e-03
6.200000e+08	4.297532e+13	0.000000e+00	5.063292e-01	7.093347e+14	1.494780e+15	3.256270e+14	1.479939e+04	1.250780e+04	4.468083e+03	0	1.216143e-03
6.300000e+08	4.174594e+13	0.000000e+00	5.063292e-01	6.949744e+14	1.486522e+15	3.240404e+14	1.476060e+04	1.249516e+04	4.463567e+03	0	1.204434e-03
6.400000e+08	4.056795e+13	0.000000e+00	5.063292e-01	6.812013e+14	1.478158e+15	3.224651e+14	1.472259e+04	1.248231e+04	4.458976e+03	0	1.192997e-03
6.500000e+08	3.943842e+13	0.000000e+00	5.063292e-01	6.679823e+14	1.469706e+15	3.209008e+14	1.468533e+04	1.246927e+04	4.454317e+03	0	1.181820e-03
6.600000e+08	3.835461e+13	0.000000e+00	5.063292e-01	6.552861e+14	1.461175e+15	3.193476e+14	1.464879e+04	1.245605e+04	4.449595e+03	0	1.170893e-03
6.700000e+08	3.731397e+13	0.000000e+00	5.063292e-01	6.430839e+14	1.452580e+15	3.178052e+14	1.461294e+04	1.244267e+04	4.444817e+03	0	1.160207e-03
6.800000e+08	3.631413e+13	0.000000e+00	5.063292e-01	6.313487e+14	1.443931e+15	3.162737e+14	1.457775e+04	1.242916e+04	4.439989e+03	0	1.149750e-03
6.900000e+08	3.535287e+13	0.000000e+00	5.063292e-01	6.200551e+14	1.435239e+15	3.147530e+14	1.454320e+04	1.241551e+04	4.435115e+03	0	1.139514e-03
7.000000e+08	3.442812e+13	0.000000e+00	5.063292e-01	6.091798e+14	1.426513e+15	3.132429e+14	1.450926e+04	1.240176e+04	4.430200e+03	0	1.129491e-03
7.100000e+08	3.353794e+13	0.000000e+00	5.063292e-01	5.987005e+14	1.417762e+15	3.117433e+14	1.447592e+04	1.238790e+04	4.425250e+03	0	1.119671e-03
7.200000e+08	3.268052e+13	0.000000e+00	5.063292e-01	5.885968e+14	1.408994e+15	3.102543e+14	1.444314e+04	1.237395e+04	4.420268e+03	0	1.110047e-03
7.300000e+08	3.185416e+13	0.000000e+00	5.063292e-01	5.788492e+14	1.400217e+15	3.087757e+14	1.441092e+04	1.235993e+04	4.415258e+03	0	1.100610e-03
7.400000e+08	3.105727e+13	0.000000e+00	5.063292e-01	5.694398e+14	1.391437e+15	3.073074e+14	1.437923e+04	1.234583e+04	4.410223e+03	0	1.091355e-03
7.500000e+08	3.028836e+13	0.000000e+00	5.063292e-01	5.603514e+14	1.382661e+15	3.058493e+14	1.434804e+04	1.233168e+04	4.405168e+03	0	1.082273e-03
7.600000e+08	2.954604e+13	0.000000e+00	5.063292e-01	5.515682e+14	1.373896e+15	3.044014e+14	1.431736e+04	1.231748e+04	4.400096e+03	0	1.073358e-03
7.700000e+08	2.882898e+13	0.000000e+00	5.063292e-01	5.430753e+14	1.365146e+15	3.029635e+14	1.428715e+04	1.230324e+04	4.395009e+03	0	1.064604e-03
7.800000e+08	2.813595e+13	0.000000e+00	5.063292e-01	5.348586e+14	1.356416e+15	3.015357e+14	1.425740e+04	1.228897e+04	4.389910e+03	0	1.056004e-03
7.900000e+08	2.746581e+13	0.000000e+00	5.063292e-01	5.269048e+14	1.347711e+15	3.001177e+14	1.422810e+04	1.227467e+04	4.384802e+03	0	1.047552e-03
8.000000e+08	2.681744e+13	0.000000e+00	5.063292e-01	5.192016e+14	1.339036e+15	2.987096e+14	1.419924e+04	1.226035e+04	4.379688e+03	0	1.039244e-03
8.100000e+08	2.618984e+13	0.000000e+00	5.063292e-01	5.117373e+14	1.330394e+15	2.973113e+14	1.417079e+04	1.224602e+04	4.374569e+03	0	1.031072e-03
8.200000e+08	2.558204e+13	0.000000e+00	5.063292e-01	5.045009e+14	1.321788e+15	2.959226e+14	1.414275e+04	1.223169e+04	4.369447e+03	0	1.023034e-03
8.300000e+08	2.499312e+13	0.000000e+00	5.063292e-01	4.974819e+14	1.313223e+15	2.945436e+14	1.411510e+04	1.221735e+04	4.364326e+03	0	1.015122e-03
8.400000e+08	2.442222e+13	0.000000e+00	5.063292e-01	4.906707e+14	1.304700e+15	2.931740e+14	1.408784e+04	1.220302e+04	4.359205e+03	0	1.007333e-03
8.500000e+08	2.386855e+13	0.000000e+00	5.063292e-01	4.840578e+14	1.296223e+15	2.918139e+14	1.406095e+04	1.218869e+04	4.354088e+03	0	9.996628e-04
8.600000e+08	2.333132e+13	0.000000e+00	5.063292e-01	4.776348e+14	1.287793e+15	2.904632e+14	1.403442e+04	1.217438e+04	4.348976e+03	0	9.921058e-04
8.700000e+08	2.280983e+13	0.000000e+00	5.063292e-01	4.713932e+14	1.279414e+15	2.891218e+14	1.400824e+04	1.216009e+04	4.343870e+03	0	9.846583e-04
8.800000e+08	2.230338e+13	0.000000e+00	5.063292e-01	4.653253e+14	1.271087e+15	2.877896e+14	1.398239e+04	1.214581e+04	4.338772e+03	0	9.773163e-04
8.900000e+08	2.181135e+13	0.000000e+00	5.063292e-01	4.594238e+14	1.262814e+15	2.864666e+14	1.395688e+04	1.213157e+04	4.333683e+03	0	9.700758e-04
9.000000e+08	2.133310e+13	0.000000e+00	5.063292e-01	4.536817e+14	1.254597e+15	2.851526e+14	1.393169e+04	1.211735e+04	4.328604e+03	0	9.629333e-04
9.100000e+08	2.086808e+13	0.000000e+00	5.063292e-01	4.480924e+14	1.246437e+15	2.838477e+14	1.390682e+04	1.210316e+04	4.323536e+03	0	9.558851e-04
9.200000e+08	2.041573e+13	0.000000e+00	5.063292e-01	4.426496e+14	1.238334e+15	2.825517e+14	1.388225e+04	1.208901e+04	4.318480e+03	0	9.489277e-04
9.300000e+08	1.997553e+13	0.000000e+00	5.063292e-01	4.373475e+14	1.230292e+15	2.812645e+14	1.385797e+04	1.207489e+04	4.313438e+03	0	9.420579e-04
9.400000e+08	1.954699e+13	0.000000e+00	5.063292e-01	4.321804e+14	1.222309e+15	2.799862e+14	1.383399e+04	1.206082e+04	4.308409e+03	0	9.352725e-04
9.500000e+08	1.912965e+13	0.000000e+00	5.063292e-01	4.271429e+14	1.214389e+15	2.787165e+14	1.381028e+04	1.204678e+04	4.303396e+03	0	9.285683e-04
9.600000e+08	1.872306e+13	0.000000e+00	5.063292e-01	4.222301e+14	1.206529e+15	2.774556e+14	1.378685e+04	1.203279e+04	4.298398e+03	0	9.219425e-04
9.700000e+08	1.832681e+13	0.000000e+00	5.063292e-01	4.174372e+14	1.198733e+15	2.762032e+14	1.376369e+04	1.201885e+04	4.293417e+03	0	9.153922e-04
9.800000e+08	1.794050e+13	0.000000e+00	5.063292e-01	4.127595e+14	1.191000e+15	2.749593e+14	1.374079e+04	1.200495e+04	4.288453e+03	0	9.089146e-04
9.900000e+08	1.756375e+13	0.000000e+00	5.063292e-01	4.081927e+14	1.183331e+15	2.737239e+14	1.371815e+04	1.199111e+04	4.283506e+03	0	9.025070e-04
1.000000e+09	1.719619e+13	0.000000e+00	5.063292e-01	4.037328e+14	1.175725e+15	2.724969e+14	1.369575e+04	1.197731e+04	4.278578e+03	0	8.961670e-04
1.010000e+09	1.683749e+13	0.000000e+00	5.063292e-01	3.993757e+14	1.168184e+15	2.712782e+14	1.367360e+04	1.196357e+04	4.273669e+03	0	8.898921e-04
1.020000e+09	1.648732e+13	0.000000e+00	5.063292e-01	3.951178e+14	1.160707e+15	2.700678e+14	1.365169e+04	1.194988e+04	4.268778e+03	0	8.836798e-04
1.030000e+09	1.614537e+13	0.000000e+00	5.063292e-01	3.909555e+14	1.153296e+15	2.688655e+14	1.363001e+04	1.193624e+04	4.263907e+03	0	8.775278e-04
1.040000e+09	1.581134e+13	0.000000e+00	5.063292e-01	3.868854e+14	1.145948e+15	2.676714e+14	1.360855e+04	1.192266e+04	4.259056e+03	0	8.714339e-04
1.050000e+09	1.548496e+13	0.000000e+00	5.063292e-01	3.829042e+14	1.138666e+15	2.664854e+14	1.358732e+04	1.190914e+04	4.254226e+03	0	8.653960e-04
1.060000e+09	1.516595e+13	0.000000e+00	5.063292e-01	3.790090e+14	1.131448e+15	2.653073e+14	1.356630e+04	1.189567e+04	4.249416e+03	0	8.594119e-04
1.070000e+09	1.485405e+13	0.000000e+00	5.063292e-01	3.751966e+14	1.124295e+15	2.641372e+14	1.354550e+04	1.188227e+04	4.244627e+03	0	8.534796e-04
1.080000e+09	1.454902e+13	0.000000e+00	5.063292e-01	3.714644e+14	1.117206e+15	2.629749e+14	1.352491e+04	1.186892e+04	4.239859e+03	0	8.475971e-04
1.090000e+09	1.425064e+13	0.000000e+00	5.063292e-01	3.678097e+14	1.110182e+15	2.618205e+14	1.350452e+04	1.185563e+04	4.235112e+03	0	8.417626e-04
1.100000e+09	1.395866e+13	0.000000e+00	5.063292e-01	3.642299e+14	1.103221e+15	2.606738e+14	1.348433e+04	1.184241e+04	4.230388e+03	0	8.359741e-04
1.110000e+09	1.367289e+13	0.000000e+00	5.063292e-01	3.607224e+14	1.096324e+15	2.595348e+14	1.346433e+04	1.182924e+04	4.225685e+03	0	8.302298e-04
1.120000e+09	1.339312e+13	0.000000e+00	5.063292e-01	3.572851e+14	1.089491e+15	2.584035e+14	1.344453e+04	1.181614e+04	4.221004e+03	0	8.245281e-04
1.130000e+09	1.311915e+13	0.000000e+00	5.063292e-01	3.539156e+14	1.082721e+15	2.572797e+14	1.342491e+04	1.180310e+04	4.216345e+03	0	8.188671e-04
1.140000e+09	1.285079e+13	0.000000e+00	5.063292e-01	3.506119e+14	1.076014e+15	2.561634e+14	1.340548e+04	1.179012e+04	4.211708e+03	0	8.132452e-04
1.150000e+09	1.258788e+13	0.000000e+00	5.063292e-01	3.473718e+14	1.069369e+15	2.550546e+14	1.338622e+04	1.177720e+04	4.207094e+03	0	8.076608e-04
1.160000e+09	1.233023e+13	0.000000e+00	5.063292e-01	3.441933e+14	1.062787e+15	2.539531e+14	1.336715e+04	1.176435e+04	4.202502e+03	0	8.021124e-04
1.170000e+09	1.207768e+13	0.000000e+00	5.063292e-01	3.410747e+14	1.056266e+15	2.528590e+14	1.334825e+04	1.175155e+04	4.197933e+03	0	7.965982e-04
1.180000e+09	1.183008e+13	0.000000e+00	5.063292e-01	3.380141e+14	1.049806e+15	2.517722e+14	1.332952e+04	1.173883e+04	4.193386e+03	0	7.911170e-04
1.190000e+09	1.158727e+13	0.000000e+00	5.063292e-01	3.350097e+14	1.043407e+15	2.506926e+14	1.331095e+04	1.172616e+04	4.188862e+03	0	7.856671e-04
1.200000e+09	1.134911e+13	0.000000e+00	5.063292e-01	3.320599e+14	1.037069e+15	2.496202e+14	1.329255e+04	1.171356e+04	4.184361e+03	0	7.802471e-04
1.210000e+09	1.111547e+13	0.000000e+00	5.063292e-01	3.291631e+14	1.030790e+15	2.485549e+14	1.327432e+04	1.170102e+04	4.179882e+03	0	7.748556e-04
1.220000e+09	1.088620e+13	0.000000e+00	5.063292e-01	3.263178e+14	1.024571e+15	2.474966e+14	1.325624e+04	1.168855e+04	4.175425e+03	0	7.694912e-04
1.230000e+09	1.066119e+13	0.000000e+00	5.063292e-01	3.235224e+14	1.018410e+15	2.464454e+14	1.323831e+04	1.167614e+04	4.170992e+03	0	7.641525e-04
1.240000e+09	1.044030e+13	0.000000e+00	5.063292e-01	3.207757e+14	1.012308e+15	2.454011e+14	1.322054e+04	1.166379e+04	4.166581e+03	0	7.588382e-04
1.250000e+09	1.022343e+13	0.000000e+00	5.063292e-01	3.180761e+14	1.006264e+15	2.443637e+14	1.320292e+04	1.165150e+04	4.162193e+03	0	7.535470e-04
1.260000e+09	1.001045e+13	0.000000e+00	5.063292e-01	3.154225e+14	1.000277e+15	2.433331e+14	1.318544e+04	1.163928e+04	4.157827e+03	0	7.482775e-04
1.270000e+09	9.801259e+12	0.000000e+00	5.063292e-01	3.128135e+14	9.943464e+14	2.423093e+14	1.316811e+04	1.162713e+04	4.153484e+03	0	7.430285e-04
1.280000e+09	9.595754e+12	0.000000e+00	5.063292e-01	3.102479e+14	9.884723e+14	2.412923e+14	1.315093e+04	1.161503e+04	4.149163e+03	0	7.377987e-04
1.290000e+09	9.393832e+12	0.000000e+00	5.063292e-01	3.077246e+14	9.826537e+14	2.402819e+14	1.313388e+04	1.160300e+04	4.144865e+03	0	7.325869e-04
1.300000e+09	9.195396e+12	0.000000e+00	5.063292e-01	3.052424e+14	9.768908e+14	2.392782e+14	1.311697e+04	1.159103e+04	4.140589e+03	0	7.273917e-04
1.310000e+09	9.000352e+12	0.000000e+00	5.063292e-01	3.028004e+14	9.711822e+14	2.382811e+14	1.310020e+04	1.157912e+04	4.136335e+03	0	7.222120e-04
1.320000e+09	8.808609e+12	0.000000e+00	5.063292e-01	3.003973e+14	9.655277e+14	2.372904e+14	1.308356e+04	1.156727e+04	4.132104e+03	0	7.170465e-04
1.330000e+09	8.620082e+12	0.000000e+00	5.063292e-01	2.980323e+14	9.599266e+14	2.363063e+14	1.306705e+04	1.155549e+04	4.127895e+03	0	7.118940e-04
1.340000e+09	8.434687e+12	0.000000e+00	5.063292e-01	2.957043e+14	9.543785e+14	2.353286e+14	1.305067e+04	1.154377e+04	4.123707e+03	0	7.067533e-04
1.350000e+09	8.252343e+12	0.000000e+00	5.063292e-01	2.934124e+14	9.488828e+14	2.343573e+14	1.303442e+04	1.153211e+04	4.119542e+03	0	7.016232e-04
1.360000e+09	8.072972e+12	0.000000e+00	5.063292e-01	2.911558e+14	9.434391e+14	2.333923e+14	1.301830e+04	1.152051e+04	4.115399e+03	0	6.965025e-04
