#t		Qconv[W]	Ri[Rp]		R*[Rp]		Qc[W]		Qm[W]		Qr[W]		Tcmb[K]		Tl[K]		Tup[K]		RiFlag		Bs[T]
0.000000e+00	7.767141e+13	0.000000e+00	5.000001e-01	1.218530e+15	5.471338e+13	5.773906e+14	1.746553e+04	6.086546e+03	2.905907e+03	0	1.494265e-03
1.000000e+07	7.655873e+13	0.000000e+00	5.000001e-01	1.206207e+15	5.705533e+13	5.741914e+14	1.741430e+04	6.119906e+03	2.921834e+03	0	1.487096e-03
2.000000e+07	7.546062e+13	0.000000e+00	5.000001e-01	1.194041e+15	5.944990e+13	5.710161e+14	1.736358e+04	6.152922e+03	2.937597e+03	0	1.479951e-03
3.000000e+07	7.437682e+13	0.000000e+00	5.000001e-01	1.182029e+15	6.189660e+13	5.678646e+14	1.731337e+04	6.185598e+03	2.953197e+03	0	1.472832e-03
4.000000e+07	7.330707e+13	0.000000e+00	5.000001e-01	1.170169e+15	6.439492e+13	5.647366e+14	1.726367e+04	6.217936e+03	2.968636e+03	0	1.465737e-03
5.000000e+07	7.225114e+13	0.000000e+00	5.000001e-01	1.158459e+15	6.694429e+13	5.616320e+14	1.721446e+04	6.249938e+03	2.983915e+03	0	1.458665e-03
6.000000e+07	7.120878e+13	0.000000e+00	5.000001e-01	1.146896e+15	6.954411e+13	5.585505e+14	1.716574e+04	6.281606e+03	2.999034e+03	0	1.451616e-03
7.000000e+07	7.017975e+13	0.000000e+00	5.000001e-01	1.135477e+15	7.219374e+13	5.554919e+14	1.711751e+04	6.312943e+03	3.013996e+03	0	1.444590e-03
8.000000e+07	6.916383e+13	0.000000e+00	5.000001e-01	1.124200e+15	7.489252e+13	5.524561e+14	1.706975e+04	6.343951e+03	3.028800e+03	0	1.437585e-03
9.000000e+07	6.816081e+13	0.000000e+00	5.000001e-01	1.113062e+15	7.763969e+13	5.494429e+14	1.702246e+04	6.374633e+03	3.043448e+03	0	1.430602e-03
1.000000e+08	6.717045e+13	0.000000e+00	5.000001e-01	1.102062e+15	8.043451e+13	5.464520e+14	1.697564e+04	6.404990e+03	3.057942e+03	0	1.423640e-03
1.100000e+08	6.619255e+13	0.000000e+00	5.000001e-01	1.091197e+15	8.327619e+13	5.434833e+14	1.692929e+04	6.435025e+03	3.072281e+03	0	1.416697e-03
1.200000e+08	6.522691e+13	0.000000e+00	5.000001e-01	1.080464e+15	8.616391e+13	5.405366e+14	1.688338e+04	6.464739e+03	3.086468e+03	0	1.409774e-03
1.300000e+08	6.427332e+13	0.000000e+00	5.000001e-01	1.069863e+15	8.909679e+13	5.376118e+14	1.683793e+04	6.494136e+03	3.100503e+03	0	1.402870e-03
1.400000e+08	6.333160e+13	0.000000e+00	5.000001e-01	1.059390e+15	9.207396e+13	5.347086e+14	1.679292e+04	6.523216e+03	3.114386e+03	0	1.395985e-03
1.500000e+08	6.240155e+13	0.000000e+00	5.000001e-01	1.049044e+15	9.509447e+13	5.318268e+14	1.674834e+04	6.551982e+03	3.128120e+03	0	1.389118e-03
1.600000e+08	6.148299e+13	0.000000e+00	5.000001e-01	1.038823e+15	9.815738e+13	5.289664e+14	1.670421e+04	6.580437e+03	3.141705e+03	0	1.382268e-03
1.700000e+08	6.057573e+13	0.000000e+00	5.000001e-01	1.028725e+15	1.012617e+14	5.261270e+14	1.666049e+04	6.608581e+03	3.155142e+03	0	1.375435e-03
1.800000e+08	5.967960e+13	0.000000e+00	5.000001e-01	1.018748e+15	1.044065e+14	5.233086e+14	1.661721e+04	6.636417e+03	3.168432e+03	0	1.368619e-03
1.900000e+08	5.879444e+13	0.000000e+00	5.000001e-01	1.008889e+15	1.075906e+14	5.205109e+14	1.657434e+04	6.663947e+03	3.181576e+03	0	1.361819e-03
2.000000e+08	5.792007e+13	0.000000e+00	5.000001e-01	9.991486e+14	1.108130e+14	5.177339e+14	1.653188e+04	6.691173e+03	3.194575e+03	0	1.355034e-03
2.100000e+08	5.705632e+13	0.000000e+00	5.000001e-01	9.895234e+14	1.140726e+14	5.149772e+14	1.648983e+04	6.718097e+03	3.207429e+03	0	1.348265e-03
2.200000e+08	5.620305e+13	0.000000e+00	5.000001e-01	9.800121e+14	1.173684e+14	5.122408e+14	1.644818e+04	6.744721e+03	3.220140e+03	0	1.341510e-03
2.300000e+08	5.536009e+13	0.000000e+00	5.000001e-01	9.706131e+14	1.206992e+14	5.095245e+14	1.640694e+04	6.771046e+03	3.232708e+03	0	1.334769e-03
2.400000e+08	5.452730e+13	0.000000e+00	5.000001e-01	9.613247e+14	1.240639e+14	5.068281e+14	1.636608e+04	6.797075e+03	3.245135e+03	0	1.328042e-03
2.500000e+08	5.370452e+13	0.000000e+00	5.000001e-01	9.521454e+14	1.274612e+14	5.041514e+14	1.632562e+04	6.822809e+03	3.257421e+03	0	1.321329e-03
2.600000e+08	5.289160e+13	0.000000e+00	5.000001e-01	9.430736e+14	1.308901e+14	5.014943e+14	1.628554e+04	6.848250e+03	3.269568e+03	0	1.314628e-03
2.700000e+08	5.208842e+13	0.000000e+00	5.000001e-01	9.341078e+14	1.343493e+14	4.988567e+14	1.624584e+04	6.873400e+03	3.281575e+03	0	1.307940e-03
2.800000e+08	5.129483e+13	0.000000e+00	5.000001e-01	9.252465e+14	1.378376e+14	4.962383e+14	1.620652e+04	6.898261e+03	3.293445e+03	0	1.301263e-03
2.900000e+08	5.051069e+13	0.000000e+00	5.000001e-01	9.164883e+14	1.413538e+14	4.936390e+14	1.616757e+04	6.922835e+03	3.305177e+03	0	1.294598e-03
3.000000e+08	4.973587e+13	0.000000e+00	5.000001e-01	9.078318e+14	1.448967e+14	4.910587e+14	1.612898e+04	6.947123e+03	3.316773e+03	0	1.287945e-03
3.100000e+08	4.897025e+13	0.000000e+00	5.000001e-01	8.992755e+14	1.484650e+14	4.884972e+14	1.609076e+04	6.971127e+03	3.328233e+03	0	1.281302e-03
3.200000e+08	4.821369e+13	0.000000e+00	5.000001e-01	8.908181e+14	1.520576e+14	4.859543e+14	1.605290e+04	6.994850e+03	3.339559e+03	0	1.274669e-03
3.300000e+08	4.746608e+13	0.000000e+00	5.000001e-01	8.824583e+14	1.556730e+14	4.834299e+14	1.601539e+04	7.018293e+03	3.350751e+03	0	1.268046e-03
3.400000e+08	4.672729e+13	0.000000e+00	5.000001e-01	8.741947e+14	1.593102e+14	4.809238e+14	1.597823e+04	7.041457e+03	3.361811e+03	0	1.261433e-03
3.500000e+08	4.599721e+13	0.000000e+00	5.000001e-01	8.660262e+14	1.629677e+14	4.784360e+14	1.594142e+04	7.064345e+03	3.372738e+03	0	1.254829e-03
3.600000e+08	4.527571e+13	0.000000e+00	5.000001e-01	8.579514e+14	1.666444e+14	4.759661e+14	1.590495e+04	7.086958e+03	3.383534e+03	0	1.248233e-03
3.700000e+08	4.456268e+13	0.000000e+00	5.000001e-01	8.499691e+14	1.703388e+14	4.735142e+14	1.586882e+04	7.109298e+03	3.394200e+03	0	1.241646e-03
3.800000e+08	4.385802e+13	0.000000e+00	5.000001e-01	8.420782e+14	1.740500e+14	4.710799e+14	1.583302e+04	7.131367e+03	3.404737e+03	0	1.235066e-03
3.900000e+08	4.316161e+13	0.000000e+00	5.000001e-01	8.342774e+14	1.777764e+14	4.686633e+14	1.579756e+04	7.153167e+03	3.415145e+03	0	1.228494e-03
4.000000e+08	4.247335e+13	0.000000e+00	5.000001e-01	8.265656e+14	1.815168e+14	4.662641e+14	1.576242e+04	7.174700e+03	3.425425e+03	0	1.221929e-03
4.100000e+08	4.179312e+13	0.000000e+00	5.000001e-01	8.189417e+14	1.852701e+14	4.638823e+14	1.572761e+04	7.195966e+03	3.435578e+03	0	1.215371e-03
4.200000e+08	4.112084e+13	0.000000e+00	5.000001e-01	8.114045e+14	1.890348e+14	4.615176e+14	1.569311e+04	7.216969e+03	3.445606e+03	0	1.208819e-03
4.300000e+08	4.045640e+13	0.000000e+00	5.000001e-01	8.039529e+14	1.928098e+14	4.591699e+14	1.565894e+04	7.237709e+03	3.455508e+03	0	1.202273e-03
4.400000e+08	3.979969e+13	0.000000e+00	5.000001e-01	7.965860e+14	1.965938e+14	4.568391e+14	1.562507e+04	7.258189e+03	3.465285e+03	0	1.195732e-03
4.500000e+08	3.915063e+13	0.000000e+00	5.000001e-01	7.893026e+14	2.003855e+14	4.545251e+14	1.559152e+04	7.278410e+03	3.474940e+03	0	1.189196e-03
4.600000e+08	3.850911e+13	0.000000e+00	5.000001e-01	7.821017e+14	2.041836e+14	4.522277e+14	1.555827e+04	7.298375e+03	3.484471e+03	0	1.182665e-03
4.700000e+08	3.787504e+13	0.000000e+00	5.000001e-01	7.749822e+14	2.079870e+14	4.499467e+14	1.552532e+04	7.318084e+03	3.493881e+03	0	1.176138e-03
4.800000e+08	3.724834e+13	0.000000e+00	5.000001e-01	7.679433e+14	2.117945e+14	4.476821e+14	1.549267e+04	7.337540e+03	3.503170e+03	0	1.169615e-03
4.900000e+08	3.662890e+13	0.000000e+00	5.000001e-01	7.609839e+14	2.156047e+14	4.454338e+14	1.546032e+04	7.356745e+03	3.512339e+03	0	1.163095e-03
5.000000e+08	3.601665e+13	0.000000e+00	5.000001e-01	7.541030e+14	2.194166e+14	4.432015e+14	1.542826e+04	7.375700e+03	3.521389e+03	0	1.156578e-03
5.100000e+08	3.541149e+13	0.000000e+00	5.000001e-01	7.472997e+14	2.232288e+14	4.409851e+14	1.539648e+04	7.394407e+03	3.530320e+03	0	1.150064e-03
5.200000e+08	3.481334e+13	0.000000e+00	5.000001e-01	7.405730e+14	2.270403e+14	4.387846e+14	1.536500e+04	7.412869e+03	3.539134e+03	0	1.143552e-03
5.300000e+08	3.422211e+13	0.000000e+00	5.000001e-01	7.339221e+14	2.308498e+14	4.365997e+14	1.533379e+04	7.431085e+03	3.547832e+03	0	1.137041e-03
5.400000e+08	3.363772e+13	0.000000e+00	5.000001e-01	7.273461e+14	2.346562e+14	4.344304e+14	1.530287e+04	7.449060e+03	3.556413e+03	0	1.130532e-03
5.500000e+08	3.306009e+13	0.000000e+00	5.000001e-01	7.208439e+14	2.384584e+14	4.322766e+14	1.527222e+04	7.466793e+03	3.564880e+03	0	1.124023e-03
5.600000e+08	3.248914e+13	0.000000e+00	5.000001e-01	7.144149e+14	2.422552e+14	4.301380e+14	1.524184e+04	7.484288e+03	3.573232e+03	0	1.117515e-03
5.700000e+08	3.192478e+13	0.000000e+00	5.000001e-01	7.080581e+14	2.460455e+14	4.280147e+14	1.521174e+04	7.501546e+03	3.581472e+03	0	1.111007e-03
5.800000e+08	3.136695e+13	0.000000e+00	5.000001e-01	7.017726e+14	2.498283e+14	4.259064e+14	1.518190e+04	7.518569e+03	3.589599e+03	0	1.104498e-03
5.900000e+08	3.081556e+13	0.000000e+00	5.000001e-01	6.955576e+14	2.536024e+14	4.238131e+14	1.515232e+04	7.535358e+03	3.597614e+03	0	1.097987e-03
6.000000e+08	3.027053e+13	0.000000e+00	5.000001e-01	6.894124e+14	2.573668e+14	4.217345e+14	1.512301e+04	7.551915e+03	3.605519e+03	0	1.091476e-03
6.100000e+08	2.973180e+13	0.000000e+00	5.000001e-01	6.833360e+14	2.611204e+14	4.196707e+14	1.509395e+04	7.568243e+03	3.613315e+03	0	1.084962e-03
6.200000e+08	2.919929e+13	0.000000e+00	5.000001e-01	6.773277e+14	2.648623e+14	4.176215e+14	1.506515e+04	7.584342e+03	3.621001e+03	0	1.078445e-03
6.300000e+08	2.867292e+13	0.000000e+00	5.000001e-01	6.713866e+14	2.685914e+14	4.155867e+14	1.503660e+04	7.600216e+03	3.628580e+03	0	1.071926e-03
6.400000e+08	2.815263e+13	0.000000e+00	5.000001e-01	6.655121e+14	2.723068e+14	4.135663e+14	1.500830e+04	7.615865e+03	3.636051e+03	0	1.065402e-03
6.500000e+08	2.763835e+13	0.000000e+00	5.000001e-01	6.597033e+14	2.760074e+14	4.115601e+14	1.498025e+04	7.631292e+03	3.643416e+03	0	1.058875e-03
6.600000e+08	2.712999e+13	0.000000e+00	5.000001e-01	6.539595e+14	2.796924e+14	4.095680e+14	1.495244e+04	7.646498e+03	3.650676e+03	0	1.052343e-03
6.700000e+08	2.662751e+13	0.000000e+00	5.000001e-01	6.482799e+14	2.833608e+14	4.075900e+14	1.492488e+04	7.661485e+03	3.657831e+03	0	1.045805e-03
6.800000e+08	2.613082e+13	0.000000e+00	5.000001e-01	6.426638e+14	2.870117e+14	4.056258e+14	1.489755e+04	7.676255e+03	3.664883e+03	0	1.039262e-03
6.900000e+08	2.563986e+13	0.000000e+00	5.000001e-01	6.371104e+14	2.906443e+14	4.036754e+14	1.487046e+04	7.690810e+03	3.671832e+03	0	1.032712e-03
7.000000e+08	2.515457e+13	0.000000e+00	5.000001e-01	6.316191e+14	2.942576e+14	4.017387e+14	1.484360e+04	7.705151e+03	3.678679e+03	0	1.026155e-03
7.100000e+08	2.467487e+13	0.000000e+00	5.000001e-01	6.261891e+14	2.978509e+14	3.998155e+14	1.481697e+04	7.719281e+03	3.685425e+03	0	1.019590e-03
7.200000e+08	2.420071e+13	0.000000e+00	5.000001e-01	6.208197e+14	3.014233e+14	3.979058e+14	1.479057e+04	7.733201e+03	3.692071e+03	0	1.013017e-03
7.300000e+08	2.373203e+13	0.000000e+00	5.000001e-01	6.155103e+14	3.049740e+14	3.960094e+14	1.476440e+04	7.746914e+03	3.698618e+03	0	1.006435e-03
7.400000e+08	2.326875e+13	0.000000e+00	5.000001e-01	6.102600e+14	3.085023e+14	3.941263e+14	1.473845e+04	7.760420e+03	3.705066e+03	0	9.998426e-04
7.500000e+08	2.281081e+13	0.000000e+00	5.000001e-01	6.050683e+14	3.120074e+14	3.922563e+14	1.471272e+04	7.773722e+03	3.711417e+03	0	9.932401e-04
7.600000e+08	2.235816e+13	0.000000e+00	5.000001e-01	5.999345e+14	3.154886e+14	3.903993e+14	1.468720e+04	7.786821e+03	3.717671e+03	0	9.866263e-04
7.700000e+08	2.191074e+13	0.000000e+00	5.000001e-01	5.948579e+14	3.189452e+14	3.885552e+14	1.466191e+04	7.799720e+03	3.723829e+03	0	9.800006e-04
7.800000e+08	2.146848e+13	0.000000e+00	5.000001e-01	5.898379e+14	3.223765e+14	3.867240e+14	1.463683e+04	7.812420e+03	3.729893e+03	0	9.733620e-04
7.900000e+08	2.103132e+13	0.000000e+00	5.000001e-01	5.848738e+14	3.257817e+14	3.849055e+14	1.461195e+04	7.824924e+03	3.735862e+03	0	9.667099e-04
8.000000e+08	2.059921e+13	0.000000e+00	5.000001e-01	5.799650e+14	3.291604e+14	3.830996e+14	1.458729e+04	7.837232e+03	3.741739e+03	0	9.600433e-04
8.100000e+08	2.017208e+13	0.000000e+00	5.000001e-01	5.751108e+14	3.325119e+14	3.813062e+14	1.456284e+04	7.849347e+03	3.747523e+03	0	9.533614e-04
8.200000e+08	1.974989e+13	0.000000e+00	5.000001e-01	5.703106e+14	3.358355e+14	3.795252e+14	1.453858e+04	7.861270e+03	3.753215e+03	0	9.466633e-04
8.300000e+08	1.933257e+13	0.000000e+00	5.000001e-01	5.655638e+14	3.391308e+14	3.777565e+14	1.451453e+04	7.873004e+03	3.758817e+03	0	9.399481e-04
8.400000e+08	1.892007e+13	0.000000e+00	5.000001e-01	5.608698e+14	3.423971e+14	3.760001e+14	1.449068e+04	7.884549e+03	3.764329e+03	0	9.332147e-04
8.500000e+08	1.851233e+13	0.000000e+00	5.000001e-01	5.562280e+14	3.456339e+14	3.742557e+14	1.446703e+04	7.895909e+03	3.769753e+03	0	9.264622e-04
8.600000e+08	1.810930e+13	0.000000e+00	5.000001e-01	5.516378e+14	3.488409e+14	3.725234e+14	1.444357e+04	7.907085e+03	3.775088e+03	0	9.196894e-04
8.700000e+08	1.771092e+13	0.000000e+00	5.000001e-01	5.470985e+14	3.520173e+14	3.708030e+14	1.442030e+04	7.918078e+03	3.780337e+03	0	9.128954e-04
8.800000e+08	1.731714e+13	0.000000e+00	5.000001e-01	5.426097e+14	3.551628e+14	3.690945e+14	1.439723e+04	7.928890e+03	3.785499e+03	0	9.060789e-04
8.900000e+08	1.692791e+13	0.000000e+00	5.000001e-01	5.381707e+14	3.582770e+14	3.673977e+14	1.437434e+04	7.939523e+03	3.790576e+03	0	8.992388e-04
9.000000e+08	1.654316e+13	0.000000e+00	5.000001e-01	5.337809e+14	3.613594e+14	3.657125e+14	1.435164e+04	7.949980e+03	3.795568e+03	0	8.923739e-04
9.100000e+08	1.616287e+13	0.000000e+00	5.000001e-01	5.294398e+14	3.644095e+14	3.640389e+14	1.432913e+04	7.960261e+03	3.800476e+03	0	8.854828e-04
9.200000e+08	1.578696e+13	0.000000e+00	5.000001e-01	5.251468e+14	3.674271e+14	3.623767e+14	1.430680e+04	7.970368e+03	3.805302e+03	0	8.785641e-04
9.300000e+08	1.541539e+13	0.000000e+00	5.000001e-01	5.209014e+14	3.704119e+14	3.607260e+14	1.428465e+04	7.980304e+03	3.810046e+03	0	8.716165e-04
9.400000e+08	1.504811e+13	0.000000e+00	5.000001e-01	5.167030e+14	3.733633e+14	3.590864e+14	1.426267e+04	7.990070e+03	3.814708e+03	0	8.646386e-04
9.500000e+08	1.468506e+13	0.000000e+00	5.000001e-01	5.125511e+14	3.762812e+14	3.574581e+14	1.424088e+04	7.999668e+03	3.819290e+03	0	8.576286e-04
9.600000e+08	1.432621e+13	0.000000e+00	5.000001e-01	5.084450e+14	3.791652e+14	3.558409e+14	1.421926e+04	8.009099e+03	3.823793e+03	0	8.505851e-04
9.700000e+08	1.397150e+13	0.000000e+00	5.000001e-01	5.043844e+14	3.820150e+14	3.542347e+14	1.419781e+04	8.018365e+03	3.828217e+03	0	8.435063e-04
9.800000e+08	1.362088e+13	0.000000e+00	5.000001e-01	5.003687e+14	3.848304e+14	3.526395e+14	1.417653e+04	8.027468e+03	3.832563e+03	0	8.363904e-04
9.900000e+08	1.327430e+13	0.000000e+00	5.000001e-01	4.963973e+14	3.876112e+14	3.510550e+14	1.415542e+04	8.036411e+03	3.836833e+03	0	8.292355e-04
1.000000e+09	1.293172e+13	0.000000e+00	5.000001e-01	4.924697e+14	3.903570e+14	3.494814e+14	1.413448e+04	8.045193e+03	3.841026e+03	0	8.220397e-04
1.010000e+09	1.259309e+13	0.000000e+00	5.000001e-01	4.885855e+14	3.930679e+14	3.479184e+14	1.411370e+04	8.053818e+03	3.845143e+03	0	8.148008e-04
1.020000e+09	1.225837e+13	0.000000e+00	5.000001e-01	4.847441e+14	3.957434e+14	3.463660e+14	1.409309e+04	8.062286e+03	3.849187e+03	0	8.075168e-04
1.030000e+09	1.192750e+13	0.000000e+00	5.000001e-01	4.809449e+14	3.983835e+14	3.448241e+14	1.407264e+04	8.070601e+03	3.853156e+03	0	8.001851e-04
1.040000e+09	1.160045e+13	0.000000e+00	5.000001e-01	4.771877e+14	4.009879e+14	3.432926e+14	1.405235e+04	8.078762e+03	3.857053e+03	0	7.928035e-04
1.050000e+09	1.127716e+13	0.000000e+00	5.000001e-01	4.734717e+14	4.035567e+14	3.417715e+14	1.403221e+04	8.086773e+03	3.860877e+03	0	7.853692e-04
1.060000e+09	1.095759e+13	0.000000e+00	5.000001e-01	4.697966e+14	4.060896e+14	3.402606e+14	1.401224e+04	8.094634e+03	3.864630e+03	0	7.778796e-04
1.070000e+09	1.064171e+13	0.000000e+00	5.000001e-01	4.661618e+14	4.085865e+14	3.387599e+14	1.399241e+04	8.102347e+03	3.868313e+03	0	7.703317e-04
1.080000e+09	1.032946e+13	0.000000e+00	5.000001e-01	4.625669e+14	4.110474e+14	3.372693e+14	1.397274e+04	8.109915e+03	3.871926e+03	0	7.627223e-04
1.090000e+09	1.002080e+13	0.000000e+00	5.000001e-01	4.590115e+14	4.134723e+14	3.357887e+14	1.395323e+04	8.117338e+03	3.875470e+03	0	7.550483e-04
1.100000e+09	9.715687e+12	0.000000e+00	5.000001e-01	4.554950e+14	4.158608e+14	3.343181e+14	1.393386e+04	8.124618e+03	3.878946e+03	0	7.473060e-04
1.110000e+09	9.414085e+12	0.000000e+00	5.000001e-01	4.520170e+14	4.182133e+14	3.328573e+14	1.391464e+04	8.131758e+03	3.882354e+03	0	7.394918e-04
1.120000e+09	9.115947e+12	0.000000e+00	5.000001e-01	4.485771e+14	4.205294e+14	3.314063e+14	1.389556e+04	8.138757e+03	3.885696e+03	0	7.316015e-04
1.130000e+09	8.821233e+12	0.000000e+00	5.000001e-01	4.451747e+14	4.228093e+14	3.299650e+14	1.387663e+04	8.145619e+03	3.888972e+03	0	7.236309e-04
1.140000e+09	8.529903e+12	0.000000e+00	5.000001e-01	4.418095e+14	4.250530e+14	3.285334e+14	1.385785e+04	8.152345e+03	3.892183e+03	0	7.155753e-04
1.150000e+09	8.241914e+12	0.000000e+00	5.000001e-01	4.384809e+14	4.272604e+14	3.271113e+14	1.383920e+04	8.158936e+03	3.895330e+03	0	7.074298e-04
1.160000e+09	7.957228e+12	0.000000e+00	5.000001e-01	4.351887e+14	4.294317e+14	3.256987e+14	1.382070e+04	8.165394e+03	3.898413e+03	0	6.991890e-04
1.170000e+09	7.675804e+12	0.000000e+00	5.000001e-01	4.319323e+14	4.315667e+14	3.242955e+14	1.380233e+04	8.171720e+03	3.901434e+03	0	6.908471e-04
1.180000e+09	7.397603e+12	0.000000e+00	5.000001e-01	4.287112e+14	4.336655e+14	3.229016e+14	1.378410e+04	8.177917e+03	3.904392e+03	0	6.823979e-04
1.190000e+09	7.122587e+12	0.000000e+00	5.000001e-01	4.255252e+14	4.357285e+14	3.215170e+14	1.376601e+04	8.183985e+03	3.907289e+03	0	6.738345e-04
1.200000e+09	6.850717e+12	0.000000e+00	5.000001e-01	4.223738e+14	4.377554e+14	3.201416e+14	1.374805e+04	8.189926e+03	3.910126e+03	0	6.651496e-04
1.210000e+09	6.581955e+12	0.000000e+00	5.000001e-01	4.192565e+14	4.397464e+14	3.187754e+14	1.373023e+04	8.195742e+03	3.912902e+03	0	6.563351e-04
1.220000e+09	6.316264e+12	0.000000e+00	5.000001e-01	4.161729e+14	4.417015e+14	3.174182e+14	1.371253e+04	8.201434e+03	3.915620e+03	0	6.473822e-04
1.230000e+09	6.053605e+12	0.000000e+00	5.000001e-01	4.131227e+14	4.436210e+14	3.160699e+14	1.369497e+04	8.207004e+03	3.918279e+03	0	6.382812e-04
1.240000e+09	5.793943e+12	0.000000e+00	5.000001e-01	4.101054e+14	4.455049e+14	3.147306e+14	1.367753e+04	8.212453e+03	3.920881e+03	0	6.290214e-04
1.250000e+09	5.537241e+12	0.000000e+00	5.000001e-01	4.071207e+14	4.473534e+14	3.134001e+14	1.366022e+04	8.217782e+03	3.923425e+03	0	6.195910e-04
1.260000e+09	5.283463e+12	0.000000e+00	5.000001e-01	4.041681e+14	4.491667e+14	3.120784e+14	1.364303e+04	8.222994e+03	3.925914e+03	0	6.099771e-04
1.270000e+09	5.032573e+12	0.000000e+00	5.000001e-01	4.012473e+14	4.509447e+14	3.107654e+14	1.362598e+04	8.228090e+03	3.928346e+03	0	6.001650e-04
1.280000e+09	4.784537e+12	0.000000e+00	5.000001e-01	3.983578e+14	4.526877e+14	3.094610e+14	1.360904e+04	8.233070e+03	3.930724e+03	0	5.901385e-04
1.290000e+09	4.539318e+12	0.000000e+00	5.000001e-01	3.954994e+14	4.543959e+14	3.081652e+14	1.359222e+04	8.237937e+03	3.933048e+03	0	5.798792e-04
1.300000e+09	4.296884e+12	0.000000e+00	5.000001e-01	3.926716e+14	4.560695e+14	3.068779e+14	1.357553e+04	8.242692e+03	3.935318e+03	0	5.693664e-04
1.310000e+09	4.057199e+12	0.000000e+00	5.000001e-01	3.898741e+14	4.577085e+14	3.055990e+14	1.355895e+04	8.247336e+03	3.937535e+03	0	5.585766e-04
1.320000e+09	3.820230e+12	0.000000e+00	5.000001e-01	3.871064e+14	4.593133e+14	3.043285e+14	1.354250e+04	8.251871e+03	3.939700e+03	0	5.474828e-04
1.330000e+09	3.585944e+12	0.000000e+00	5.000001e-01	3.843683e+14	4.608840e+14	3.030664e+14	1.352615e+04	8.256298e+03	3.941814e+03	0	5.360539e-04
1.340000e+09	3.354308e+12	0.000000e+00	5.000001e-01	3.816594e+14	4.624207e+14	3.018124e+14	1.350993e+04	8.260619e+03	3.943877e+03	0	5.242538e-04
1.350000e+09	3.125289e+12	0.000000e+00	5.000001e-01	3.789793e+14	4.639238e+14	3.005667e+14	1.349382e+04	8.264834e+03	3.945889e+03	0	5.120402e-04
1.360000e+09	2.898854e+12	0.000000e+00	5.000001e-01	3.763276e+14	4.653934e+14	2.993291e+14	1.347782e+04	8.268946e+03	3.947852e+03	0	4.993627e-04
