#t		Qconv[W]	Ri[Rp]		R*[Rp]		Qc[W]		Qm[W]		Qr[W]		Tcmb[K]		Tl[K]		Tup[K]		RiFlag		Bs[T]
0.000000e+00	3.968396e+14	0.000000e+00	5.096775e-01	4.320410e+15	5.181169e+13	6.475874e+14	2.270981e+04	6.955024e+03	2.946024e+03	0	2.517579e-03
1.000000e+07	3.872076e+14	0.000000e+00	5.096775e-01	4.230145e+15	5.710924e+13	6.439993e+14	2.256649e+04	7.042746e+03	2.983181e+03	0	2.497043e-03
2.000000e+07	3.778488e+14	0.000000e+00	5.096775e-01	4.142401e+15	6.270375e+13	6.404381e+14	2.242614e+04	7.128696e+03	3.019588e+03	0	2.476761e-03
3.000000e+07	3.687530e+14	0.000000e+00	5.096775e-01	4.057084e+15	6.859388e+13	6.369034e+14	2.228868e+04	7.212912e+03	3.055260e+03	0	2.456725e-03
4.000000e+07	3.599103e+14	0.000000e+00	5.096775e-01	3.974106e+15	7.477750e+13	6.333951e+14	2.215402e+04	7.295434e+03	3.090215e+03	0	2.436929e-03
5.000000e+07	3.513116e+14	0.000000e+00	5.096775e-01	3.893381e+15	8.125166e+13	6.299130e+14	2.202208e+04	7.376299e+03	3.124468e+03	0	2.417365e-03
6.000000e+07	3.429479e+14	0.000000e+00	5.096775e-01	3.814829e+15	8.801262e+13	6.264569e+14	2.189280e+04	7.455542e+03	3.158034e+03	0	2.398027e-03
7.000000e+07	3.348108e+14	0.000000e+00	5.096775e-01	3.738371e+15	9.505594e+13	6.230265e+14	2.176611e+04	7.533197e+03	3.190927e+03	0	2.378909e-03
8.000000e+07	3.268922e+14	0.000000e+00	5.096775e-01	3.663936e+15	1.023765e+14	6.196216e+14	2.164193e+04	7.609297e+03	3.223162e+03	0	2.360005e-03
9.000000e+07	3.191845e+14	0.000000e+00	5.096775e-01	3.591452e+15	1.099686e+14	6.162420e+14	2.152020e+04	7.683874e+03	3.254751e+03	0	2.341309e-03
1.000000e+08	3.116804e+14	0.000000e+00	5.096775e-01	3.520853e+15	1.178258e+14	6.128875e+14	2.140086e+04	7.756958e+03	3.285709e+03	0	2.322815e-03
1.100000e+08	3.043729e+14	0.000000e+00	5.096775e-01	3.452075e+15	1.259412e+14	6.095579e+14	2.128385e+04	7.828580e+03	3.316046e+03	0	2.304518e-03
1.200000e+08	2.972553e+14	0.000000e+00	5.096775e-01	3.385057e+15	1.343075e+14	6.062530e+14	2.116910e+04	7.898766e+03	3.345776e+03	0	2.286413e-03
1.300000e+08	2.903214e+14	0.000000e+00	5.096775e-01	3.319742e+15	1.429167e+14	6.029725e+14	2.105656e+04	7.967545e+03	3.374910e+03	0	2.268495e-03
1.400000e+08	2.835650e+14	0.000000e+00	5.096775e-01	3.256072e+15	1.517606e+14	5.997164e+14	2.094618e+04	8.034944e+03	3.403458e+03	0	2.250759e-03
1.500000e+08	2.769804e+14	0.000000e+00	5.096775e-01	3.193996e+15	1.608305e+14	5.964843e+14	2.083789e+04	8.100987e+03	3.431433e+03	0	2.233201e-03
1.600000e+08	2.705619e+14	0.000000e+00	5.096775e-01	3.133462e+15	1.701173e+14	5.932760e+14	2.073165e+04	8.165700e+03	3.458845e+03	0	2.215816e-03
1.700000e+08	2.643044e+14	0.000000e+00	5.096775e-01	3.074422e+15	1.796117e+14	5.900915e+14	2.062742e+04	8.229108e+03	3.485703e+03	0	2.198600e-03
1.800000e+08	2.582026e+14	0.000000e+00	5.096775e-01	3.016828e+15	1.893042e+14	5.869304e+14	2.052513e+04	8.291233e+03	3.512018e+03	0	2.181549e-03
1.900000e+08	2.522518e+14	0.000000e+00	5.096775e-01	2.960637e+15	1.991848e+14	5.837926e+14	2.042474e+04	8.352098e+03	3.537799e+03	0	2.164659e-03
2.000000e+08	2.464473e+14	0.000000e+00	5.096775e-01	2.905806e+15	2.092435e+14	5.806779e+14	2.032621e+04	8.411726e+03	3.563056e+03	0	2.147927e-03
2.100000e+08	2.407846e+14	0.000000e+00	5.096775e-01	2.852292e+15	2.194702e+14	5.775861e+14	2.022949e+04	8.470138e+03	3.587799e+03	0	2.131348e-03
2.200000e+08	2.352595e+14	0.000000e+00	5.096775e-01	2.800058e+15	2.298545e+14	5.745170e+14	2.013454e+04	8.527355e+03	3.612035e+03	0	2.114919e-03
2.300000e+08	2.298678e+14	0.000000e+00	5.096775e-01	2.749065e+15	2.403860e+14	5.714705e+14	2.004131e+04	8.583398e+03	3.635774e+03	0	2.098638e-03
2.400000e+08	2.246055e+14	0.000000e+00	5.096775e-01	2.699277e+15	2.510541e+14	5.684462e+14	1.994977e+04	8.638286e+03	3.659024e+03	0	2.082499e-03
2.500000e+08	2.194690e+14	0.000000e+00	5.096775e-01	2.650658e+15	2.618484e+14	5.654442e+14	1.985988e+04	8.692040e+03	3.681793e+03	0	2.066502e-03
2.600000e+08	2.144545e+14	0.000000e+00	5.096775e-01	2.603176e+15	2.727583e+14	5.624641e+14	1.977159e+04	8.744679e+03	3.704089e+03	0	2.050642e-03
2.700000e+08	2.095585e+14	0.000000e+00	5.096775e-01	2.556797e+15	2.837732e+14	5.595057e+14	1.968488e+04	8.796220e+03	3.725921e+03	0	2.034916e-03
2.800000e+08	2.047777e+14	0.000000e+00	5.096775e-01	2.511492e+15	2.948827e+14	5.565690e+14	1.959970e+04	8.846683e+03	3.747297e+03	0	2.019322e-03
2.900000e+08	2.001088e+14	0.000000e+00	5.096775e-01	2.467230e+15	3.060763e+14	5.536537e+14	1.951602e+04	8.896086e+03	3.768223e+03	0	2.003857e-03
3.000000e+08	1.955488e+14	0.000000e+00	5.096775e-01	2.423982e+15	3.173436e+14	5.507597e+14	1.943381e+04	8.944445e+03	3.788707e+03	0	1.988519e-03
3.100000e+08	1.910945e+14	0.000000e+00	5.096775e-01	2.381720e+15	3.286744e+14	5.478868e+14	1.935303e+04	8.991779e+03	3.808757e+03	0	1.973305e-03
3.200000e+08	1.867431e+14	0.000000e+00	5.096775e-01	2.340418e+15	3.400586e+14	5.450347e+14	1.927364e+04	9.038104e+03	3.828379e+03	0	1.958212e-03
3.300000e+08	1.824919e+14	0.000000e+00	5.096775e-01	2.300049e+15	3.514860e+14	5.422034e+14	1.919563e+04	9.083437e+03	3.847581e+03	0	1.943238e-03
3.400000e+08	1.783380e+14	0.000000e+00	5.096775e-01	2.260589e+15	3.629471e+14	5.393927e+14	1.911895e+04	9.127794e+03	3.866370e+03	0	1.928380e-03
3.500000e+08	1.742789e+14	0.000000e+00	5.096775e-01	2.222014e+15	3.744321e+14	5.366023e+14	1.904358e+04	9.171191e+03	3.884752e+03	0	1.913638e-03
3.600000e+08	1.703121e+14	0.000000e+00	5.096775e-01	2.184301e+15	3.859313e+14	5.338322e+14	1.896949e+04	9.213645e+03	3.902735e+03	0	1.899007e-03
3.700000e+08	1.664352e+14	0.000000e+00	5.096775e-01	2.147426e+15	3.974356e+14	5.310822e+14	1.889665e+04	9.255170e+03	3.920324e+03	0	1.884487e-03
3.800000e+08	1.626457e+14	0.000000e+00	5.096775e-01	2.111369e+15	4.089361e+14	5.283520e+14	1.882503e+04	9.295782e+03	3.937527e+03	0	1.870075e-03
3.900000e+08	1.589415e+14	0.000000e+00	5.096775e-01	2.076107e+15	4.204237e+14	5.256416e+14	1.875461e+04	9.335497e+03	3.954349e+03	0	1.855769e-03
4.000000e+08	1.553204e+14	0.000000e+00	5.096775e-01	2.041622e+15	4.318900e+14	5.229507e+14	1.868536e+04	9.374329e+03	3.970798e+03	0	1.841567e-03
4.100000e+08	1.517801e+14	0.000000e+00	5.096775e-01	2.007892e+15	4.433264e+14	5.202793e+14	1.861725e+04	9.412292e+03	3.986878e+03	0	1.827468e-03
4.200000e+08	1.483187e+14	0.000000e+00	5.096775e-01	1.974899e+15	4.547249e+14	5.176271e+14	1.855026e+04	9.449401e+03	4.002597e+03	0	1.813468e-03
4.300000e+08	1.449341e+14	0.000000e+00	5.096775e-01	1.942625e+15	4.660776e+14	5.149940e+14	1.848437e+04	9.485671e+03	4.017960e+03	0	1.799568e-03
4.400000e+08	1.416244e+14	0.000000e+00	5.096775e-01	1.911051e+15	4.773771e+14	5.123798e+14	1.841954e+04	9.521115e+03	4.032974e+03	0	1.785764e-03
4.500000e+08	1.383878e+14	0.000000e+00	5.096775e-01	1.880161e+15	4.886158e+14	5.097845e+14	1.835577e+04	9.555748e+03	4.047644e+03	0	1.772055e-03
4.600000e+08	1.352223e+14	0.000000e+00	5.096775e-01	1.849936e+15	4.997867e+14	5.072078e+14	1.829302e+04	9.589582e+03	4.061975e+03	0	1.758440e-03
4.700000e+08	1.321264e+14	0.000000e+00	5.096775e-01	1.820362e+15	5.108830e+14	5.046495e+14	1.823127e+04	9.622632e+03	4.075975e+03	0	1.744916e-03
4.800000e+08	1.290982e+14	0.000000e+00	5.096775e-01	1.791421e+15	5.218983e+14	5.021096e+14	1.817051e+04	9.654911e+03	4.089647e+03	0	1.731482e-03
4.900000e+08	1.261360e+14	0.000000e+00	5.096775e-01	1.763099e+15	5.328262e+14	4.995879e+14	1.811070e+04	9.686432e+03	4.102999e+03	0	1.718137e-03
5.000000e+08	1.232384e+14	0.000000e+00	5.096775e-01	1.735380e+15	5.436609e+14	4.970842e+14	1.805184e+04	9.717207e+03	4.116035e+03	0	1.704878e-03
5.100000e+08	1.204036e+14	0.000000e+00	5.096775e-01	1.708250e+15	5.543964e+14	4.945983e+14	1.799390e+04	9.747251e+03	4.128761e+03	0	1.691705e-03
5.200000e+08	1.176302e+14	0.000000e+00	5.096775e-01	1.681695e+15	5.650275e+14	4.921303e+14	1.793686e+04	9.776575e+03	4.141182e+03	0	1.678615e-03
5.300000e+08	1.149167e+14	0.000000e+00	5.096775e-01	1.655700e+15	5.755491e+14	4.896798e+14	1.788070e+04	9.805191e+03	4.153304e+03	0	1.665606e-03
5.400000e+08	1.122616e+14	0.000000e+00	5.096775e-01	1.630254e+15	5.859561e+14	4.872468e+14	1.782541e+04	9.833114e+03	4.165131e+03	0	1.652679e-03
5.500000e+08	1.096636e+14	0.000000e+00	5.096775e-01	1.605342e+15	5.962440e+14	4.848311e+14	1.777096e+04	9.860353e+03	4.176669e+03	0	1.639830e-03
5.600000e+08	1.071213e+14	0.000000e+00	5.096775e-01	1.580951e+15	6.064084e+14	4.824325e+14	1.771734e+04	9.886922e+03	4.187923e+03	0	1.627059e-03
5.700000e+08	1.046333e+14	0.000000e+00	5.096775e-01	1.557070e+15	6.164454e+14	4.800510e+14	1.766453e+04	9.912832e+03	4.198898e+03	0	1.614364e-03
5.800000e+08	1.021984e+14	0.000000e+00	5.096775e-01	1.533687e+15	6.263510e+14	4.776864e+14	1.761252e+04	9.938095e+03	4.209599e+03	0	1.601743e-03
5.900000e+08	9.981528e+13	0.000000e+00	5.096775e-01	1.510789e+15	6.361217e+14	4.753386e+14	1.756128e+04	9.962723e+03	4.220031e+03	0	1.589195e-03
6.000000e+08	9.748277e+13	0.000000e+00	5.096775e-01	1.488366e+15	6.457541e+14	4.730074e+14	1.751080e+04	9.986727e+03	4.230199e+03	0	1.576718e-03
6.100000e+08	9.519965e+13	0.000000e+00	5.096775e-01	1.466406e+15	6.552453e+14	4.706926e+14	1.746107e+04	1.001012e+04	4.240107e+03	0	1.564311e-03
6.200000e+08	9.296477e+13	0.000000e+00	5.096775e-01	1.444899e+15	6.645922e+14	4.683943e+14	1.741207e+04	1.003291e+04	4.249760e+03	0	1.551973e-03
6.300000e+08	9.077699e+13	0.000000e+00	5.096775e-01	1.423833e+15	6.737924e+14	4.661121e+14	1.736379e+04	1.005511e+04	4.259163e+03	0	1.539702e-03
6.400000e+08	8.863520e+13	0.000000e+00	5.096775e-01	1.403199e+15	6.828434e+14	4.638461e+14	1.731621e+04	1.007673e+04	4.268321e+03	0	1.527496e-03
6.500000e+08	8.653834e+13	0.000000e+00	5.096775e-01	1.382987e+15	6.917432e+14	4.615960e+14	1.726931e+04	1.009778e+04	4.277237e+03	0	1.515355e-03
6.600000e+08	8.448536e+13	0.000000e+00	5.096775e-01	1.363186e+15	7.004895e+14	4.593617e+14	1.722309e+04	1.011827e+04	4.285917e+03	0	1.503275e-03
6.700000e+08	8.247523e+13	0.000000e+00	5.096775e-01	1.343788e+15	7.090810e+14	4.571431e+14	1.717752e+04	1.013821e+04	4.294364e+03	0	1.491257e-03
6.800000e+08	8.050696e+13	0.000000e+00	5.096775e-01	1.324784e+15	7.175160e+14	4.549402e+14	1.713260e+04	1.015761e+04	4.302584e+03	0	1.479299e-03
6.900000e+08	7.857958e+13	0.000000e+00	5.096775e-01	1.306163e+15	7.257931e+14	4.527527e+14	1.708832e+04	1.017649e+04	4.310580e+03	0	1.467398e-03
7.000000e+08	7.669214e+13	0.000000e+00	5.096775e-01	1.287917e+15	7.339114e+14	4.505805e+14	1.704465e+04	1.019485e+04	4.318357e+03	0	1.455554e-03
7.100000e+08	7.484372e+13	0.000000e+00	5.096775e-01	1.270038e+15	7.418697e+14	4.484235e+14	1.700159e+04	1.021270e+04	4.325918e+03	0	1.443765e-03
7.200000e+08	7.303342e+13	0.000000e+00	5.096775e-01	1.252517e+15	7.496674e+14	4.462816e+14	1.695913e+04	1.023006e+04	4.333268e+03	0	1.432029e-03
7.300000e+08	7.126036e+13	0.000000e+00	5.096775e-01	1.235347e+15	7.573036e+14	4.441547e+14	1.691725e+04	1.024692e+04	4.340412e+03	0	1.420346e-03
7.400000e+08	6.952368e+13	0.000000e+00	5.096775e-01	1.218518e+15	7.647783e+14	4.420426e+14	1.687594e+04	1.026330e+04	4.347352e+03	0	1.408712e-03
7.500000e+08	6.782255e+13	0.000000e+00	5.096775e-01	1.202023e+15	7.720908e+14	4.399453e+14	1.683520e+04	1.027922e+04	4.354093e+03	0	1.397128e-03
7.600000e+08	6.615614e+13	0.000000e+00	5.096775e-01	1.185856e+15	7.792412e+14	4.378625e+14	1.679500e+04	1.029467e+04	4.360638e+03	0	1.385590e-03
7.700000e+08	6.452367e+13	0.000000e+00	5.096775e-01	1.170007e+15	7.862296e+14	4.357943e+14	1.675534e+04	1.030967e+04	4.366993e+03	0	1.374098e-03
7.800000e+08	6.292436e+13	0.000000e+00	5.096775e-01	1.154470e+15	7.930559e+14	4.337404e+14	1.671621e+04	1.032423e+04	4.373159e+03	0	1.362650e-03
7.900000e+08	6.135744e+13	0.000000e+00	5.096775e-01	1.139239e+15	7.997206e+14	4.317008e+14	1.667759e+04	1.033835e+04	4.379142e+03	0	1.351244e-03
8.000000e+08	5.982218e+13	0.000000e+00	5.096775e-01	1.124305e+15	8.062239e+14	4.296753e+14	1.663949e+04	1.035205e+04	4.384944e+03	0	1.339879e-03
8.100000e+08	5.831786e+13	0.000000e+00	5.096775e-01	1.109662e+15	8.125668e+14	4.276639e+14	1.660188e+04	1.036533e+04	4.390569e+03	0	1.328552e-03
8.200000e+08	5.684377e+13	0.000000e+00	5.096775e-01	1.095305e+15	8.187496e+14	4.256664e+14	1.656476e+04	1.037820e+04	4.396021e+03	0	1.317263e-03
8.300000e+08	5.539922e+13	0.000000e+00	5.096775e-01	1.081225e+15	8.247729e+14	4.236827e+14	1.652812e+04	1.039067e+04	4.401303e+03	0	1.306008e-03
8.400000e+08	5.398354e+13	0.000000e+00	5.096775e-01	1.067417e+15	8.306378e+14	4.217127e+14	1.649194e+04	1.040275e+04	4.406418e+03	0	1.294788e-03
8.500000e+08	5.259607e+13	0.000000e+00	5.096775e-01	1.053876e+15	8.363452e+14	4.197563e+14	1.645623e+04	1.041444e+04	4.411371e+03	0	1.283598e-03
8.600000e+08	5.123618e+13	0.000000e+00	5.096775e-01	1.040594e+15	8.418963e+14	4.178134e+14	1.642097e+04	1.042576e+04	4.416163e+03	0	1.272439e-03
8.700000e+08	4.990325e+13	0.000000e+00	5.096775e-01	1.027566e+15	8.472921e+14	4.158838e+14	1.638615e+04	1.043670e+04	4.420800e+03	0	1.261308e-03
8.800000e+08	4.859665e+13	0.000000e+00	5.096775e-01	1.014786e+15	8.525338e+14	4.139676e+14	1.635177e+04	1.044728e+04	4.425282e+03	0	1.250202e-03
8.900000e+08	4.731579e+13	0.000000e+00	5.096775e-01	1.002250e+15	8.576228e+14	4.120644e+14	1.631781e+04	1.045751e+04	4.429615e+03	0	1.239120e-03
9.000000e+08	4.606010e+13	0.000000e+00	5.096775e-01	9.899506e+14	8.625601e+14	4.101744e+14	1.628427e+04	1.046739e+04	4.433801e+03	0	1.228060e-03
9.100000e+08	4.482901e+13	0.000000e+00	5.096775e-01	9.778834e+14	8.673480e+14	4.082973e+14	1.625114e+04	1.047693e+04	4.437842e+03	0	1.217020e-03
9.200000e+08	4.362196e+13	0.000000e+00	5.096775e-01	9.660432e+14	8.719871e+14	4.064331e+14	1.621842e+04	1.048614e+04	4.441742e+03	0	1.205998e-03
9.300000e+08	4.243841e+13	0.000000e+00	5.096775e-01	9.544248e+14	8.764794e+14	4.045816e+14	1.618608e+04	1.049502e+04	4.445505e+03	0	1.194990e-03
9.400000e+08	4.127783e+13	0.000000e+00	5.096775e-01	9.430233e+14	8.808262e+14	4.027428e+14	1.615414e+04	1.050359e+04	4.449132e+03	0	1.183996e-03
9.500000e+08	4.013971e+13	0.000000e+00	5.096775e-01	9.318339e+14	8.850297e+14	4.009165e+14	1.612258e+04	1.051184e+04	4.452626e+03	0	1.173013e-03
9.600000e+08	3.902354e+13	0.000000e+00	5.096775e-01	9.208520e+14	8.890910e+14	3.991027e+14	1.609138e+04	1.051978e+04	4.455991e+03	0	1.162038e-03
9.700000e+08	3.792884e+13	0.000000e+00	5.096775e-01	9.100728e+14	8.930122e+14	3.973012e+14	1.606056e+04	1.052742e+04	4.459229e+03	0	1.151069e-03
9.800000e+08	3.685512e+13	0.000000e+00	5.096775e-01	8.994920e+14	8.967950e+14	3.955120e+14	1.603010e+04	1.053478e+04	4.462342e+03	0	1.140103e-03
9.900000e+08	3.580192e+13	0.000000e+00	5.096775e-01	8.891052e+14	9.004414e+14	3.937349e+14	1.599998e+04	1.054184e+04	4.465334e+03	0	1.129138e-03
1.000000e+09	3.476877e+13	0.000000e+00	5.096775e-01	8.789081e+14	9.039530e+14	3.919700e+14	1.597022e+04	1.054862e+04	4.468207e+03	0	1.118170e-03
1.010000e+09	3.375524e+13	0.000000e+00	5.096775e-01	8.688965e+14	9.073316e+14	3.902169e+14	1.594079e+04	1.055513e+04	4.470963e+03	0	1.107198e-03
1.020000e+09	3.276088e+13	0.000000e+00	5.096775e-01	8.590663e+14	9.105793e+14	3.884758e+14	1.591170e+04	1.056137e+04	4.473606e+03	0	1.096217e-03
1.030000e+09	3.178527e+13	0.000000e+00	5.096775e-01	8.494136e+14	9.136979e+14	3.867464e+14	1.588294e+04	1.056734e+04	4.476136e+03	0	1.085226e-03
1.040000e+09	3.082800e+13	0.000000e+00	5.096775e-01	8.399345e+14	9.166896e+14	3.850288e+14	1.585450e+04	1.057306e+04	4.478558e+03	0	1.074220e-03
1.050000e+09	2.988866e+13	0.000000e+00	5.096775e-01	8.306252e+14	9.195557e+14	3.833227e+14	1.582638e+04	1.057852e+04	4.480873e+03	0	1.063196e-03
1.060000e+09	2.896684e+13	0.000000e+00	5.096775e-01	8.214820e+14	9.222991e+14	3.816281e+14	1.579856e+04	1.058374e+04	4.483083e+03	0	1.052152e-03
1.070000e+09	2.806218e+13	0.000000e+00	5.096775e-01	8.125013e+14	9.249208e+14	3.799450e+14	1.577105e+04	1.058872e+04	4.485191e+03	0	1.041083e-03
1.080000e+09	2.717428e+13	0.000000e+00	5.096775e-01	8.036795e+14	9.274235e+14	3.782732e+14	1.574385e+04	1.059346e+04	4.487199e+03	0	1.029985e-03
1.090000e+09	2.630279e+13	0.000000e+00	5.096775e-01	7.950132e+14	9.298088e+14	3.766126e+14	1.571693e+04	1.059797e+04	4.489109e+03	0	1.018854e-03
1.100000e+09	2.544733e+13	0.000000e+00	5.096775e-01	7.864991e+14	9.320788e+14	3.749631e+14	1.569031e+04	1.060225e+04	4.490924e+03	0	1.007687e-03
1.110000e+09	2.460757e+13	0.000000e+00	5.096775e-01	7.781338e+14	9.342358e+14	3.733248e+14	1.566397e+04	1.060631e+04	4.492645e+03	0	9.964779e-04
1.120000e+09	2.378315e+13	0.000000e+00	5.096775e-01	7.699141e+14	9.362813e+14	3.716974e+14	1.563791e+04	1.061016e+04	4.494274e+03	0	9.852230e-04
1.130000e+09	2.297374e+13	0.000000e+00	5.096775e-01	7.618370e+14	9.382175e+14	3.700809e+14	1.561212e+04	1.061380e+04	4.495814e+03	0	9.739171e-04
1.140000e+09	2.217902e+13	0.000000e+00	5.096775e-01	7.538993e+14	9.400461e+14	3.684752e+14	1.558660e+04	1.061722e+04	4.497266e+03	0	9.625550e-04
1.150000e+09	2.139866e+13	0.000000e+00	5.096775e-01	7.460980e+14	9.417697e+14	3.668802e+14	1.556135e+04	1.062045e+04	4.498633e+03	0	9.511309e-04
1.160000e+09	2.063236e+13	0.000000e+00	5.096775e-01	7.384303e+14	9.433898e+14	3.652959e+14	1.553636e+04	1.062348e+04	4.499916e+03	0	9.396390e-04
1.170000e+09	1.987981e+13	0.000000e+00	5.096775e-01	7.308933e+14	9.449084e+14	3.637221e+14	1.551162e+04	1.062632e+04	4.501117e+03	0	9.280729e-04
1.180000e+09	1.914070e+13	0.000000e+00	5.096775e-01	7.234842e+14	9.463276e+14	3.621588e+14	1.548714e+04	1.062896e+04	4.502239e+03	0	9.164259e-04
1.190000e+09	1.841476e+13	0.000000e+00	5.096775e-01	7.162003e+14	9.476491e+14	3.606058e+14	1.546291e+04	1.063143e+04	4.503282e+03	0	9.046907e-04
1.200000e+09	1.770170e+13	0.000000e+00	5.096775e-01	7.090390e+14	9.488749e+14	3.590632e+14	1.543891e+04	1.063371e+04	4.504248e+03	0	8.928594e-04
1.210000e+09	1.700124e+13	0.000000e+00	5.096775e-01	7.019975e+14	9.500072e+14	3.575308e+14	1.541516e+04	1.063581e+04	4.505140e+03	0	8.809236e-04
1.220000e+09	1.631311e+13	0.000000e+00	5.096775e-01	6.950735e+14	9.510476e+14	3.560086e+14	1.539164e+04	1.063775e+04	4.505959e+03	0	8.688744e-04
1.230000e+09	1.563705e+13	0.000000e+00	5.096775e-01	6.882645e+14	9.519978e+14	3.544965e+14	1.536835e+04	1.063951e+04	4.506706e+03	0	8.567018e-04
1.240000e+09	1.497280e+13	0.000000e+00	5.096775e-01	6.815680e+14	9.528603e+14	3.529943e+14	1.534529e+04	1.064111e+04	4.507384e+03	0	8.443952e-04
1.250000e+09	1.432011e+13	0.000000e+00	5.096775e-01	6.749816e+14	9.536363e+14	3.515020e+14	1.532246e+04	1.064255e+04	4.507993e+03	0	8.319429e-04
1.260000e+09	1.367873e+13	0.000000e+00	5.096775e-01	6.685031e+14	9.543277e+14	3.500196e+14	1.529984e+04	1.064383e+04	4.508536e+03	0	8.193322e-04
1.270000e+09	1.304843e+13	0.000000e+00	5.096775e-01	6.621303e+14	9.549366e+14	3.485470e+14	1.527744e+04	1.064496e+04	4.509014e+03	0	8.065490e-04
1.280000e+09	1.242896e+13	0.000000e+00	5.096775e-01	6.558609e+14	9.554649e+14	3.470840e+14	1.525526e+04	1.064594e+04	4.509428e+03	0	7.935781e-04
1.290000e+09	1.182011e+13	0.000000e+00	5.096775e-01	6.496927e+14	9.559141e+14	3.456307e+14	1.523328e+04	1.064677e+04	4.509780e+03	0	7.804023e-04
1.300000e+09	1.122164e+13	0.000000e+00	5.096775e-01	6.436238e+14	9.562854e+14	3.441869e+14	1.521151e+04	1.064745e+04	4.510071e+03	0	7.670027e-04
1.310000e+09	1.063334e+13	0.000000e+00	5.096775e-01	6.376520e+14	9.565817e+14	3.427526e+14	1.518994e+04	1.064800e+04	4.510303e+03	0	7.533579e-04
1.320000e+09	1.005500e+13	0.000000e+00	5.096775e-01	6.317754e+14	9.568038e+14	3.413276e+14	1.516857e+04	1.064841e+04	4.510477e+03	0	7.394443e-04
1.330000e+09	9.486412e+12	0.000000e+00	5.096775e-01	6.259919e+14	9.569535e+14	3.399120e+14	1.514740e+04	1.064869e+04	4.510595e+03	0	7.252350e-04
1.340000e+09	8.927365e+12	0.000000e+00	5.096775e-01	6.202997e+14	9.570328e+14	3.385056e+14	1.512642e+04	1.064884e+04	4.510657e+03	0	7.106992e-04
1.350000e+09	8.377665e+12	0.000000e+00	5.096775e-01	6.146970e+14	9.570430e+14	3.371084e+14	1.510564e+04	1.064886e+04	4.510665e+03	0	6.958021e-04
1.360000e+09	7.837118e+12	0.000000e+00	5.096775e-01	6.091818e+14	9.569861e+14	3.357203e+14	1.508503e+04	1.064875e+04	4.510620e+03	0	6.805033e-04
