#t		Qconv[W]	Ri[Rp]		R*[Rp]		Qc[W]		Qm[W]		Qr[W]		Tcmb[K]		Tl[K]		Tup[K]		RiFlag		Bs[T]
0.000000e+00	4.188514e+14	0.000000e+00	5.096774e-01	4.538819e+15	4.871512e+13	6.794704e+14	2.348611e+04	7.111857e+03	2.974457e+03	0	2.560814e-03
1.000000e+07	4.091511e+14	0.000000e+00	5.096774e-01	4.449816e+15	5.367600e+13	6.757057e+14	2.334512e+04	7.200219e+03	3.011413e+03	0	2.540891e-03
2.000000e+07	3.997055e+14	0.000000e+00	5.096774e-01	4.363112e+15	5.892147e+13	6.719691e+14	2.320686e+04	7.286906e+03	3.047669e+03	0	2.521185e-03
3.000000e+07	3.905058e+14	0.000000e+00	5.096774e-01	4.278627e+15	6.445153e+13	6.682604e+14	2.307128e+04	7.371955e+03	3.083240e+03	0	2.501692e-03
4.000000e+07	3.815435e+14	0.000000e+00	5.096774e-01	4.196287e+15	7.026544e+13	6.645794e+14	2.293829e+04	7.455399e+03	3.118139e+03	0	2.482406e-03
5.000000e+07	3.728106e+14	0.000000e+00	5.096774e-01	4.116019e+15	7.636167e+13	6.609258e+14	2.280784e+04	7.537269e+03	3.152381e+03	0	2.463320e-03
6.000000e+07	3.642995e+14	0.000000e+00	5.096774e-01	4.037757e+15	8.273800e+13	6.572995e+14	2.267987e+04	7.617597e+03	3.185977e+03	0	2.444430e-03
7.000000e+07	3.560027e+14	0.000000e+00	5.096774e-01	3.961433e+15	8.939150e+13	6.537002e+14	2.255431e+04	7.696413e+03	3.218941e+03	0	2.425730e-03
8.000000e+07	3.479133e+14	0.000000e+00	5.096774e-01	3.886985e+15	9.631859e+13	6.501277e+14	2.243110e+04	7.773745e+03	3.251285e+03	0	2.407216e-03
9.000000e+07	3.400245e+14	0.000000e+00	5.096774e-01	3.814352e+15	1.035151e+14	6.465817e+14	2.231018e+04	7.849623e+03	3.283019e+03	0	2.388883e-03
1.000000e+08	3.323299e+14	0.000000e+00	5.096774e-01	3.743479e+15	1.109762e+14	6.430621e+14	2.219151e+04	7.924072e+03	3.314157e+03	0	2.370725e-03
1.100000e+08	3.248233e+14	0.000000e+00	5.096774e-01	3.674308e+15	1.186966e+14	6.395686e+14	2.207502e+04	7.997119e+03	3.344708e+03	0	2.352739e-03
1.200000e+08	3.174988e+14	0.000000e+00	5.096774e-01	3.606789e+15	1.266703e+14	6.361009e+14	2.196067e+04	8.068789e+03	3.374683e+03	0	2.334921e-03
1.300000e+08	3.103508e+14	0.000000e+00	5.096774e-01	3.540869e+15	1.348911e+14	6.326590e+14	2.184840e+04	8.139106e+03	3.404092e+03	0	2.317265e-03
1.400000e+08	3.033739e+14	0.000000e+00	5.096774e-01	3.476501e+15	1.433522e+14	6.292425e+14	2.173817e+04	8.208094e+03	3.432946e+03	0	2.299769e-03
1.500000e+08	2.965629e+14	0.000000e+00	5.096774e-01	3.413638e+15	1.520463e+14	6.258513e+14	2.162993e+04	8.275776e+03	3.461253e+03	0	2.282428e-03
1.600000e+08	2.899128e+14	0.000000e+00	5.096774e-01	3.352236e+15	1.609659e+14	6.224851e+14	2.152362e+04	8.342174e+03	3.489023e+03	0	2.265238e-03
1.700000e+08	2.834188e+14	0.000000e+00	5.096774e-01	3.292251e+15	1.701031e+14	6.191438e+14	2.141922e+04	8.407310e+03	3.516266e+03	0	2.248197e-03
1.800000e+08	2.770763e+14	0.000000e+00	5.096774e-01	3.233643e+15	1.794494e+14	6.158271e+14	2.131667e+04	8.471204e+03	3.542989e+03	0	2.231300e-03
1.900000e+08	2.708810e+14	0.000000e+00	5.096774e-01	3.176372e+15	1.889965e+14	6.125348e+14	2.121594e+04	8.533878e+03	3.569202e+03	0	2.214544e-03
2.000000e+08	2.648286e+14	0.000000e+00	5.096774e-01	3.120400e+15	1.987355e+14	6.092667e+14	2.111697e+04	8.595351e+03	3.594912e+03	0	2.197926e-03
2.100000e+08	2.589151e+14	0.000000e+00	5.096774e-01	3.065690e+15	2.086574e+14	6.060227e+14	2.101974e+04	8.655643e+03	3.620128e+03	0	2.181443e-03
2.200000e+08	2.531365e+14	0.000000e+00	5.096774e-01	3.012208e+15	2.187531e+14	6.028025e+14	2.092420e+04	8.714772e+03	3.644859e+03	0	2.165092e-03
2.300000e+08	2.474891e+14	0.000000e+00	5.096774e-01	2.959919e+15	2.290131e+14	5.996060e+14	2.083031e+04	8.772757e+03	3.669110e+03	0	2.148870e-03
2.400000e+08	2.419692e+14	0.000000e+00	5.096774e-01	2.908791e+15	2.394280e+14	5.964329e+14	2.073804e+04	8.829616e+03	3.692891e+03	0	2.132774e-03
2.500000e+08	2.365734e+14	0.000000e+00	5.096774e-01	2.858793e+15	2.499881e+14	5.932830e+14	2.064736e+04	8.885368e+03	3.716208e+03	0	2.116801e-03
2.600000e+08	2.312983e+14	0.000000e+00	5.096774e-01	2.809895e+15	2.606838e+14	5.901561e+14	2.055822e+04	8.940028e+03	3.739070e+03	0	2.100949e-03
2.700000e+08	2.261408e+14	0.000000e+00	5.096774e-01	2.762066e+15	2.715054e+14	5.870522e+14	2.047060e+04	8.993615e+03	3.761481e+03	0	2.085216e-03
2.800000e+08	2.210975e+14	0.000000e+00	5.096774e-01	2.715280e+15	2.824430e+14	5.839709e+14	2.038446e+04	9.046144e+03	3.783451e+03	0	2.069598e-03
2.900000e+08	2.161657e+14	0.000000e+00	5.096774e-01	2.669509e+15	2.934870e+14	5.809121e+14	2.029977e+04	9.097632e+03	3.804986e+03	0	2.054094e-03
3.000000e+08	2.113423e+14	0.000000e+00	5.096774e-01	2.624726e+15	3.046274e+14	5.778756e+14	2.021650e+04	9.148096e+03	3.826092e+03	0	2.038701e-03
3.100000e+08	2.066245e+14	0.000000e+00	5.096774e-01	2.580907e+15	3.158547e+14	5.748612e+14	2.013462e+04	9.197550e+03	3.846775e+03	0	2.023417e-03
3.200000e+08	2.020097e+14	0.000000e+00	5.096774e-01	2.538027e+15	3.271592e+14	5.718687e+14	2.005410e+04	9.246011e+03	3.867043e+03	0	2.008239e-03
3.300000e+08	1.974952e+14	0.000000e+00	5.096774e-01	2.496062e+15	3.385312e+14	5.688980e+14	1.997491e+04	9.293493e+03	3.886902e+03	0	1.993167e-03
3.400000e+08	1.930785e+14	0.000000e+00	5.096774e-01	2.454990e+15	3.499613e+14	5.659489e+14	1.989701e+04	9.340011e+03	3.906358e+03	0	1.978196e-03
3.500000e+08	1.887572e+14	0.000000e+00	5.096774e-01	2.414789e+15	3.614400e+14	5.630211e+14	1.982040e+04	9.385581e+03	3.925417e+03	0	1.963327e-03
3.600000e+08	1.845288e+14	0.000000e+00	5.096774e-01	2.375436e+15	3.729583e+14	5.601146e+14	1.974503e+04	9.430216e+03	3.944085e+03	0	1.948556e-03
3.700000e+08	1.803911e+14	0.000000e+00	5.096774e-01	2.336911e+15	3.845066e+14	5.572292e+14	1.967088e+04	9.473931e+03	3.962369e+03	0	1.933881e-03
3.800000e+08	1.763419e+14	0.000000e+00	5.096774e-01	2.299195e+15	3.960764e+14	5.543646e+14	1.959792e+04	9.516740e+03	3.980273e+03	0	1.919302e-03
3.900000e+08	1.723791e+14	0.000000e+00	5.096774e-01	2.262267e+15	4.076586e+14	5.515207e+14	1.952614e+04	9.558657e+03	3.997804e+03	0	1.904816e-03
4.000000e+08	1.685004e+14	0.000000e+00	5.096774e-01	2.226109e+15	4.192447e+14	5.486974e+14	1.945551e+04	9.599696e+03	4.014968e+03	0	1.890420e-03
4.100000e+08	1.647040e+14	0.000000e+00	5.096774e-01	2.190703e+15	4.308260e+14	5.458944e+14	1.938599e+04	9.639870e+03	4.031771e+03	0	1.876115e-03
4.200000e+08	1.609878e+14	0.000000e+00	5.096774e-01	2.156030e+15	4.423947e+14	5.431117e+14	1.931758e+04	9.679192e+03	4.048217e+03	0	1.861897e-03
4.300000e+08	1.573499e+14	0.000000e+00	5.096774e-01	2.122073e+15	4.539423e+14	5.403490e+14	1.925024e+04	9.717676e+03	4.064312e+03	0	1.847766e-03
4.400000e+08	1.537886e+14	0.000000e+00	5.096774e-01	2.088816e+15	4.654612e+14	5.376061e+14	1.918396e+04	9.755335e+03	4.080063e+03	0	1.833719e-03
4.500000e+08	1.503019e+14	0.000000e+00	5.096774e-01	2.056243e+15	4.769438e+14	5.348830e+14	1.911871e+04	9.792181e+03	4.095473e+03	0	1.819755e-03
4.600000e+08	1.468883e+14	0.000000e+00	5.096774e-01	2.024337e+15	4.883826e+14	5.321794e+14	1.905448e+04	9.828228e+03	4.110549e+03	0	1.805873e-03
4.700000e+08	1.435458e+14	0.000000e+00	5.096774e-01	1.993083e+15	4.997706e+14	5.294952e+14	1.899123e+04	9.863487e+03	4.125296e+03	0	1.792070e-03
4.800000e+08	1.402730e+14	0.000000e+00	5.096774e-01	1.962466e+15	5.111006e+14	5.268302e+14	1.892896e+04	9.897972e+03	4.139719e+03	0	1.778346e-03
4.900000e+08	1.370682e+14	0.000000e+00	5.096774e-01	1.932471e+15	5.223662e+14	5.241843e+14	1.886764e+04	9.931694e+03	4.153823e+03	0	1.764698e-03
5.000000e+08	1.339299e+14	0.000000e+00	5.096774e-01	1.903085e+15	5.335610e+14	5.215573e+14	1.880725e+04	9.964666e+03	4.167613e+03	0	1.751125e-03
5.100000e+08	1.308565e+14	0.000000e+00	5.096774e-01	1.874294e+15	5.446786e+14	5.189492e+14	1.874778e+04	9.996900e+03	4.181095e+03	0	1.737627e-03
5.200000e+08	1.278465e+14	0.000000e+00	5.096774e-01	1.846084e+15	5.557130e+14	5.163596e+14	1.868920e+04	1.002841e+04	4.194272e+03	0	1.724200e-03
5.300000e+08	1.248986e+14	0.000000e+00	5.096774e-01	1.818442e+15	5.666587e+14	5.137884e+14	1.863150e+04	1.005920e+04	4.207151e+03	0	1.710845e-03
5.400000e+08	1.220113e+14	0.000000e+00	5.096774e-01	1.791355e+15	5.775101e+14	5.112356e+14	1.857466e+04	1.008929e+04	4.219735e+03	0	1.697559e-03
5.500000e+08	1.191832e+14	0.000000e+00	5.096774e-01	1.764811e+15	5.882620e+14	5.087010e+14	1.851866e+04	1.011869e+04	4.232030e+03	0	1.684340e-03
5.600000e+08	1.164131e+14	0.000000e+00	5.096774e-01	1.738798e+15	5.989096e+14	5.061844e+14	1.846349e+04	1.014740e+04	4.244041e+03	0	1.671188e-03
5.700000e+08	1.136996e+14	0.000000e+00	5.096774e-01	1.713304e+15	6.094481e+14	5.036856e+14	1.840913e+04	1.017545e+04	4.255772e+03	0	1.658101e-03
5.800000e+08	1.110414e+14	0.000000e+00	5.096774e-01	1.688317e+15	6.198730e+14	5.012046e+14	1.835556e+04	1.020284e+04	4.267227e+03	0	1.645078e-03
5.900000e+08	1.084373e+14	0.000000e+00	5.096774e-01	1.663827e+15	6.301800e+14	4.987412e+14	1.830277e+04	1.022958e+04	4.278412e+03	0	1.632116e-03
6.000000e+08	1.058862e+14	0.000000e+00	5.096774e-01	1.639822e+15	6.403652e+14	4.962952e+14	1.825074e+04	1.025569e+04	4.289331e+03	0	1.619215e-03
6.100000e+08	1.033868e+14	0.000000e+00	5.096774e-01	1.616291e+15	6.504250e+14	4.938665e+14	1.819946e+04	1.028117e+04	4.299988e+03	0	1.606373e-03
6.200000e+08	1.009380e+14	0.000000e+00	5.096774e-01	1.593225e+15	6.603554e+14	4.914550e+14	1.814891e+04	1.030604e+04	4.310388e+03	0	1.593589e-03
6.300000e+08	9.853875e+13	0.000000e+00	5.096774e-01	1.570613e+15	6.701535e+14	4.890604e+14	1.809908e+04	1.033030e+04	4.320535e+03	0	1.580861e-03
6.400000e+08	9.618783e+13	0.000000e+00	5.096774e-01	1.548444e+15	6.798163e+14	4.866828e+14	1.804995e+04	1.035397e+04	4.330434e+03	0	1.568188e-03
6.500000e+08	9.388424e+13	0.000000e+00	5.096774e-01	1.526710e+15	6.893407e+14	4.843219e+14	1.800152e+04	1.037705e+04	4.340088e+03	0	1.555568e-03
6.600000e+08	9.162694e+13	0.000000e+00	5.096774e-01	1.505401e+15	6.987239e+14	4.819777e+14	1.795376e+04	1.039956e+04	4.349503e+03	0	1.543000e-03
6.700000e+08	8.941490e+13	0.000000e+00	5.096774e-01	1.484507e+15	7.079640e+14	4.796499e+14	1.790666e+04	1.042151e+04	4.358682e+03	0	1.530481e-03
6.800000e+08	8.724713e+13	0.000000e+00	5.096774e-01	1.464020e+15	7.170586e+14	4.773385e+14	1.786022e+04	1.044290e+04	4.367629e+03	0	1.518012e-03
6.900000e+08	8.512267e+13	0.000000e+00	5.096774e-01	1.443931e+15	7.260052e+14	4.750433e+14	1.781441e+04	1.046375e+04	4.376348e+03	0	1.505589e-03
7.000000e+08	8.304056e+13	0.000000e+00	5.096774e-01	1.424230e+15	7.348026e+14	4.727641e+14	1.776923e+04	1.048406e+04	4.384844e+03	0	1.493212e-03
7.100000e+08	8.099988e+13	0.000000e+00	5.096774e-01	1.404910e+15	7.434490e+14	4.705010e+14	1.772467e+04	1.050385e+04	4.393120e+03	0	1.480879e-03
7.200000e+08	7.899973e+13	0.000000e+00	5.096774e-01	1.385963e+15	7.519427e+14	4.682536e+14	1.768070e+04	1.052312e+04	4.401181e+03	0	1.468588e-03
7.300000e+08	7.703923e+13	0.000000e+00	5.096774e-01	1.367380e+15	7.602828e+14	4.660220e+14	1.763733e+04	1.054189e+04	4.409030e+03	0	1.456338e-03
7.400000e+08	7.511750e+13	0.000000e+00	5.096774e-01	1.349153e+15	7.684679e+14	4.638059e+14	1.759454e+04	1.056016e+04	4.416670e+03	0	1.444126e-03
7.500000e+08	7.323370e+13	0.000000e+00	5.096774e-01	1.331275e+15	7.764971e+14	4.616053e+14	1.755231e+04	1.057794e+04	4.424107e+03	0	1.431952e-03
7.600000e+08	7.138702e+13	0.000000e+00	5.096774e-01	1.313738e+15	7.843700e+14	4.594200e+14	1.751064e+04	1.059524e+04	4.431343e+03	0	1.419813e-03
7.700000e+08	6.957664e+13	0.000000e+00	5.096774e-01	1.296535e+15	7.920856e+14	4.572500e+14	1.746952e+04	1.061207e+04	4.438382e+03	0	1.407708e-03
7.800000e+08	6.780177e+13	0.000000e+00	5.096774e-01	1.279659e+15	7.996436e+14	4.550950e+14	1.742894e+04	1.062844e+04	4.445228e+03	0	1.395635e-03
7.900000e+08	6.606165e+13	0.000000e+00	5.096774e-01	1.263103e+15	8.070437e+14	4.529549e+14	1.738888e+04	1.064435e+04	4.451885e+03	0	1.383591e-03
8.000000e+08	6.435551e+13	0.000000e+00	5.096774e-01	1.246859e+15	8.142856e+14	4.508297e+14	1.734934e+04	1.065982e+04	4.458355e+03	0	1.371576e-03
8.100000e+08	6.268264e+13	0.000000e+00	5.096774e-01	1.230921e+15	8.213696e+14	4.487193e+14	1.731030e+04	1.067486e+04	4.464643e+03	0	1.359588e-03
8.200000e+08	6.104229e+13	0.000000e+00	5.096774e-01	1.215283e+15	8.282954e+14	4.466234e+14	1.727177e+04	1.068946e+04	4.470751e+03	0	1.347623e-03
8.300000e+08	5.943378e+13	0.000000e+00	5.096774e-01	1.199937e+15	8.350636e+14	4.445421e+14	1.723372e+04	1.070365e+04	4.476684e+03	0	1.335680e-03
8.400000e+08	5.785640e+13	0.000000e+00	5.096774e-01	1.184879e+15	8.416742e+14	4.424751e+14	1.719614e+04	1.071742e+04	4.482444e+03	0	1.323758e-03
8.500000e+08	5.630950e+13	0.000000e+00	5.096774e-01	1.170101e+15	8.481279e+14	4.404224e+14	1.715904e+04	1.073079e+04	4.488035e+03	0	1.311853e-03
8.600000e+08	5.479240e+13	0.000000e+00	5.096774e-01	1.155598e+15	8.544249e+14	4.383838e+14	1.712240e+04	1.074376e+04	4.493460e+03	0	1.299965e-03
8.700000e+08	5.330448e+13	0.000000e+00	5.096774e-01	1.141363e+15	8.605665e+14	4.363592e+14	1.708621e+04	1.075634e+04	4.498722e+03	0	1.288089e-03
8.800000e+08	5.184509e+13	0.000000e+00	5.096774e-01	1.127392e+15	8.665527e+14	4.343486e+14	1.705047e+04	1.076854e+04	4.503824e+03	0	1.276225e-03
8.900000e+08	5.041362e+13	0.000000e+00	5.096774e-01	1.113678e+15	8.723849e+14	4.323518e+14	1.701516e+04	1.078036e+04	4.508770e+03	0	1.264370e-03
9.000000e+08	4.900947e+13	0.000000e+00	5.096774e-01	1.100216e+15	8.780638e+14	4.303687e+14	1.698028e+04	1.079182e+04	4.513563e+03	0	1.252520e-03
9.100000e+08	4.763206e+13	0.000000e+00	5.096774e-01	1.087000e+15	8.835907e+14	4.283992e+14	1.694582e+04	1.080292e+04	4.518205e+03	0	1.240675e-03
9.200000e+08	4.628080e+13	0.000000e+00	5.096774e-01	1.074026e+15	8.889662e+14	4.264432e+14	1.691178e+04	1.081367e+04	4.522699e+03	0	1.228830e-03
9.300000e+08	4.495514e+13	0.000000e+00	5.096774e-01	1.061288e+15	8.941919e+14	4.245006e+14	1.687814e+04	1.082407e+04	4.527048e+03	0	1.216983e-03
9.400000e+08	4.365452e+13	0.000000e+00	5.096774e-01	1.048781e+15	8.992689e+14	4.225712e+14	1.684489e+04	1.083413e+04	4.531256e+03	0	1.205132e-03
9.500000e+08	4.237842e+13	0.000000e+00	5.096774e-01	1.036500e+15	9.041983e+14	4.206550e+14	1.681204e+04	1.084386e+04	4.535325e+03	0	1.193273e-03
9.600000e+08	4.112629e+13	0.000000e+00	5.096774e-01	1.024441e+15	9.089818e+14	4.187519e+14	1.677957e+04	1.085326e+04	4.539257e+03	0	1.181403e-03
9.700000e+08	3.989763e+13	0.000000e+00	5.096774e-01	1.012598e+15	9.136207e+14	4.168617e+14	1.674747e+04	1.086234e+04	4.543056e+03	0	1.169519e-03
9.800000e+08	3.869194e+13	0.000000e+00	5.096774e-01	1.000968e+15	9.181163e+14	4.149844e+14	1.671575e+04	1.087111e+04	4.546724e+03	0	1.157617e-03
9.900000e+08	3.750872e+13	0.000000e+00	5.096774e-01	9.895452e+14	9.224705e+14	4.131199e+14	1.668439e+04	1.087957e+04	4.550263e+03	0	1.145695e-03
1.000000e+09	3.634750e+13	0.000000e+00	5.096774e-01	9.783257e+14	9.266843e+14	4.112680e+14	1.665338e+04	1.088774e+04	4.553677e+03	0	1.133747e-03
1.010000e+09	3.520780e+13	0.000000e+00	5.096774e-01	9.673053e+14	9.307600e+14	4.094287e+14	1.662273e+04	1.089560e+04	4.556968e+03	0	1.121771e-03
1.020000e+09	3.408917e+13	0.000000e+00	5.096774e-01	9.564796e+14	9.346987e+14	4.076018e+14	1.659242e+04	1.090318e+04	4.560138e+03	0	1.109763e-03
1.030000e+09	3.299115e+13	0.000000e+00	5.096774e-01	9.458447e+14	9.385024e+14	4.057873e+14	1.656245e+04	1.091048e+04	4.563190e+03	0	1.097717e-03
1.040000e+09	3.191330e+13	0.000000e+00	5.096774e-01	9.353964e+14	9.421723e+14	4.039851e+14	1.653281e+04	1.091750e+04	4.566127e+03	0	1.085630e-03
1.050000e+09	3.085521e+13	0.000000e+00	5.096774e-01	9.251309e+14	9.457108e+14	4.021950e+14	1.650350e+04	1.092425e+04	4.568950e+03	0	1.073497e-03
1.060000e+09	2.981644e+13	0.000000e+00	5.096774e-01	9.150443e+14	9.491194e+14	4.004170e+14	1.647451e+04	1.093074e+04	4.571661e+03	0	1.061313e-03
1.070000e+09	2.879659e+13	0.000000e+00	5.096774e-01	9.051329e+14	9.523997e+14	3.986510e+14	1.644583e+04	1.093696e+04	4.574264e+03	0	1.049072e-03
1.080000e+09	2.779526e+13	0.000000e+00	5.096774e-01	8.953930e+14	9.555536e+14	3.968969e+14	1.641746e+04	1.094293e+04	4.576761e+03	0	1.036768e-03
1.090000e+09	2.681205e+13	0.000000e+00	5.096774e-01	8.858211e+14	9.585831e+14	3.951545e+14	1.638940e+04	1.094865e+04	4.579153e+03	0	1.024397e-03
1.100000e+09	2.584658e+13	0.000000e+00	5.096774e-01	8.764135e+14	9.614899e+14	3.934239e+14	1.636164e+04	1.095412e+04	4.581443e+03	0	1.011950e-03
1.110000e+09	2.489848e+13	0.000000e+00	5.096774e-01	8.671670e+14	9.642762e+14	3.917049e+14	1.633417e+04	1.095936e+04	4.583633e+03	0	9.994223e-04
1.120000e+09	2.396738e+13	0.000000e+00	5.096774e-01	8.580781e+14	9.669430e+14	3.899973e+14	1.630699e+04	1.096436e+04	4.585725e+03	0	9.868056e-04
1.130000e+09	2.305292e+13	0.000000e+00	5.096774e-01	8.491437e+14	9.694928e+14	3.883012e+14	1.628009e+04	1.096914e+04	4.587722e+03	0	9.740922e-04
1.140000e+09	2.215475e+13	0.000000e+00	5.096774e-01	8.403603e+14	9.719274e+14	3.866165e+14	1.625347e+04	1.097368e+04	4.589624e+03	0	9.612737e-04
1.150000e+09	2.127253e+13	0.000000e+00	5.096774e-01	8.317251e+14	9.742488e+14	3.849430e+14	1.622713e+04	1.097801e+04	4.591434e+03	0	9.483409e-04
1.160000e+09	2.040593e+13	0.000000e+00	5.096774e-01	8.232348e+14	9.764586e+14	3.832806e+14	1.620106e+04	1.098213e+04	4.593155e+03	0	9.352841e-04
1.170000e+09	1.955461e+13	0.000000e+00	5.096774e-01	8.148865e+14	9.785587e+14	3.816294e+14	1.617525e+04	1.098603e+04	4.594788e+03	0	9.220925e-04
1.180000e+09	1.871826e+13	0.000000e+00	5.096774e-01	8.066773e+14	9.805513e+14	3.799891e+14	1.614970e+04	1.098973e+04	4.596334e+03	0	9.087545e-04
1.190000e+09	1.789657e+13	0.000000e+00	5.096774e-01	7.986042e+14	9.824379e+14	3.783597e+14	1.612441e+04	1.099322e+04	4.597796e+03	0	8.952576e-04
1.200000e+09	1.708922e+13	0.000000e+00	5.096774e-01	7.906646e+14	9.842206e+14	3.767412e+14	1.609937e+04	1.099652e+04	4.599176e+03	0	8.815877e-04
1.210000e+09	1.629593e+13	0.000000e+00	5.096774e-01	7.828557e+14	9.859011e+14	3.751333e+14	1.607458e+04	1.099963e+04	4.600475e+03	0	8.677297e-04
1.220000e+09	1.551639e+13	0.000000e+00	5.096774e-01	7.751748e+14	9.874813e+14	3.735362e+14	1.605004e+04	1.100254e+04	4.601694e+03	0	8.536667e-04
1.230000e+09	1.475033e+13	0.000000e+00	5.096774e-01	7.676193e+14	9.889628e+14	3.719496e+14	1.602573e+04	1.100528e+04	4.602837e+03	0	8.393800e-04
1.240000e+09	1.399746e+13	0.000000e+00	5.096774e-01	7.601866e+14	9.903481e+14	3.703734e+14	1.600166e+04	1.100783e+04	4.603904e+03	0	8.248491e-04
1.250000e+09	1.325751e+13	0.000000e+00	5.096774e-01	7.528742e+14	9.916386e+14	3.688077e+14	1.597783e+04	1.101020e+04	4.604897e+03	0	8.100505e-04
1.260000e+09	1.253022e+13	0.000000e+00	5.096774e-01	7.456798e+14	9.928361e+14	3.672523e+14	1.595422e+04	1.101240e+04	4.605818e+03	0	7.949582e-04
1.270000e+09	1.181532e+13	0.000000e+00	5.096774e-01	7.386008e+14	9.939423e+14	3.657072e+14	1.593084e+04	1.101443e+04	4.606667e+03	0	7.795427e-04
1.280000e+09	1.111256e+13	0.000000e+00	5.096774e-01	7.316350e+14	9.949591e+14	3.641722e+14	1.590768e+04	1.101630e+04	4.607448e+03	0	7.637703e-04
1.290000e+09	1.042169e+13	0.000000e+00	5.096774e-01	7.247802e+14	9.958887e+14	3.626473e+14	1.588473e+04	1.101800e+04	4.608161e+03	0	7.476026e-04
1.300000e+09	9.742465e+12	0.000000e+00	5.096774e-01	7.180340e+14	9.967320e+14	3.611324e+14	1.586200e+04	1.101955e+04	4.608807e+03	0	7.309949e-04
1.310000e+09	9.074650e+12	0.000000e+00	5.096774e-01	7.113942e+14	9.974915e+14	3.596275e+14	1.583948e+04	1.102094e+04	4.609389e+03	0	7.138956e-04
1.320000e+09	8.418010e+12	0.000000e+00	5.096774e-01	7.048588e+14	9.981687e+14	3.581324e+14	1.581717e+04	1.102218e+04	4.609907e+03	0	6.962436e-04
1.330000e+09	7.772319e+12	0.000000e+00	5.096774e-01	6.984257e+14	9.987650e+14	3.566470e+14	1.579507e+04	1.102327e+04	4.610363e+03	0	6.779666e-04
1.340000e+09	7.137353e+12	0.000000e+00	5.096774e-01	6.920928e+14	9.992823e+14	3.551714e+14	1.577316e+04	1.102422e+04	4.610759e+03	0	6.589773e-04
1.350000e+09	6.512895e+12	0.000000e+00	5.096774e-01	6.858582e+14	9.997224e+14	3.537054e+14	1.575145e+04	1.102502e+04	4.611096e+03	0	6.391696e-04
1.360000e+09	5.898733e+12	0.000000e+00	5.096774e-01	6.797198e+14	1.000087e+15	3.522490e+14	1.572994e+04	1.102569e+04	4.611374e+03	0	6.184117e-04
