#t		Qconv[W]	Ri[Rp]		R*[Rp]		Qc[W]		Qm[W]		Qr[W]		Tcmb[K]		Tl[K]		Tup[K]		RiFlag		Bs[T]
0.000000e+00	4.699760e+14	0.000000e+00	5.096775e-01	5.098741e+15	4.200835e+13	7.542089e+14	2.534276e+04	7.477089e+03	3.036343e+03	0	2.655909e-03
1.000000e+07	4.600957e+14	0.000000e+00	5.096775e-01	5.011736e+15	4.628383e+13	7.500300e+14	2.520583e+04	7.567621e+03	3.073106e+03	0	2.637165e-03
2.000000e+07	4.504319e+14	0.000000e+00	5.096775e-01	4.926604e+15	5.081817e+13	7.458824e+14	2.507122e+04	7.656662e+03	3.109265e+03	0	2.618571e-03
3.000000e+07	4.409787e+14	0.000000e+00	5.096775e-01	4.843292e+15	5.561369e+13	7.417658e+14	2.493887e+04	7.744239e+03	3.144828e+03	0	2.600122e-03
4.000000e+07	4.317300e+14	0.000000e+00	5.096775e-01	4.761750e+15	6.067210e+13	7.376799e+14	2.480874e+04	7.830376e+03	3.179808e+03	0	2.581816e-03
5.000000e+07	4.226802e+14	0.000000e+00	5.096775e-01	4.681930e+15	6.599447e+13	7.336245e+14	2.468078e+04	7.915098e+03	3.214212e+03	0	2.563649e-03
6.000000e+07	4.138239e+14	0.000000e+00	5.096775e-01	4.603785e+15	7.158125e+13	7.295993e+14	2.455495e+04	7.998427e+03	3.248051e+03	0	2.545617e-03
7.000000e+07	4.051556e+14	0.000000e+00	5.096775e-01	4.527270e+15	7.743227e+13	7.256041e+14	2.443121e+04	8.080386e+03	3.281333e+03	0	2.527718e-03
8.000000e+07	3.966705e+14	0.000000e+00	5.096775e-01	4.452341e+15	8.354684e+13	7.216386e+14	2.430950e+04	8.160997e+03	3.314068e+03	0	2.509947e-03
9.000000e+07	3.883635e+14	0.000000e+00	5.096775e-01	4.378958e+15	8.992363e+13	7.177026e+14	2.418979e+04	8.240281e+03	3.346264e+03	0	2.492302e-03
1.000000e+08	3.802299e+14	0.000000e+00	5.096775e-01	4.307079e+15	9.656079e+13	7.137958e+14	2.407204e+04	8.318258e+03	3.377930e+03	0	2.474780e-03
1.100000e+08	3.722652e+14	0.000000e+00	5.096775e-01	4.236665e+15	1.034559e+14	7.099180e+14	2.395621e+04	8.394948e+03	3.409072e+03	0	2.457378e-03
1.200000e+08	3.644650e+14	0.000000e+00	5.096775e-01	4.167679e+15	1.106061e+14	7.060689e+14	2.384226e+04	8.470371e+03	3.439700e+03	0	2.440094e-03
1.300000e+08	3.568250e+14	0.000000e+00	5.096775e-01	4.100086e+15	1.180080e+14	7.022484e+14	2.373015e+04	8.544545e+03	3.469821e+03	0	2.422923e-03
1.400000e+08	3.493412e+14	0.000000e+00	5.096775e-01	4.033849e+15	1.256578e+14	6.984561e+14	2.361984e+04	8.617488e+03	3.499443e+03	0	2.405865e-03
1.500000e+08	3.420097e+14	0.000000e+00	5.096775e-01	3.968935e+15	1.335510e+14	6.946919e+14	2.351130e+04	8.689219e+03	3.528572e+03	0	2.388915e-03
1.600000e+08	3.348265e+14	0.000000e+00	5.096775e-01	3.905311e+15	1.416831e+14	6.909554e+14	2.340450e+04	8.759754e+03	3.557215e+03	0	2.372072e-03
1.700000e+08	3.277880e+14	0.000000e+00	5.096775e-01	3.842946e+15	1.500488e+14	6.872466e+14	2.329940e+04	8.829110e+03	3.585380e+03	0	2.355333e-03
1.800000e+08	3.208908e+14	0.000000e+00	5.096775e-01	3.781810e+15	1.586427e+14	6.835650e+14	2.319596e+04	8.897305e+03	3.613073e+03	0	2.338695e-03
1.900000e+08	3.141312e+14	0.000000e+00	5.096775e-01	3.721873e+15	1.674588e+14	6.799106e+14	2.309416e+04	8.964353e+03	3.640300e+03	0	2.322157e-03
2.000000e+08	3.075061e+14	0.000000e+00	5.096775e-01	3.663105e+15	1.764911e+14	6.762831e+14	2.299396e+04	9.030271e+03	3.667068e+03	0	2.305716e-03
2.100000e+08	3.010122e+14	0.000000e+00	5.096775e-01	3.605481e+15	1.857329e+14	6.726823e+14	2.289533e+04	9.095074e+03	3.693384e+03	0	2.289370e-03
2.200000e+08	2.946464e+14	0.000000e+00	5.096775e-01	3.548973e+15	1.951776e+14	6.691079e+14	2.279825e+04	9.158777e+03	3.719253e+03	0	2.273116e-03
2.300000e+08	2.884057e+14	0.000000e+00	5.096775e-01	3.493555e+15	2.048181e+14	6.655597e+14	2.270267e+04	9.221395e+03	3.744681e+03	0	2.256953e-03
2.400000e+08	2.822872e+14	0.000000e+00	5.096775e-01	3.439203e+15	2.146471e+14	6.620376e+14	2.260858e+04	9.282942e+03	3.769674e+03	0	2.240879e-03
2.500000e+08	2.762881e+14	0.000000e+00	5.096775e-01	3.385892e+15	2.246570e+14	6.585412e+14	2.251594e+04	9.343432e+03	3.794238e+03	0	2.224891e-03
2.600000e+08	2.704057e+14	0.000000e+00	5.096775e-01	3.333598e+15	2.348403e+14	6.550704e+14	2.242473e+04	9.402879e+03	3.818379e+03	0	2.208987e-03
2.700000e+08	2.646373e+14	0.000000e+00	5.096775e-01	3.282300e+15	2.451890e+14	6.516251e+14	2.233492e+04	9.461296e+03	3.842102e+03	0	2.193166e-03
2.800000e+08	2.589804e+14	0.000000e+00	5.096775e-01	3.231974e+15	2.556952e+14	6.482048e+14	2.224649e+04	9.518698e+03	3.865412e+03	0	2.177427e-03
2.900000e+08	2.534324e+14	0.000000e+00	5.096775e-01	3.182600e+15	2.663507e+14	6.448096e+14	2.215940e+04	9.575098e+03	3.888315e+03	0	2.161766e-03
3.000000e+08	2.479911e+14	0.000000e+00	5.096775e-01	3.134156e+15	2.771473e+14	6.414391e+14	2.207363e+04	9.630507e+03	3.910816e+03	0	2.146182e-03
3.100000e+08	2.426540e+14	0.000000e+00	5.096775e-01	3.086623e+15	2.880765e+14	6.380931e+14	2.198917e+04	9.684940e+03	3.932920e+03	0	2.130674e-03
3.200000e+08	2.374190e+14	0.000000e+00	5.096775e-01	3.039982e+15	2.991302e+14	6.347715e+14	2.190597e+04	9.738408e+03	3.954633e+03	0	2.115240e-03
3.300000e+08	2.322837e+14	0.000000e+00	5.096775e-01	2.994212e+15	3.102997e+14	6.314740e+14	2.182403e+04	9.790924e+03	3.975959e+03	0	2.099878e-03
3.400000e+08	2.272461e+14	0.000000e+00	5.096775e-01	2.949296e+15	3.215766e+14	6.282005e+14	2.174331e+04	9.842500e+03	3.996903e+03	0	2.084587e-03
3.500000e+08	2.223041e+14	0.000000e+00	5.096775e-01	2.905215e+15	3.329524e+14	6.249507e+14	2.166380e+04	9.893148e+03	4.017471e+03	0	2.069365e-03
3.600000e+08	2.174557e+14	0.000000e+00	5.096775e-01	2.861953e+15	3.444186e+14	6.217245e+14	2.158546e+04	9.942881e+03	4.037667e+03	0	2.054210e-03
3.700000e+08	2.126989e+14	0.000000e+00	5.096775e-01	2.819492e+15	3.559667e+14	6.185217e+14	2.150829e+04	9.991710e+03	4.057495e+03	0	2.039121e-03
3.800000e+08	2.080318e+14	0.000000e+00	5.096775e-01	2.777815e+15	3.675883e+14	6.153420e+14	2.143226e+04	1.003965e+04	4.076962e+03	0	2.024096e-03
3.900000e+08	2.034526e+14	0.000000e+00	5.096775e-01	2.736907e+15	3.792749e+14	6.121853e+14	2.135735e+04	1.008670e+04	4.096070e+03	0	2.009134e-03
4.000000e+08	1.989594e+14	0.000000e+00	5.096775e-01	2.696753e+15	3.910183e+14	6.090514e+14	2.128353e+04	1.013289e+04	4.114826e+03	0	1.994234e-03
4.100000e+08	1.945505e+14	0.000000e+00	5.096775e-01	2.657335e+15	4.028102e+14	6.059402e+14	2.121079e+04	1.017822e+04	4.133233e+03	0	1.979393e-03
4.200000e+08	1.902242e+14	0.000000e+00	5.096775e-01	2.618641e+15	4.146423e+14	6.028513e+14	2.113911e+04	1.022270e+04	4.151296e+03	0	1.964611e-03
4.300000e+08	1.859788e+14	0.000000e+00	5.096775e-01	2.580655e+15	4.265067e+14	5.997847e+14	2.106846e+04	1.026634e+04	4.169019e+03	0	1.949885e-03
4.400000e+08	1.818127e+14	0.000000e+00	5.096775e-01	2.543362e+15	4.383952e+14	5.967402e+14	2.099884e+04	1.030916e+04	4.186408e+03	0	1.935215e-03
4.500000e+08	1.777243e+14	0.000000e+00	5.096775e-01	2.506751e+15	4.503002e+14	5.937175e+14	2.093022e+04	1.035117e+04	4.203465e+03	0	1.920600e-03
4.600000e+08	1.737121e+14	0.000000e+00	5.096775e-01	2.470806e+15	4.622139e+14	5.907165e+14	2.086258e+04	1.039237e+04	4.220197e+03	0	1.906037e-03
4.700000e+08	1.697745e+14	0.000000e+00	5.096775e-01	2.435515e+15	4.741287e+14	5.877371e+14	2.079590e+04	1.043278e+04	4.236607e+03	0	1.891525e-03
4.800000e+08	1.659100e+14	0.000000e+00	5.096775e-01	2.400864e+15	4.860372e+14	5.847790e+14	2.073017e+04	1.047240e+04	4.252699e+03	0	1.877063e-03
4.900000e+08	1.621173e+14	0.000000e+00	5.096775e-01	2.366842e+15	4.979321e+14	5.818420e+14	2.066538e+04	1.051126e+04	4.268477e+03	0	1.862649e-03
5.000000e+08	1.583948e+14	0.000000e+00	5.096775e-01	2.333436e+15	5.098062e+14	5.789261e+14	2.060150e+04	1.054935e+04	4.283947e+03	0	1.848282e-03
5.100000e+08	1.547414e+14	0.000000e+00	5.096775e-01	2.300635e+15	5.216527e+14	5.760310e+14	2.053851e+04	1.058670e+04	4.299111e+03	0	1.833961e-03
5.200000e+08	1.511555e+14	0.000000e+00	5.096775e-01	2.268425e+15	5.334649e+14	5.731566e+14	2.047641e+04	1.062330e+04	4.313975e+03	0	1.819684e-03
5.300000e+08	1.476359e+14	0.000000e+00	5.096775e-01	2.236797e+15	5.452361e+14	5.703027e+14	2.041517e+04	1.065917e+04	4.328541e+03	0	1.805449e-03
5.400000e+08	1.441812e+14	0.000000e+00	5.096775e-01	2.205738e+15	5.569598e+14	5.674691e+14	2.035478e+04	1.069432e+04	4.342816e+03	0	1.791255e-03
5.500000e+08	1.407904e+14	0.000000e+00	5.096775e-01	2.175238e+15	5.686300e+14	5.646556e+14	2.029523e+04	1.072876e+04	4.356801e+03	0	1.777101e-03
5.600000e+08	1.374620e+14	0.000000e+00	5.096775e-01	2.145286e+15	5.802406e+14	5.618622e+14	2.023650e+04	1.076250e+04	4.370503e+03	0	1.762986e-03
5.700000e+08	1.341949e+14	0.000000e+00	5.096775e-01	2.115872e+15	5.917856e+14	5.590886e+14	2.017857e+04	1.079555e+04	4.383923e+03	0	1.748906e-03
5.800000e+08	1.309879e+14	0.000000e+00	5.096775e-01	2.086985e+15	6.032597e+14	5.563347e+14	2.012143e+04	1.082792e+04	4.397067e+03	0	1.734862e-03
5.900000e+08	1.278400e+14	0.000000e+00	5.096775e-01	2.058615e+15	6.146572e+14	5.536003e+14	2.006507e+04	1.085961e+04	4.409938e+03	0	1.720852e-03
6.000000e+08	1.247498e+14	0.000000e+00	5.096775e-01	2.030752e+15	6.259730e+14	5.508852e+14	2.000947e+04	1.089065e+04	4.422541e+03	0	1.706873e-03
6.100000e+08	1.217164e+14	0.000000e+00	5.096775e-01	2.003387e+15	6.372021e+14	5.481894e+14	1.995462e+04	1.092103e+04	4.434879e+03	0	1.692924e-03
6.200000e+08	1.187386e+14	0.000000e+00	5.096775e-01	1.976510e+15	6.483396e+14	5.455126e+14	1.990051e+04	1.095077e+04	4.446955e+03	0	1.679005e-03
6.300000e+08	1.158154e+14	0.000000e+00	5.096775e-01	1.950112e+15	6.593808e+14	5.428547e+14	1.984712e+04	1.097987e+04	4.458774e+03	0	1.665112e-03
6.400000e+08	1.129457e+14	0.000000e+00	5.096775e-01	1.924184e+15	6.703214e+14	5.402156e+14	1.979444e+04	1.100835e+04	4.470340e+03	0	1.651244e-03
6.500000e+08	1.101286e+14	0.000000e+00	5.096775e-01	1.898717e+15	6.811573e+14	5.375950e+14	1.974246e+04	1.103622e+04	4.481656e+03	0	1.637399e-03
6.600000e+08	1.073629e+14	0.000000e+00	5.096775e-01	1.873702e+15	6.918843e+14	5.349929e+14	1.969117e+04	1.106348e+04	4.492726e+03	0	1.623576e-03
6.700000e+08	1.046478e+14	0.000000e+00	5.096775e-01	1.849131e+15	7.024987e+14	5.324091e+14	1.964054e+04	1.109014e+04	4.503554e+03	0	1.609773e-03
6.800000e+08	1.019823e+14	0.000000e+00	5.096775e-01	1.824994e+15	7.129966e+14	5.298434e+14	1.959058e+04	1.111622e+04	4.514143e+03	0	1.595987e-03
6.900000e+08	9.936534e+13	0.000000e+00	5.096775e-01	1.801285e+15	7.233749e+14	5.272957e+14	1.954127e+04	1.114172e+04	4.524497e+03	0	1.582218e-03
7.000000e+08	9.679611e+13	0.000000e+00	5.096775e-01	1.777994e+15	7.336305e+14	5.247659e+14	1.949259e+04	1.116664e+04	4.534619e+03	0	1.568462e-03
7.100000e+08	9.427368e+13	0.000000e+00	5.096775e-01	1.755115e+15	7.437598e+14	5.222538e+14	1.944455e+04	1.119101e+04	4.544514e+03	0	1.554717e-03
7.200000e+08	9.179714e+13	0.000000e+00	5.096775e-01	1.732638e+15	7.537604e+14	5.197592e+14	1.939712e+04	1.121482e+04	4.554184e+03	0	1.540982e-03
7.300000e+08	8.936562e+13	0.000000e+00	5.096775e-01	1.710557e+15	7.636293e+14	5.172821e+14	1.935029e+04	1.123809e+04	4.563633e+03	0	1.527254e-03
7.400000e+08	8.697827e+13	0.000000e+00	5.096775e-01	1.688864e+15	7.733643e+14	5.148223e+14	1.930406e+04	1.126082e+04	4.572864e+03	0	1.513532e-03
7.500000e+08	8.463424e+13	0.000000e+00	5.096775e-01	1.667552e+15	7.829630e+14	5.123797e+14	1.925841e+04	1.128303e+04	4.581882e+03	0	1.499811e-03
7.600000e+08	8.233270e+13	0.000000e+00	5.096775e-01	1.646613e+15	7.924234e+14	5.099540e+14	1.921334e+04	1.130472e+04	4.590689e+03	0	1.486091e-03
7.700000e+08	8.007285e+13	0.000000e+00	5.096775e-01	1.626041e+15	8.017432e+14	5.075452e+14	1.916883e+04	1.132589e+04	4.599288e+03	0	1.472368e-03
7.800000e+08	7.785389e+13	0.000000e+00	5.096775e-01	1.605828e+15	8.109208e+14	5.051532e+14	1.912487e+04	1.134657e+04	4.607684e+03	0	1.458640e-03
7.900000e+08	7.567503e+13	0.000000e+00	5.096775e-01	1.585967e+15	8.199545e+14	5.027778e+14	1.908146e+04	1.136675e+04	4.615878e+03	0	1.444903e-03
8.000000e+08	7.353552e+13	0.000000e+00	5.096775e-01	1.566453e+15	8.288429e+14	5.004188e+14	1.903858e+04	1.138644e+04	4.623876e+03	0	1.431156e-03
8.100000e+08	7.143459e+13	0.000000e+00	5.096775e-01	1.547277e+15	8.375846e+14	4.980762e+14	1.899623e+04	1.140566e+04	4.631679e+03	0	1.417395e-03
8.200000e+08	6.937152e+13	0.000000e+00	5.096775e-01	1.528435e+15	8.461785e+14	4.957498e+14	1.895440e+04	1.142440e+04	4.639291e+03	0	1.403616e-03
8.300000e+08	6.734557e+13	0.000000e+00	5.096775e-01	1.509919e+15	8.546237e+14	4.934395e+14	1.891307e+04	1.144268e+04	4.646715e+03	0	1.389817e-03
8.400000e+08	6.535604e+13	0.000000e+00	5.096775e-01	1.491724e+15	8.629191e+14	4.911452e+14	1.887225e+04	1.146051e+04	4.653954e+03	0	1.375994e-03
8.500000e+08	6.340222e+13	0.000000e+00	5.096775e-01	1.473843e+15	8.710638e+14	4.888667e+14	1.883191e+04	1.147789e+04	4.661012e+03	0	1.362143e-03
8.600000e+08	6.148344e+13	0.000000e+00	5.096775e-01	1.456270e+15	8.790579e+14	4.866039e+14	1.879206e+04	1.149483e+04	4.667891e+03	0	1.348261e-03
8.700000e+08	5.959902e+13	0.000000e+00	5.096775e-01	1.439000e+15	8.869000e+14	4.843566e+14	1.875267e+04	1.151134e+04	4.674594e+03	0	1.334343e-03
8.800000e+08	5.774830e+13	0.000000e+00	5.096775e-01	1.422026e+15	8.945902e+14	4.821249e+14	1.871376e+04	1.152742e+04	4.681125e+03	0	1.320386e-03
8.900000e+08	5.593063e+13	0.000000e+00	5.096775e-01	1.405343e+15	9.021280e+14	4.799084e+14	1.867530e+04	1.154308e+04	4.687486e+03	0	1.306385e-03
9.000000e+08	5.414538e+13	0.000000e+00	5.096775e-01	1.388946e+15	9.095140e+14	4.777072e+14	1.863729e+04	1.155833e+04	4.693680e+03	0	1.292335e-03
9.100000e+08	5.239193e+13	0.000000e+00	5.096775e-01	1.372829e+15	9.167477e+14	4.755211e+14	1.859973e+04	1.157318e+04	4.699709e+03	0	1.278231e-03
9.200000e+08	5.066965e+13	0.000000e+00	5.096775e-01	1.356987e+15	9.238290e+14	4.733499e+14	1.856259e+04	1.158763e+04	4.705578e+03	0	1.264068e-03
9.300000e+08	4.897796e+13	0.000000e+00	5.096775e-01	1.341414e+15	9.307582e+14	4.711936e+14	1.852589e+04	1.160170e+04	4.711289e+03	0	1.249841e-03
9.400000e+08	4.731626e+13	0.000000e+00	5.096775e-01	1.326105e+15	9.375359e+14	4.690520e+14	1.848960e+04	1.161538e+04	4.716844e+03	0	1.235544e-03
9.500000e+08	4.568398e+13	0.000000e+00	5.096775e-01	1.311056e+15	9.441623e+14	4.669250e+14	1.845373e+04	1.162868e+04	4.722246e+03	0	1.221169e-03
9.600000e+08	4.408054e+13	0.000000e+00	5.096775e-01	1.296261e+15	9.506378e+14	4.648126e+14	1.841826e+04	1.164161e+04	4.727498e+03	0	1.206712e-03
9.700000e+08	4.250540e+13	0.000000e+00	5.096775e-01	1.281715e+15	9.569629e+14	4.627145e+14	1.838320e+04	1.165418e+04	4.732602e+03	0	1.192164e-03
9.800000e+08	4.095800e+13	0.000000e+00	5.096775e-01	1.267414e+15	9.631389e+14	4.606307e+14	1.834852e+04	1.166639e+04	4.737561e+03	0	1.177518e-03
9.900000e+08	3.943780e+13	0.000000e+00	5.096775e-01	1.253354e+15	9.691658e+14	4.585611e+14	1.831423e+04	1.167826e+04	4.742378e+03	0	1.162766e-03
1.000000e+09	3.794430e+13	0.000000e+00	5.096775e-01	1.239528e+15	9.750447e+14	4.565055e+14	1.828032e+04	1.168977e+04	4.747056e+03	0	1.147898e-03
1.010000e+09	3.647695e+13	0.000000e+00	5.096775e-01	1.225934e+15	9.807763e+14	4.544639e+14	1.824678e+04	1.170095e+04	4.751596e+03	0	1.132907e-03
1.020000e+09	3.503527e+13	0.000000e+00	5.096775e-01	1.212566e+15	9.863617e+14	4.524360e+14	1.821361e+04	1.171180e+04	4.756001e+03	0	1.117780e-03
1.030000e+09	3.361875e+13	0.000000e+00	5.096775e-01	1.199420e+15	9.918022e+14	4.504220e+14	1.818080e+04	1.172232e+04	4.760274e+03	0	1.102508e-03
1.040000e+09	3.222692e+13	0.000000e+00	5.096775e-01	1.186493e+15	9.970980e+14	4.484215e+14	1.814835e+04	1.173253e+04	4.764417e+03	0	1.087078e-03
1.050000e+09	3.085928e+13	0.000000e+00	5.096775e-01	1.173779e+15	1.002251e+15	4.464345e+14	1.811624e+04	1.174242e+04	4.768433e+03	0	1.071478e-03
1.060000e+09	2.951537e+13	0.000000e+00	5.096775e-01	1.161275e+15	1.007263e+15	4.444609e+14	1.808448e+04	1.175200e+04	4.772323e+03	0	1.055692e-03
1.070000e+09	2.819474e+13	0.000000e+00	5.096775e-01	1.148976e+15	1.012134e+15	4.425007e+14	1.805305e+04	1.176127e+04	4.776090e+03	0	1.039706e-03
1.080000e+09	2.689693e+13	0.000000e+00	5.096775e-01	1.136879e+15	1.016865e+15	4.405536e+14	1.802196e+04	1.177025e+04	4.779737e+03	0	1.023502e-03
1.090000e+09	2.562151e+13	0.000000e+00	5.096775e-01	1.124981e+15	1.021459e+15	4.386196e+14	1.799119e+04	1.177894e+04	4.783266e+03	0	1.007062e-03
1.100000e+09	2.436803e+13	0.000000e+00	5.096775e-01	1.113276e+15	1.025916e+15	4.366986e+14	1.796074e+04	1.178734e+04	4.786678e+03	0	9.903637e-04
1.110000e+09	2.313607e+13	0.000000e+00	5.096775e-01	1.101762e+15	1.030238e+15	4.347905e+14	1.793061e+04	1.179547e+04	4.789976e+03	0	9.733845e-04
1.120000e+09	2.192522e+13	0.000000e+00	5.096775e-01	1.090434e+15	1.034426e+15	4.328951e+14	1.790079e+04	1.180331e+04	4.793162e+03	0	9.560983e-04
1.130000e+09	2.073507e+13	0.000000e+00	5.096775e-01	1.079290e+15	1.038481e+15	4.310125e+14	1.787127e+04	1.181089e+04	4.796239e+03	0	9.384758e-04
1.140000e+09	1.956521e+13	0.000000e+00	5.096775e-01	1.068325e+15	1.042406e+15	4.291424e+14	1.784206e+04	1.181820e+04	4.799207e+03	0	9.204837e-04
1.150000e+09	1.841527e+13	0.000000e+00	5.096775e-01	1.057537e+15	1.046202e+15	4.272848e+14	1.781314e+04	1.182525e+04	4.802071e+03	0	9.020845e-04
1.160000e+09	1.728484e+13	0.000000e+00	5.096775e-01	1.046922e+15	1.049870e+15	4.254397e+14	1.778452e+04	1.183205e+04	4.804830e+03	0	8.832352e-04
1.170000e+09	1.617355e+13	0.000000e+00	5.096775e-01	1.036476e+15	1.053412e+15	4.236068e+14	1.775618e+04	1.183859e+04	4.807488e+03	0	8.638859e-04
1.180000e+09	1.508104e+13	0.000000e+00	5.096775e-01	1.026197e+15	1.056829e+15	4.217860e+14	1.772812e+04	1.184489e+04	4.810046e+03	0	8.439791e-04
1.190000e+09	1.400694e+13	0.000000e+00	5.096775e-01	1.016081e+15	1.060124e+15	4.199774e+14	1.770034e+04	1.185095e+04	4.812506e+03	0	8.234470e-04
1.200000e+09	1.295090e+13	0.000000e+00	5.096775e-01	1.006125e+15	1.063297e+15	4.181809e+14	1.767283e+04	1.185677e+04	4.814871e+03	0	8.022096e-04
1.210000e+09	1.191256e+13	0.000000e+00	5.096775e-01	9.963267e+14	1.066351e+15	4.163962e+14	1.764559e+04	1.186236e+04	4.817141e+03	0	7.801706e-04
1.220000e+09	1.089158e+13	0.000000e+00	5.096775e-01	9.866822e+14	1.069286e+15	4.146233e+14	1.761862e+04	1.186772e+04	4.819319e+03	0	7.572133e-04
1.230000e+09	9.887641e+12	0.000000e+00	5.096775e-01	9.771889e+14	1.072106e+15	4.128622e+14	1.759190e+04	1.187287e+04	4.821407e+03	0	7.331938e-04
1.240000e+09	8.900402e+12	0.000000e+00	5.096775e-01	9.678440e+14	1.074811e+15	4.111127e+14	1.756544e+04	1.187779e+04	4.823405e+03	0	7.079313e-04
1.250000e+09	7.929544e+12	0.000000e+00	5.096775e-01	9.586446e+14	1.077402e+15	4.093748e+14	1.753924e+04	1.188250e+04	4.825317e+03	0	6.811937e-04
1.260000e+09	6.974753e+12	0.000000e+00	5.096775e-01	9.495880e+14	1.079883e+15	4.076483e+14	1.751328e+04	1.188699e+04	4.827144e+03	0	6.526758e-04
1.270000e+09	6.035719e+12	0.000000e+00	5.096775e-01	9.406714e+14	1.082253e+15	4.059332e+14	1.748757e+04	1.189129e+04	4.828887e+03	0	6.219626e-04
1.280000e+09	5.112140e+12	0.000000e+00	5.096775e-01	9.318924e+14	1.084517e+15	4.042294e+14	1.746210e+04	1.189538e+04	4.830548e+03	0	5.884671e-04
1.290000e+09	4.203720e+12	0.000000e+00	5.096775e-01	9.232482e+14	1.086674e+15	4.025367e+14	1.743686e+04	1.189927e+04	4.832129e+03	0	5.513142e-04
1.300000e+09	3.310168e+12	0.000000e+00	5.096775e-01	9.147363e+14	1.088726e+15	4.008552e+14	1.741186e+04	1.190297e+04	4.833631e+03	0	5.091018e-04
1.310000e+09	2.431200e+12	0.000000e+00	5.096775e-01	9.063542e+14	1.090676e+15	3.991847e+14	1.738709e+04	1.190648e+04	4.835056e+03	0	4.593335e-04
1.320000e+09	1.566535e+12	0.000000e+00	5.096775e-01	8.980996e+14	1.092524e+15	3.975252e+14	1.736255e+04	1.190980e+04	4.836405e+03	0	3.967357e-04
1.330000e+09	7.159026e+11	0.000000e+00	5.096775e-01	8.899699e+14	1.094273e+15	3.958765e+14	1.733823e+04	1.191294e+04	4.837680e+03	0	3.055901e-04
1.340000e+09	-1.209670e+11	0.000000e+00	5.096775e-01	8.819630e+14	1.095925e+15	3.942386e+14	1.731412e+04	1.191590e+04	4.838882e+03	0	nan
