#t		Qconv[W]	Ri[Rp]		R*[Rp]		Qc[W]		Qm[W]		Qr[W]		Tcmb[K]		Tl[K]		Tup[K]		RiFlag		Bs[T]
0.000000e+00	5.960910e+12	0.000000e+00	4.623115e-01	1.392023e+14	3.195296e+15	2.923705e+14	7.384415e+03	4.679585e+03	2.327558e+03	0	6.677146e-04
1.000000e+07	5.839285e+12	0.000000e+00	4.623115e-01	1.369135e+14	2.867972e+15	2.907505e+14	7.366826e+03	4.582971e+03	2.279504e+03	0	6.631420e-04
2.000000e+07	5.708487e+12	0.000000e+00	4.623115e-01	1.344588e+14	2.595795e+15	2.891427e+14	7.349524e+03	4.497317e+03	2.236901e+03	0	6.581532e-04
3.000000e+07	5.573571e+12	0.000000e+00	4.623115e-01	1.319304e+14	2.366810e+15	2.875469e+14	7.332529e+03	4.420803e+03	2.198844e+03	0	6.529268e-04
4.000000e+07	5.437785e+12	0.000000e+00	4.623115e-01	1.293874e+14	2.172133e+15	2.859630e+14	7.315852e+03	4.351995e+03	2.164620e+03	0	6.475809e-04
5.000000e+07	5.303210e+12	0.000000e+00	4.623115e-01	1.268677e+14	2.005060e+15	2.843909e+14	7.299493e+03	4.289747e+03	2.133659e+03	0	6.421940e-04
6.000000e+07	5.171160e+12	0.000000e+00	4.623115e-01	1.243954e+14	1.860455e+15	2.828305e+14	7.283451e+03	4.233134e+03	2.105500e+03	0	6.368190e-04
7.000000e+07	5.042446e+12	0.000000e+00	4.623115e-01	1.219852e+14	1.734334e+15	2.812818e+14	7.267719e+03	4.181401e+03	2.079769e+03	0	6.314909e-04
8.000000e+07	4.917541e+12	0.000000e+00	4.623115e-01	1.196456e+14	1.623567e+15	2.797446e+14	7.252290e+03	4.133921e+03	2.056153e+03	0	6.262331e-04
9.000000e+07	4.796694e+12	0.000000e+00	4.623115e-01	1.173811e+14	1.525665e+15	2.782188e+14	7.237156e+03	4.090175e+03	2.034394e+03	0	6.210606e-04
1.000000e+08	4.680005e+12	0.000000e+00	4.623115e-01	1.151936e+14	1.438631e+15	2.767043e+14	7.222306e+03	4.049725e+03	2.014275e+03	0	6.159830e-04
1.100000e+08	4.567471e+12	0.000000e+00	4.623115e-01	1.130830e+14	1.360847e+15	2.752010e+14	7.207732e+03	4.012202e+03	1.995612e+03	0	6.110057e-04
1.200000e+08	4.459027e+12	0.000000e+00	4.623115e-01	1.110479e+14	1.290990e+15	2.737090e+14	7.193423e+03	3.977290e+03	1.978247e+03	0	6.061313e-04
1.300000e+08	4.354564e+12	0.000000e+00	4.623115e-01	1.090865e+14	1.227967e+15	2.722279e+14	7.179370e+03	3.944717e+03	1.962046e+03	0	6.013605e-04
1.400000e+08	4.253946e+12	0.000000e+00	4.623115e-01	1.071961e+14	1.170873e+15	2.707578e+14	7.165564e+03	3.914250e+03	1.946892e+03	0	5.966926e-04
1.500000e+08	4.157023e+12	0.000000e+00	4.623115e-01	1.053740e+14	1.118949e+15	2.692986e+14	7.151997e+03	3.885685e+03	1.932684e+03	0	5.921260e-04
1.600000e+08	4.063639e+12	0.000000e+00	4.623115e-01	1.036174e+14	1.071556e+15	2.678502e+14	7.138658e+03	3.858846e+03	1.919335e+03	0	5.876585e-04
1.700000e+08	3.973634e+12	0.000000e+00	4.623115e-01	1.019232e+14	1.028154e+15	2.664124e+14	7.125542e+03	3.833577e+03	1.906766e+03	0	5.832874e-04
1.800000e+08	3.886850e+12	0.000000e+00	4.623115e-01	1.002886e+14	9.882816e+14	2.649853e+14	7.112638e+03	3.809740e+03	1.894910e+03	0	5.790098e-04
1.900000e+08	3.803132e+12	0.000000e+00	4.623115e-01	9.871076e+13	9.515440e+14	2.635686e+14	7.099941e+03	3.787214e+03	1.883706e+03	0	5.748226e-04
2.000000e+08	3.722332e+12	0.000000e+00	4.623115e-01	9.718686e+13	9.176013e+14	2.621624e+14	7.087442e+03	3.765892e+03	1.873101e+03	0	5.707225e-04
2.100000e+08	3.644306e+12	0.000000e+00	4.623115e-01	9.571430e+13	8.861595e+14	2.607666e+14	7.075136e+03	3.745677e+03	1.863046e+03	0	5.667066e-04
2.200000e+08	3.568917e+12	0.000000e+00	4.623115e-01	9.429055e+13	8.569631e+14	2.593809e+14	7.063016e+03	3.726484e+03	1.853500e+03	0	5.627716e-04
2.300000e+08	3.496036e+12	0.000000e+00	4.623115e-01	9.291325e+13	8.297891e+14	2.580055e+14	7.051074e+03	3.708235e+03	1.844423e+03	0	5.589144e-04
2.400000e+08	3.425540e+12	0.000000e+00	4.623115e-01	9.158011e+13	8.044423e+14	2.566401e+14	7.039307e+03	3.690861e+03	1.835782e+03	0	5.551321e-04
2.500000e+08	3.357312e+12	0.000000e+00	4.623115e-01	9.028901e+13	7.807510e+14	2.552847e+14	7.027708e+03	3.674299e+03	1.827544e+03	0	5.514218e-04
2.600000e+08	3.291244e+12	0.000000e+00	4.623115e-01	8.903791e+13	7.585639e+14	2.539393e+14	7.016271e+03	3.658493e+03	1.819682e+03	0	5.477807e-04
2.700000e+08	3.227231e+12	0.000000e+00	4.623115e-01	8.782492e+13	7.377467e+14	2.526037e+14	7.004993e+03	3.643390e+03	1.812170e+03	0	5.442060e-04
2.800000e+08	3.165176e+12	0.000000e+00	4.623115e-01	8.664823e+13	7.181804e+14	2.512778e+14	6.993867e+03	3.628943e+03	1.804984e+03	0	5.406954e-04
2.900000e+08	3.104988e+12	0.000000e+00	4.623115e-01	8.550616e+13	6.997589e+14	2.499616e+14	6.982891e+03	3.615111e+03	1.798104e+03	0	5.372461e-04
3.000000e+08	3.046579e+12	0.000000e+00	4.623115e-01	8.439712e+13	6.823874e+14	2.486551e+14	6.972058e+03	3.601853e+03	1.791510e+03	0	5.338560e-04
3.100000e+08	2.989868e+12	0.000000e+00	4.623115e-01	8.331959e+13	6.659809e+14	2.473580e+14	6.961365e+03	3.589133e+03	1.785184e+03	0	5.305227e-04
3.200000e+08	2.934779e+12	0.000000e+00	4.623115e-01	8.227217e+13	6.504634e+14	2.460704e+14	6.950808e+03	3.576920e+03	1.779109e+03	0	5.272442e-04
3.300000e+08	2.881239e+12	0.000000e+00	4.623115e-01	8.125352e+13	6.357659e+14	2.447921e+14	6.940383e+03	3.565182e+03	1.773270e+03	0	5.240182e-04
3.400000e+08	2.829180e+12	0.000000e+00	4.623115e-01	8.026238e+13	6.218267e+14	2.435231e+14	6.930087e+03	3.553892e+03	1.767655e+03	0	5.208430e-04
3.500000e+08	2.778537e+12	0.000000e+00	4.623115e-01	7.929757e+13	6.085896e+14	2.422633e+14	6.919917e+03	3.543023e+03	1.762249e+03	0	5.177166e-04
3.600000e+08	2.729251e+12	0.000000e+00	4.623115e-01	7.835798e+13	5.960037e+14	2.410127e+14	6.909868e+03	3.532552e+03	1.757041e+03	0	5.146372e-04
3.700000e+08	2.681263e+12	0.000000e+00	4.623115e-01	7.744254e+13	5.840230e+14	2.397711e+14	6.899937e+03	3.522457e+03	1.752020e+03	0	5.116031e-04
3.800000e+08	2.634520e+12	0.000000e+00	4.623115e-01	7.655025e+13	5.726052e+14	2.385385e+14	6.890123e+03	3.512717e+03	1.747175e+03	0	5.086127e-04
3.900000e+08	2.588971e+12	0.000000e+00	4.623115e-01	7.568018e+13	5.617122e+14	2.373148e+14	6.880421e+03	3.503313e+03	1.742498e+03	0	5.056644e-04
4.000000e+08	2.544567e+12	0.000000e+00	4.623115e-01	7.483143e+13	5.513089e+14	2.360999e+14	6.870828e+03	3.494228e+03	1.737979e+03	0	5.027568e-04
4.100000e+08	2.501262e+12	0.000000e+00	4.623115e-01	7.400316e+13	5.413631e+14	2.348939e+14	6.861343e+03	3.485445e+03	1.733610e+03	0	4.998884e-04
4.200000e+08	2.459014e+12	0.000000e+00	4.623115e-01	7.319457e+13	5.318455e+14	2.336965e+14	6.851963e+03	3.476948e+03	1.729384e+03	0	4.970579e-04
4.300000e+08	2.417782e+12	0.000000e+00	4.623115e-01	7.240490e+13	5.227291e+14	2.325077e+14	6.842685e+03	3.468724e+03	1.725294e+03	0	4.942641e-04
4.400000e+08	2.377525e+12	0.000000e+00	4.623115e-01	7.163344e+13	5.139889e+14	2.313274e+14	6.833507e+03	3.460758e+03	1.721332e+03	0	4.915055e-04
4.500000e+08	2.338209e+12	0.000000e+00	4.623115e-01	7.087950e+13	5.056022e+14	2.301557e+14	6.824426e+03	3.453039e+03	1.717492e+03	0	4.887811e-04
4.600000e+08	2.299797e+12	0.000000e+00	4.623115e-01	7.014243e+13	4.975477e+14	2.289924e+14	6.815440e+03	3.445554e+03	1.713769e+03	0	4.860898e-04
4.700000e+08	2.262257e+12	0.000000e+00	4.623115e-01	6.942163e+13	4.898060e+14	2.278374e+14	6.806548e+03	3.438292e+03	1.710157e+03	0	4.834304e-04
4.800000e+08	2.225556e+12	0.000000e+00	4.623115e-01	6.871651e+13	4.823590e+14	2.266907e+14	6.797747e+03	3.431244e+03	1.706651e+03	0	4.808019e-04
4.900000e+08	2.189666e+12	0.000000e+00	4.623115e-01	6.802652e+13	4.751899e+14	2.255522e+14	6.789034e+03	3.424398e+03	1.703247e+03	0	4.782033e-04
5.000000e+08	2.154556e+12	0.000000e+00	4.623115e-01	6.735112e+13	4.682832e+14	2.244218e+14	6.780409e+03	3.417747e+03	1.699938e+03	0	4.756337e-04
5.100000e+08	2.120201e+12	0.000000e+00	4.623115e-01	6.668981e+13	4.616246e+14	2.232995e+14	6.771870e+03	3.411280e+03	1.696722e+03	0	4.730921e-04
5.200000e+08	2.086574e+12	0.000000e+00	4.623115e-01	6.604212e+13	4.552006e+14	2.221852e+14	6.763414e+03	3.404992e+03	1.693594e+03	0	4.705776e-04
5.300000e+08	2.053651e+12	0.000000e+00	4.623115e-01	6.540759e+13	4.489987e+14	2.210789e+14	6.755040e+03	3.398872e+03	1.690550e+03	0	4.680895e-04
5.400000e+08	2.021408e+12	0.000000e+00	4.623115e-01	6.478578e+13	4.430073e+14	2.199805e+14	6.746746e+03	3.392915e+03	1.687587e+03	0	4.656268e-04
5.500000e+08	1.989822e+12	0.000000e+00	4.623115e-01	6.417627e+13	4.372155e+14	2.188898e+14	6.738530e+03	3.387113e+03	1.684702e+03	0	4.631889e-04
5.600000e+08	1.958873e+12	0.000000e+00	4.623115e-01	6.357868e+13	4.316132e+14	2.178069e+14	6.730392e+03	3.381460e+03	1.681890e+03	0	4.607749e-04
5.700000e+08	1.928539e+12	0.000000e+00	4.623115e-01	6.299262e+13	4.261909e+14	2.167317e+14	6.722330e+03	3.375950e+03	1.679149e+03	0	4.583841e-04
5.800000e+08	1.898802e+12	0.000000e+00	4.623115e-01	6.241773e+13	4.209397e+14	2.156642e+14	6.714341e+03	3.370577e+03	1.676477e+03	0	4.560158e-04
5.900000e+08	1.869642e+12	0.000000e+00	4.623115e-01	6.185365e+13	4.158514e+14	2.146042e+14	6.706425e+03	3.365335e+03	1.673870e+03	0	4.536694e-04
6.000000e+08	1.841041e+12	0.000000e+00	4.623115e-01	6.130007e+13	4.109181e+14	2.135517e+14	6.698581e+03	3.360220e+03	1.671325e+03	0	4.513442e-04
6.100000e+08	1.812983e+12	0.000000e+00	4.623115e-01	6.075666e+13	4.061325e+14	2.125067e+14	6.690806e+03	3.355225e+03	1.668841e+03	0	4.490395e-04
6.200000e+08	1.785451e+12	0.000000e+00	4.623115e-01	6.022312e+13	4.014877e+14	2.114690e+14	6.683100e+03	3.350347e+03	1.666415e+03	0	4.467549e-04
6.300000e+08	1.758429e+12	0.000000e+00	4.623115e-01	5.969915e+13	3.969773e+14	2.104387e+14	6.675462e+03	3.345581e+03	1.664044e+03	0	4.444896e-04
6.400000e+08	1.731902e+12	0.000000e+00	4.623115e-01	5.918448e+13	3.925951e+14	2.094156e+14	6.667890e+03	3.340923e+03	1.661727e+03	0	4.422432e-04
6.500000e+08	1.705856e+12	0.000000e+00	4.623115e-01	5.867884e+13	3.883356e+14	2.083997e+14	6.660383e+03	3.336369e+03	1.659462e+03	0	4.400150e-04
6.600000e+08	1.680277e+12	0.000000e+00	4.623115e-01	5.818197e+13	3.841932e+14	2.073910e+14	6.652940e+03	3.331914e+03	1.657246e+03	0	4.378046e-04
6.700000e+08	1.655152e+12	0.000000e+00	4.623115e-01	5.769362e+13	3.801629e+14	2.063894e+14	6.645560e+03	3.327556e+03	1.655079e+03	0	4.356114e-04
6.800000e+08	1.630467e+12	0.000000e+00	4.623115e-01	5.721356e+13	3.762398e+14	2.053948e+14	6.638242e+03	3.323290e+03	1.652957e+03	0	4.334350e-04
6.900000e+08	1.606210e+12	0.000000e+00	4.623115e-01	5.674155e+13	3.724195e+14	2.044072e+14	6.630984e+03	3.319114e+03	1.650880e+03	0	4.312748e-04
7.000000e+08	1.582371e+12	0.000000e+00	4.623115e-01	5.627739e+13	3.686977e+14	2.034265e+14	6.623786e+03	3.315023e+03	1.648845e+03	0	4.291305e-04
7.100000e+08	1.558936e+12	0.000000e+00	4.623115e-01	5.582085e+13	3.650702e+14	2.024527e+14	6.616647e+03	3.311016e+03	1.646852e+03	0	4.270015e-04
7.200000e+08	1.535896e+12	0.000000e+00	4.623115e-01	5.537174e+13	3.615333e+14	2.014857e+14	6.609566e+03	3.307089e+03	1.644899e+03	0	4.248875e-04
7.300000e+08	1.513240e+12	0.000000e+00	4.623115e-01	5.492985e+13	3.580833e+14	2.005254e+14	6.602541e+03	3.303240e+03	1.642984e+03	0	4.227879e-04
7.400000e+08	1.490957e+12	0.000000e+00	4.623115e-01	5.449501e+13	3.547167e+14	1.995718e+14	6.595572e+03	3.299465e+03	1.641107e+03	0	4.207025e-04
7.500000e+08	1.469039e+12	0.000000e+00	4.623115e-01	5.406702e+13	3.514304e+14	1.986249e+14	6.588659e+03	3.295763e+03	1.639265e+03	0	4.186307e-04
7.600000e+08	1.447475e+12	0.000000e+00	4.623115e-01	5.364572e+13	3.482211e+14	1.976846e+14	6.581799e+03	3.292130e+03	1.637458e+03	0	4.165722e-04
7.700000e+08	1.426256e+12	0.000000e+00	4.623115e-01	5.323094e+13	3.450860e+14	1.967509e+14	6.574993e+03	3.288565e+03	1.635685e+03	0	4.145267e-04
7.800000e+08	1.405375e+12	0.000000e+00	4.623115e-01	5.282250e+13	3.420222e+14	1.958236e+14	6.568240e+03	3.285065e+03	1.633944e+03	0	4.124937e-04
7.900000e+08	1.384821e+12	0.000000e+00	4.623115e-01	5.242027e+13	3.390271e+14	1.949028e+14	6.561538e+03	3.281628e+03	1.632235e+03	0	4.104730e-04
8.000000e+08	1.364588e+12	0.000000e+00	4.623115e-01	5.202408e+13	3.360982e+14	1.939883e+14	6.554887e+03	3.278253e+03	1.630556e+03	0	4.084641e-04
8.100000e+08	1.344667e+12	0.000000e+00	4.623115e-01	5.163379e+13	3.332330e+14	1.930802e+14	6.548286e+03	3.274936e+03	1.628906e+03	0	4.064667e-04
8.200000e+08	1.325051e+12	0.000000e+00	4.623115e-01	5.124925e+13	3.304292e+14	1.921784e+14	6.541734e+03	3.271677e+03	1.627285e+03	0	4.044805e-04
8.300000e+08	1.305733e+12	0.000000e+00	4.623115e-01	5.087034e+13	3.276847e+14	1.912828e+14	6.535231e+03	3.268474e+03	1.625692e+03	0	4.025051e-04
8.400000e+08	1.286704e+12	0.000000e+00	4.623115e-01	5.049691e+13	3.249974e+14	1.903934e+14	6.528776e+03	3.265324e+03	1.624125e+03	0	4.005403e-04
8.500000e+08	1.267960e+12	0.000000e+00	4.623115e-01	5.012885e+13	3.223653e+14	1.895101e+14	6.522369e+03	3.262226e+03	1.622584e+03	0	3.985858e-04
8.600000e+08	1.249492e+12	0.000000e+00	4.623115e-01	4.976602e+13	3.197865e+14	1.886329e+14	6.516008e+03	3.259179e+03	1.621069e+03	0	3.966412e-04
8.700000e+08	1.231295e+12	0.000000e+00	4.623115e-01	4.940832e+13	3.172591e+14	1.877618e+14	6.509693e+03	3.256180e+03	1.619578e+03	0	3.947062e-04
8.800000e+08	1.213362e+12	0.000000e+00	4.623115e-01	4.905561e+13	3.147816e+14	1.868966e+14	6.503423e+03	3.253230e+03	1.618110e+03	0	3.927807e-04
8.900000e+08	1.195687e+12	0.000000e+00	4.623115e-01	4.870780e+13	3.123521e+14	1.860374e+14	6.497198e+03	3.250325e+03	1.616665e+03	0	3.908641e-04
9.000000e+08	1.178265e+12	0.000000e+00	4.623115e-01	4.836477e+13	3.099692e+14	1.851841e+14	6.491017e+03	3.247465e+03	1.615243e+03	0	3.889564e-04
9.100000e+08	1.161090e+12	0.000000e+00	4.623115e-01	4.802642e+13	3.076313e+14	1.843366e+14	6.484879e+03	3.244649e+03	1.613842e+03	0	3.870573e-04
9.200000e+08	1.144156e+12	0.000000e+00	4.623115e-01	4.769264e+13	3.053369e+14	1.834950e+14	6.478784e+03	3.241874e+03	1.612462e+03	0	3.851664e-04
9.300000e+08	1.127458e+12	0.000000e+00	4.623115e-01	4.736335e+13	3.030848e+14	1.826591e+14	6.472732e+03	3.239141e+03	1.611102e+03	0	3.832835e-04
9.400000e+08	1.110991e+12	0.000000e+00	4.623115e-01	4.703843e+13	3.008735e+14	1.818289e+14	6.466721e+03	3.236447e+03	1.609763e+03	0	3.814084e-04
9.500000e+08	1.094751e+12	0.000000e+00	4.623115e-01	4.671780e+13	2.987019e+14	1.810044e+14	6.460751e+03	3.233793e+03	1.608442e+03	0	3.795407e-04
9.600000e+08	1.078731e+12	0.000000e+00	4.623115e-01	4.640138e+13	2.965686e+14	1.801855e+14	6.454822e+03	3.231175e+03	1.607140e+03	0	3.776804e-04
9.700000e+08	1.062929e+12	0.000000e+00	4.623115e-01	4.608906e+13	2.944726e+14	1.793721e+14	6.448933e+03	3.228595e+03	1.605857e+03	0	3.758271e-04
9.800000e+08	1.047338e+12	0.000000e+00	4.623115e-01	4.578078e+13	2.924126e+14	1.785644e+14	6.443084e+03	3.226049e+03	1.604591e+03	0	3.739805e-04
9.900000e+08	1.031955e+12	0.000000e+00	4.623115e-01	4.547643e+13	2.903877e+14	1.777621e+14	6.437273e+03	3.223539e+03	1.603342e+03	0	3.721405e-04
1.000000e+09	1.016775e+12	0.000000e+00	4.623115e-01	4.517596e+13	2.883968e+14	1.769652e+14	6.431501e+03	3.221062e+03	1.602110e+03	0	3.703068e-04
1.010000e+09	1.001795e+12	0.000000e+00	4.623115e-01	4.487927e+13	2.864389e+14	1.761738e+14	6.425767e+03	3.218618e+03	1.600894e+03	0	3.684792e-04
1.020000e+09	9.870099e+11	0.000000e+00	4.623115e-01	4.458629e+13	2.845131e+14	1.753877e+14	6.420071e+03	3.216205e+03	1.599694e+03	0	3.666574e-04
1.030000e+09	9.724161e+11	0.000000e+00	4.623115e-01	4.429696e+13	2.826184e+14	1.746069e+14	6.414412e+03	3.213824e+03	1.598510e+03	0	3.648413e-04
1.040000e+09	9.580098e+11	0.000000e+00	4.623115e-01	4.401119e+13	2.807540e+14	1.738314e+14	6.408789e+03	3.211473e+03	1.597341e+03	0	3.630307e-04
1.050000e+09	9.437872e+11	0.000000e+00	4.623115e-01	4.372892e+13	2.789190e+14	1.730612e+14	6.403203e+03	3.209151e+03	1.596186e+03	0	3.612252e-04
1.060000e+09	9.297449e+11	0.000000e+00	4.623115e-01	4.345008e+13	2.771127e+14	1.722961e+14	6.397652e+03	3.206858e+03	1.595045e+03	0	3.594247e-04
1.070000e+09	9.158793e+11	0.000000e+00	4.623115e-01	4.317460e+13	2.753342e+14	1.715362e+14	6.392137e+03	3.204593e+03	1.593919e+03	0	3.576290e-04
1.080000e+09	9.021869e+11	0.000000e+00	4.623115e-01	4.290243e+13	2.735828e+14	1.707814e+14	6.386657e+03	3.202356e+03	1.592806e+03	0	3.558379e-04
1.090000e+09	8.886646e+11	0.000000e+00	4.623115e-01	4.263350e+13	2.718578e+14	1.700317e+14	6.381211e+03	3.200144e+03	1.591706e+03	0	3.540511e-04
1.100000e+09	8.753090e+11	0.000000e+00	4.623115e-01	4.236775e+13	2.701584e+14	1.692870e+14	6.375799e+03	3.197959e+03	1.590619e+03	0	3.522685e-04
1.110000e+09	8.621171e+11	0.000000e+00	4.623115e-01	4.210512e+13	2.684840e+14	1.685474e+14	6.370421e+03	3.195799e+03	1.589545e+03	0	3.504898e-04
1.120000e+09	8.490857e+11	0.000000e+00	4.623115e-01	4.184555e+13	2.668340e+14	1.678126e+14	6.365076e+03	3.193664e+03	1.588483e+03	0	3.487149e-04
1.130000e+09	8.362119e+11	0.000000e+00	4.623115e-01	4.158899e+13	2.652077e+14	1.670828e+14	6.359764e+03	3.191553e+03	1.587433e+03	0	3.469435e-04
1.140000e+09	8.234929e+11	0.000000e+00	4.623115e-01	4.133538e+13	2.636045e+14	1.663579e+14	6.354484e+03	3.189465e+03	1.586394e+03	0	3.451755e-04
1.150000e+09	8.109257e+11	0.000000e+00	4.623115e-01	4.108467e+13	2.620239e+14	1.656378e+14	6.349237e+03	3.187400e+03	1.585367e+03	0	3.434106e-04
1.160000e+09	7.985076e+11	0.000000e+00	4.623115e-01	4.083681e+13	2.604652e+14	1.649225e+14	6.344021e+03	3.185357e+03	1.584351e+03	0	3.416486e-04
1.170000e+09	7.862360e+11	0.000000e+00	4.623115e-01	4.059175e+13	2.589280e+14	1.642120e+14	6.338837e+03	3.183337e+03	1.583346e+03	0	3.398894e-04
1.180000e+09	7.741082e+11	0.000000e+00	4.623115e-01	4.034944e+13	2.574118e+14	1.635062e+14	6.333684e+03	3.181338e+03	1.582352e+03	0	3.381327e-04
1.190000e+09	7.621217e+11	0.000000e+00	4.623115e-01	4.010983e+13	2.559159e+14	1.628050e+14	6.328562e+03	3.179359e+03	1.581368e+03	0	3.363784e-04
1.200000e+09	7.502740e+11	0.000000e+00	4.623115e-01	3.987288e+13	2.544400e+14	1.621086e+14	6.323469e+03	3.177401e+03	1.580394e+03	0	3.346262e-04
1.210000e+09	7.385626e+11	0.000000e+00	4.623115e-01	3.963853e+13	2.529835e+14	1.614168e+14	6.318407e+03	3.175463e+03	1.579430e+03	0	3.328760e-04
1.220000e+09	7.269853e+11	0.000000e+00	4.623115e-01	3.940675e+13	2.515460e+14	1.607295e+14	6.313375e+03	3.173544e+03	1.578475e+03	0	3.311275e-04
1.230000e+09	7.155396e+11	0.000000e+00	4.623115e-01	3.917749e+13	2.501271e+14	1.600468e+14	6.308372e+03	3.171645e+03	1.577531e+03	0	3.293805e-04
1.240000e+09	7.042234e+11	0.000000e+00	4.623115e-01	3.895070e+13	2.487263e+14	1.593686e+14	6.303398e+03	3.169764e+03	1.576595e+03	0	3.276349e-04
1.250000e+09	6.930344e+11	0.000000e+00	4.623115e-01	3.872636e+13	2.473432e+14	1.586949e+14	6.298453e+03	3.167901e+03	1.575668e+03	0	3.258904e-04
1.260000e+09	6.819705e+11	0.000000e+00	4.623115e-01	3.850441e+13	2.459775e+14	1.580256e+14	6.293536e+03	3.166056e+03	1.574751e+03	0	3.241469e-04
1.270000e+09	6.710296e+11	0.000000e+00	4.623115e-01	3.828482e+13	2.446287e+14	1.573608e+14	6.288647e+03	3.164228e+03	1.573842e+03	0	3.224041e-04
1.280000e+09	6.602097e+11	0.000000e+00	4.623115e-01	3.806754e+13	2.432965e+14	1.567003e+14	6.283786e+03	3.162418e+03	1.572941e+03	0	3.206618e-04
1.290000e+09	6.495086e+11	0.000000e+00	4.623115e-01	3.785255e+13	2.419805e+14	1.560441e+14	6.278953e+03	3.160624e+03	1.572049e+03	0	3.189199e-04
1.300000e+09	6.389246e+11	0.000000e+00	4.623115e-01	3.763981e+13	2.406803e+14	1.553923e+14	6.274147e+03	3.158846e+03	1.571165e+03	0	3.171781e-04
1.310000e+09	6.284557e+11	0.000000e+00	4.623115e-01	3.742927e+13	2.393956e+14	1.547447e+14	6.269368e+03	3.157085e+03	1.570289e+03	0	3.154362e-04
1.320000e+09	6.181000e+11	0.000000e+00	4.623115e-01	3.722090e+13	2.381261e+14	1.541014e+14	6.264615e+03	3.155339e+03	1.569421e+03	0	3.136940e-04
1.330000e+09	6.078556e+11	0.000000e+00	4.623115e-01	3.701468e+13	2.368715e+14	1.534623e+14	6.259889e+03	3.153609e+03	1.568560e+03	0	3.119513e-04
1.340000e+09	5.977209e+11	0.000000e+00	4.623115e-01	3.681055e+13	2.356315e+14	1.528273e+14	6.255189e+03	3.151893e+03	1.567707e+03	0	3.102079e-04
1.350000e+09	5.876940e+11	0.000000e+00	4.623115e-01	3.660851e+13	2.344057e+14	1.521965e+14	6.250515e+03	3.150193e+03	1.566861e+03	0	3.084635e-04
1.360000e+09	5.777733e+11	0.000000e+00	4.623115e-01	3.640850e+13	2.331938e+14	1.515698e+14	6.245867e+03	3.148507e+03	1.566022e+03	0	3.067179e-04
