#t		Qconv[W]	Ri[Rp]		R*[Rp]		Qc[W]		Qm[W]		Qr[W]		Tcmb[K]		Tl[K]		Tup[K]		RiFlag		Bs[T]
0.000000e+00	1.254899e+13	0.000000e+00	4.572863e-01	2.614556e+14	3.979357e+15	4.098359e+14	9.246828e+03	5.613773e+03	2.454595e+03	0	8.473660e-04
1.000000e+07	1.224129e+13	0.000000e+00	4.572863e-01	2.567345e+14	3.652329e+15	4.075651e+14	9.224177e+03	5.525726e+03	2.416097e+03	0	8.403830e-04
2.000000e+07	1.193220e+13	0.000000e+00	4.572863e-01	2.519963e+14	3.371142e+15	4.053113e+14	9.201932e+03	5.445981e+03	2.381229e+03	0	8.332494e-04
3.000000e+07	1.162567e+13	0.000000e+00	4.572863e-01	2.472991e+14	3.127385e+15	4.030743e+14	9.180095e+03	5.373377e+03	2.349483e+03	0	8.260521e-04
4.000000e+07	1.132428e+13	0.000000e+00	4.572863e-01	2.426810e+14	2.914500e+15	4.008541e+14	9.158662e+03	5.306964e+03	2.320444e+03	0	8.188512e-04
5.000000e+07	1.102970e+13	0.000000e+00	4.572863e-01	2.381665e+14	2.727312e+15	3.986504e+14	9.137626e+03	5.245956e+03	2.293769e+03	0	8.116883e-04
6.000000e+07	1.074294e+13	0.000000e+00	4.572863e-01	2.337705e+14	2.561701e+15	3.964631e+14	9.116979e+03	5.189695e+03	2.269169e+03	0	8.045922e-04
7.000000e+07	1.046458e+13	0.000000e+00	4.572863e-01	2.295015e+14	2.414345e+15	3.942921e+14	9.096711e+03	5.137630e+03	2.246404e+03	0	7.975822e-04
8.000000e+07	1.019492e+13	0.000000e+00	4.572863e-01	2.253635e+14	2.282548e+15	3.921373e+14	9.076811e+03	5.089291e+03	2.225268e+03	0	7.906714e-04
9.000000e+07	9.934006e+12	0.000000e+00	4.572863e-01	2.213575e+14	2.164099e+15	3.899984e+14	9.057268e+03	5.044279e+03	2.205586e+03	0	7.838680e-04
1.000000e+08	9.681782e+12	0.000000e+00	4.572863e-01	2.174824e+14	2.057174e+15	3.878755e+14	9.038070e+03	5.002250e+03	2.187210e+03	0	7.771769e-04
1.100000e+08	9.438079e+12	0.000000e+00	4.572863e-01	2.137355e+14	1.960253e+15	3.857683e+14	9.019207e+03	4.962907e+03	2.170007e+03	0	7.706006e-04
1.200000e+08	9.202668e+12	0.000000e+00	4.572863e-01	2.101135e+14	1.872065e+15	3.836767e+14	9.000666e+03	4.925992e+03	2.153866e+03	0	7.641396e-04
1.300000e+08	8.975279e+12	0.000000e+00	4.572863e-01	2.066123e+14	1.791536e+15	3.816007e+14	8.982439e+03	4.891280e+03	2.138689e+03	0	7.577933e-04
1.400000e+08	8.755621e+12	0.000000e+00	4.572863e-01	2.032275e+14	1.717757e+15	3.795400e+14	8.964514e+03	4.858573e+03	2.124388e+03	0	7.515602e-04
1.500000e+08	8.543391e+12	0.000000e+00	4.572863e-01	1.999545e+14	1.649952e+15	3.774945e+14	8.946880e+03	4.827696e+03	2.110887e+03	0	7.454381e-04
1.600000e+08	8.338282e+12	0.000000e+00	4.572863e-01	1.967888e+14	1.587455e+15	3.754641e+14	8.929530e+03	4.798496e+03	2.098119e+03	0	7.394242e-04
1.700000e+08	8.139989e+12	0.000000e+00	4.572863e-01	1.937259e+14	1.529694e+15	3.734487e+14	8.912453e+03	4.770834e+03	2.086024e+03	0	7.335157e-04
1.800000e+08	7.948215e+12	0.000000e+00	4.572863e-01	1.907611e+14	1.476172e+15	3.714482e+14	8.895640e+03	4.744589e+03	2.074548e+03	0	7.277094e-04
1.900000e+08	7.762669e+12	0.000000e+00	4.572863e-01	1.878902e+14	1.426459e+15	3.694624e+14	8.879084e+03	4.719650e+03	2.063644e+03	0	7.220021e-04
2.000000e+08	7.583072e+12	0.000000e+00	4.572863e-01	1.851090e+14	1.380176e+15	3.674912e+14	8.862776e+03	4.695921e+03	2.053269e+03	0	7.163906e-04
2.100000e+08	7.409156e+12	0.000000e+00	4.572863e-01	1.824136e+14	1.336995e+15	3.655345e+14	8.846708e+03	4.673312e+03	2.043383e+03	0	7.108714e-04
2.200000e+08	7.240666e+12	0.000000e+00	4.572863e-01	1.798000e+14	1.296625e+15	3.635922e+14	8.830873e+03	4.651743e+03	2.033952e+03	0	7.054414e-04
2.300000e+08	7.077357e+12	0.000000e+00	4.572863e-01	1.772646e+14	1.258810e+15	3.616641e+14	8.815264e+03	4.631141e+03	2.024944e+03	0	7.000975e-04
2.400000e+08	6.918998e+12	0.000000e+00	4.572863e-01	1.748039e+14	1.223322e+15	3.597502e+14	8.799874e+03	4.611442e+03	2.016331e+03	0	6.948363e-04
2.500000e+08	6.765368e+12	0.000000e+00	4.572863e-01	1.724147e+14	1.189960e+15	3.578503e+14	8.784697e+03	4.592585e+03	2.008085e+03	0	6.896551e-04
2.600000e+08	6.616257e+12	0.000000e+00	4.572863e-01	1.700938e+14	1.158545e+15	3.559642e+14	8.769726e+03	4.574515e+03	2.000184e+03	0	6.845507e-04
2.700000e+08	6.471470e+12	0.000000e+00	4.572863e-01	1.678382e+14	1.128915e+15	3.540920e+14	8.754956e+03	4.557182e+03	1.992606e+03	0	6.795203e-04
2.800000e+08	6.330816e+12	0.000000e+00	4.572863e-01	1.656452e+14	1.100928e+15	3.522335e+14	8.740382e+03	4.540541e+03	1.985330e+03	0	6.745612e-04
2.900000e+08	6.194120e+12	0.000000e+00	4.572863e-01	1.635121e+14	1.074452e+15	3.503885e+14	8.725997e+03	4.524550e+03	1.978338e+03	0	6.696708e-04
3.000000e+08	6.061213e+12	0.000000e+00	4.572863e-01	1.614363e+14	1.049373e+15	3.485570e+14	8.711796e+03	4.509170e+03	1.971613e+03	0	6.648464e-04
3.100000e+08	5.931936e+12	0.000000e+00	4.572863e-01	1.594154e+14	1.025584e+15	3.467388e+14	8.697775e+03	4.494365e+03	1.965139e+03	0	6.600856e-04
3.200000e+08	5.806138e+12	0.000000e+00	4.572863e-01	1.574473e+14	1.002992e+15	3.449338e+14	8.683929e+03	4.480103e+03	1.958903e+03	0	6.553861e-04
3.300000e+08	5.683676e+12	0.000000e+00	4.572863e-01	1.555298e+14	9.815086e+14	3.431420e+14	8.670253e+03	4.466352e+03	1.952891e+03	0	6.507456e-04
3.400000e+08	5.564416e+12	0.000000e+00	4.572863e-01	1.536608e+14	9.610564e+14	3.413632e+14	8.656744e+03	4.453085e+03	1.947090e+03	0	6.461619e-04
3.500000e+08	5.448228e+12	0.000000e+00	4.572863e-01	1.518384e+14	9.415639e+14	3.395972e+14	8.643396e+03	4.440276e+03	1.941489e+03	0	6.416328e-04
3.600000e+08	5.334992e+12	0.000000e+00	4.572863e-01	1.500608e+14	9.229660e+14	3.378441e+14	8.630205e+03	4.427900e+03	1.936078e+03	0	6.371564e-04
3.700000e+08	5.224593e+12	0.000000e+00	4.572863e-01	1.483262e+14	9.052031e+14	3.361037e+14	8.617169e+03	4.415934e+03	1.930846e+03	0	6.327308e-04
3.800000e+08	5.116920e+12	0.000000e+00	4.572863e-01	1.466331e+14	8.882207e+14	3.343759e+14	8.604283e+03	4.404358e+03	1.925784e+03	0	6.283539e-04
3.900000e+08	5.011871e+12	0.000000e+00	4.572863e-01	1.449798e+14	8.719689e+14	3.326605e+14	8.591543e+03	4.393152e+03	1.920884e+03	0	6.240242e-04
4.000000e+08	4.909346e+12	0.000000e+00	4.572863e-01	1.433650e+14	8.564018e+14	3.309576e+14	8.578947e+03	4.382298e+03	1.916138e+03	0	6.197398e-04
4.100000e+08	4.809253e+12	0.000000e+00	4.572863e-01	1.417871e+14	8.414770e+14	3.292669e+14	8.566490e+03	4.371777e+03	1.911539e+03	0	6.154990e-04
4.200000e+08	4.711501e+12	0.000000e+00	4.572863e-01	1.402448e+14	8.271557e+14	3.275885e+14	8.554170e+03	4.361576e+03	1.907078e+03	0	6.113002e-04
4.300000e+08	4.616007e+12	0.000000e+00	4.572863e-01	1.387369e+14	8.134020e+14	3.259221e+14	8.541984e+03	4.351677e+03	1.902750e+03	0	6.071420e-04
4.400000e+08	4.522689e+12	0.000000e+00	4.572863e-01	1.372622e+14	8.001826e+14	3.242677e+14	8.529928e+03	4.342068e+03	1.898548e+03	0	6.030228e-04
4.500000e+08	4.431472e+12	0.000000e+00	4.572863e-01	1.358195e+14	7.874668e+14	3.226251e+14	8.518000e+03	4.332734e+03	1.894467e+03	0	5.989411e-04
4.600000e+08	4.342281e+12	0.000000e+00	4.572863e-01	1.344076e+14	7.752262e+14	3.209944e+14	8.506196e+03	4.323664e+03	1.890501e+03	0	5.948956e-04
4.700000e+08	4.255047e+12	0.000000e+00	4.572863e-01	1.330256e+14	7.634343e+14	3.193754e+14	8.494516e+03	4.314845e+03	1.886645e+03	0	5.908849e-04
4.800000e+08	4.169704e+12	0.000000e+00	4.572863e-01	1.316725e+14	7.520666e+14	3.177680e+14	8.482954e+03	4.306267e+03	1.882894e+03	0	5.869078e-04
4.900000e+08	4.086188e+12	0.000000e+00	4.572863e-01	1.303472e+14	7.411002e+14	3.161720e+14	8.471511e+03	4.297919e+03	1.879244e+03	0	5.829629e-04
5.000000e+08	4.004439e+12	0.000000e+00	4.572863e-01	1.290489e+14	7.305140e+14	3.145875e+14	8.460181e+03	4.289791e+03	1.875690e+03	0	5.790490e-04
5.100000e+08	3.924398e+12	0.000000e+00	4.572863e-01	1.277768e+14	7.202881e+14	3.130144e+14	8.448965e+03	4.281874e+03	1.872229e+03	0	5.751650e-04
5.200000e+08	3.846011e+12	0.000000e+00	4.572863e-01	1.265299e+14	7.104040e+14	3.114524e+14	8.437858e+03	4.274159e+03	1.868855e+03	0	5.713097e-04
5.300000e+08	3.769224e+12	0.000000e+00	4.572863e-01	1.253074e+14	7.008444e+14	3.099016e+14	8.426860e+03	4.266638e+03	1.865567e+03	0	5.674820e-04
5.400000e+08	3.693988e+12	0.000000e+00	4.572863e-01	1.241087e+14	6.915932e+14	3.083618e+14	8.415968e+03	4.259303e+03	1.862360e+03	0	5.636809e-04
5.500000e+08	3.620253e+12	0.000000e+00	4.572863e-01	1.229330e+14	6.826353e+14	3.068330e+14	8.405179e+03	4.252147e+03	1.859231e+03	0	5.599051e-04
5.600000e+08	3.547973e+12	0.000000e+00	4.572863e-01	1.217796e+14	6.739564e+14	3.053150e+14	8.394493e+03	4.245162e+03	1.856177e+03	0	5.561538e-04
5.700000e+08	3.477105e+12	0.000000e+00	4.572863e-01	1.206478e+14	6.655434e+14	3.038079e+14	8.383906e+03	4.238342e+03	1.853194e+03	0	5.524259e-04
5.800000e+08	3.407605e+12	0.000000e+00	4.572863e-01	1.195369e+14	6.573837e+14	3.023114e+14	8.373417e+03	4.231680e+03	1.850282e+03	0	5.487205e-04
5.900000e+08	3.339432e+12	0.000000e+00	4.572863e-01	1.184464e+14	6.494656e+14	3.008255e+14	8.363025e+03	4.225171e+03	1.847435e+03	0	5.450366e-04
6.000000e+08	3.272547e+12	0.000000e+00	4.572863e-01	1.173757e+14	6.417781e+14	2.993502e+14	8.352728e+03	4.218808e+03	1.844653e+03	0	5.413732e-04
6.100000e+08	3.206914e+12	0.000000e+00	4.572863e-01	1.163242e+14	6.343108e+14	2.978853e+14	8.342523e+03	4.212586e+03	1.841933e+03	0	5.377295e-04
6.200000e+08	3.142495e+12	0.000000e+00	4.572863e-01	1.152913e+14	6.270539e+14	2.964307e+14	8.332409e+03	4.206500e+03	1.839272e+03	0	5.341046e-04
6.300000e+08	3.079256e+12	0.000000e+00	4.572863e-01	1.142766e+14	6.199983e+14	2.949864e+14	8.322385e+03	4.200545e+03	1.836668e+03	0	5.304976e-04
6.400000e+08	3.017164e+12	0.000000e+00	4.572863e-01	1.132795e+14	6.131352e+14	2.935523e+14	8.312449e+03	4.194717e+03	1.834120e+03	0	5.269076e-04
6.500000e+08	2.956187e+12	0.000000e+00	4.572863e-01	1.122995e+14	6.064565e+14	2.921283e+14	8.302599e+03	4.189010e+03	1.831624e+03	0	5.233338e-04
6.600000e+08	2.896294e+12	0.000000e+00	4.572863e-01	1.113362e+14	5.999543e+14	2.907143e+14	8.292834e+03	4.183420e+03	1.829180e+03	0	5.197753e-04
6.700000e+08	2.837455e+12	0.000000e+00	4.572863e-01	1.103891e+14	5.936214e+14	2.893102e+14	8.283153e+03	4.177944e+03	1.826786e+03	0	5.162314e-04
6.800000e+08	2.779642e+12	0.000000e+00	4.572863e-01	1.094578e+14	5.874509e+14	2.879161e+14	8.273554e+03	4.172578e+03	1.824439e+03	0	5.127013e-04
6.900000e+08	2.722827e+12	0.000000e+00	4.572863e-01	1.085419e+14	5.814361e+14	2.865317e+14	8.264035e+03	4.167317e+03	1.822139e+03	0	5.091841e-04
7.000000e+08	2.666984e+12	0.000000e+00	4.572863e-01	1.076410e+14	5.755708e+14	2.851570e+14	8.254597e+03	4.162158e+03	1.819883e+03	0	5.056790e-04
7.100000e+08	2.612087e+12	0.000000e+00	4.572863e-01	1.067547e+14	5.698492e+14	2.837919e+14	8.245236e+03	4.157097e+03	1.817671e+03	0	5.021853e-04
7.200000e+08	2.558113e+12	0.000000e+00	4.572863e-01	1.058825e+14	5.642656e+14	2.824364e+14	8.235952e+03	4.152133e+03	1.815500e+03	0	4.987023e-04
7.300000e+08	2.505036e+12	0.000000e+00	4.572863e-01	1.050243e+14	5.588148e+14	2.810903e+14	8.226744e+03	4.147260e+03	1.813370e+03	0	4.952291e-04
7.400000e+08	2.452835e+12	0.000000e+00	4.572863e-01	1.041795e+14	5.534917e+14	2.797536e+14	8.217610e+03	4.142477e+03	1.811278e+03	0	4.917650e-04
7.500000e+08	2.401487e+12	0.000000e+00	4.572863e-01	1.033480e+14	5.482914e+14	2.784263e+14	8.208549e+03	4.137781e+03	1.809225e+03	0	4.883092e-04
7.600000e+08	2.350971e+12	0.000000e+00	4.572863e-01	1.025293e+14	5.432096e+14	2.771082e+14	8.199561e+03	4.133168e+03	1.807208e+03	0	4.848610e-04
7.700000e+08	2.301266e+12	0.000000e+00	4.572863e-01	1.017231e+14	5.382417e+14	2.757993e+14	8.190644e+03	4.128636e+03	1.805226e+03	0	4.814196e-04
7.800000e+08	2.252353e+12	0.000000e+00	4.572863e-01	1.009292e+14	5.333838e+14	2.744994e+14	8.181796e+03	4.124182e+03	1.803279e+03	0	4.779843e-04
7.900000e+08	2.204212e+12	0.000000e+00	4.572863e-01	1.001472e+14	5.286318e+14	2.732086e+14	8.173018e+03	4.119805e+03	1.801365e+03	0	4.745543e-04
8.000000e+08	2.156825e+12	0.000000e+00	4.572863e-01	9.937685e+13	5.239820e+14	2.719268e+14	8.164307e+03	4.115501e+03	1.799483e+03	0	4.711289e-04
8.100000e+08	2.110173e+12	0.000000e+00	4.572863e-01	9.861793e+13	5.194308e+14	2.706538e+14	8.155663e+03	4.111269e+03	1.797633e+03	0	4.677073e-04
8.200000e+08	2.064240e+12	0.000000e+00	4.572863e-01	9.787013e+13	5.149749e+14	2.693897e+14	8.147085e+03	4.107107e+03	1.795813e+03	0	4.642888e-04
8.300000e+08	2.019008e+12	0.000000e+00	4.572863e-01	9.713322e+13	5.106110e+14	2.681343e+14	8.138572e+03	4.103011e+03	1.794022e+03	0	4.608725e-04
8.400000e+08	1.974462e+12	0.000000e+00	4.572863e-01	9.640692e+13	5.063359e+14	2.668875e+14	8.130123e+03	4.098981e+03	1.792260e+03	0	4.574578e-04
8.500000e+08	1.930585e+12	0.000000e+00	4.572863e-01	9.569102e+13	5.021467e+14	2.656494e+14	8.121736e+03	4.095015e+03	1.790525e+03	0	4.540438e-04
8.600000e+08	1.887363e+12	0.000000e+00	4.572863e-01	9.498527e+13	4.980407e+14	2.644198e+14	8.113412e+03	4.091110e+03	1.788818e+03	0	4.506298e-04
8.700000e+08	1.844780e+12	0.000000e+00	4.572863e-01	9.428945e+13	4.940149e+14	2.631986e+14	8.105150e+03	4.087265e+03	1.787137e+03	0	4.472149e-04
8.800000e+08	1.802822e+12	0.000000e+00	4.572863e-01	9.360334e+13	4.900670e+14	2.619859e+14	8.096947e+03	4.083478e+03	1.785481e+03	0	4.437984e-04
8.900000e+08	1.761476e+12	0.000000e+00	4.572863e-01	9.292673e+13	4.861943e+14	2.607815e+14	8.088804e+03	4.079747e+03	1.783850e+03	0	4.403794e-04
9.000000e+08	1.720728e+12	0.000000e+00	4.572863e-01	9.225942e+13	4.823946e+14	2.595853e+14	8.080720e+03	4.076071e+03	1.782242e+03	0	4.369571e-04
9.100000e+08	1.680564e+12	0.000000e+00	4.572863e-01	9.160121e+13	4.786654e+14	2.583974e+14	8.072694e+03	4.072449e+03	1.780659e+03	0	4.335307e-04
9.200000e+08	1.640973e+12	0.000000e+00	4.572863e-01	9.095190e+13	4.750048e+14	2.572176e+14	8.064725e+03	4.068879e+03	1.779098e+03	0	4.300992e-04
9.300000e+08	1.601942e+12	0.000000e+00	4.572863e-01	9.031131e+13	4.714104e+14	2.560458e+14	8.056812e+03	4.065359e+03	1.777558e+03	0	4.266618e-04
9.400000e+08	1.563459e+12	0.000000e+00	4.572863e-01	8.967926e+13	4.678805e+14	2.548821e+14	8.048955e+03	4.061888e+03	1.776041e+03	0	4.232175e-04
9.500000e+08	1.525512e+12	0.000000e+00	4.572863e-01	8.905556e+13	4.644129e+14	2.537263e+14	8.041152e+03	4.058465e+03	1.774544e+03	0	4.197655e-04
9.600000e+08	1.488091e+12	0.000000e+00	4.572863e-01	8.844005e+13	4.610059e+14	2.525784e+14	8.033404e+03	4.055089e+03	1.773068e+03	0	4.163047e-04
9.700000e+08	1.451184e+12	0.000000e+00	4.572863e-01	8.783256e+13	4.576578e+14	2.514383e+14	8.025710e+03	4.051758e+03	1.771612e+03	0	4.128342e-04
9.800000e+08	1.414781e+12	0.000000e+00	4.572863e-01	8.723293e+13	4.543667e+14	2.503060e+14	8.018068e+03	4.048471e+03	1.770174e+03	0	4.093529e-04
9.900000e+08	1.378872e+12	0.000000e+00	4.572863e-01	8.664101e+13	4.511311e+14	2.491814e+14	8.010478e+03	4.045227e+03	1.768756e+03	0	4.058598e-04
1.000000e+09	1.343445e+12	0.000000e+00	4.572863e-01	8.605663e+13	4.479494e+14	2.480644e+14	8.002939e+03	4.042025e+03	1.767356e+03	0	4.023538e-04
1.010000e+09	1.308493e+12	0.000000e+00	4.572863e-01	8.547965e+13	4.448201e+14	2.469549e+14	7.995451e+03	4.038864e+03	1.765974e+03	0	3.988338e-04
1.020000e+09	1.274005e+12	0.000000e+00	4.572863e-01	8.490993e+13	4.417416e+14	2.458530e+14	7.988013e+03	4.035743e+03	1.764609e+03	0	3.952985e-04
1.030000e+09	1.239972e+12	0.000000e+00	4.572863e-01	8.434732e+13	4.387127e+14	2.447586e+14	7.980625e+03	4.032661e+03	1.763261e+03	0	3.917468e-04
1.040000e+09	1.206385e+12	0.000000e+00	4.572863e-01	8.379169e+13	4.357320e+14	2.436715e+14	7.973286e+03	4.029616e+03	1.761930e+03	0	3.881773e-04
1.050000e+09	1.173236e+12	0.000000e+00	4.572863e-01	8.324291e+13	4.327981e+14	2.425918e+14	7.965995e+03	4.026609e+03	1.760615e+03	0	3.845887e-04
1.060000e+09	1.140515e+12	0.000000e+00	4.572863e-01	8.270084e+13	4.299098e+14	2.415194e+14	7.958751e+03	4.023637e+03	1.759316e+03	0	3.809797e-04
1.070000e+09	1.108216e+12	0.000000e+00	4.572863e-01	8.216535e+13	4.270660e+14	2.404542e+14	7.951555e+03	4.020701e+03	1.758032e+03	0	3.773487e-04
1.080000e+09	1.076329e+12	0.000000e+00	4.572863e-01	8.163634e+13	4.242654e+14	2.393961e+14	7.944405e+03	4.017799e+03	1.756763e+03	0	3.736943e-04
1.090000e+09	1.044846e+12	0.000000e+00	4.572863e-01	8.111367e+13	4.215069e+14	2.383452e+14	7.937301e+03	4.014930e+03	1.755509e+03	0	3.700147e-04
1.100000e+09	1.013761e+12	0.000000e+00	4.572863e-01	8.059723e+13	4.187895e+14	2.373013e+14	7.930242e+03	4.012095e+03	1.754269e+03	0	3.663083e-04
1.110000e+09	9.830663e+11	0.000000e+00	4.572863e-01	8.008690e+13	4.161121e+14	2.362645e+14	7.923228e+03	4.009291e+03	1.753043e+03	0	3.625732e-04
1.120000e+09	9.527537e+11	0.000000e+00	4.572863e-01	7.958257e+13	4.134737e+14	2.352345e+14	7.916259e+03	4.006518e+03	1.751831e+03	0	3.588076e-04
1.130000e+09	9.228167e+11	0.000000e+00	4.572863e-01	7.908415e+13	4.108733e+14	2.342115e+14	7.909333e+03	4.003776e+03	1.750632e+03	0	3.550095e-04
1.140000e+09	8.932484e+11	0.000000e+00	4.572863e-01	7.859151e+13	4.083100e+14	2.331953e+14	7.902451e+03	4.001064e+03	1.749446e+03	0	3.511766e-04
1.150000e+09	8.640420e+11	0.000000e+00	4.572863e-01	7.810456e+13	4.057829e+14	2.321859e+14	7.895611e+03	3.998381e+03	1.748273e+03	0	3.473066e-04
1.160000e+09	8.351911e+11	0.000000e+00	4.572863e-01	7.762320e+13	4.032911e+14	2.311832e+14	7.888814e+03	3.995726e+03	1.747112e+03	0	3.433972e-04
1.170000e+09	8.066893e+11	0.000000e+00	4.572863e-01	7.714732e+13	4.008338e+14	2.301872e+14	7.882058e+03	3.993099e+03	1.745963e+03	0	3.394456e-04
1.180000e+09	7.785303e+11	0.000000e+00	4.572863e-01	7.667684e+13	3.984101e+14	2.291979e+14	7.875344e+03	3.990500e+03	1.744827e+03	0	3.354491e-04
1.190000e+09	7.507080e+11	0.000000e+00	4.572863e-01	7.621166e+13	3.960192e+14	2.282151e+14	7.868671e+03	3.987927e+03	1.743702e+03	0	3.314046e-04
1.200000e+09	7.232167e+11	0.000000e+00	4.572863e-01	7.575169e+13	3.936605e+14	2.272388e+14	7.862038e+03	3.985380e+03	1.742588e+03	0	3.273088e-04
1.210000e+09	6.960505e+11	0.000000e+00	4.572863e-01	7.529684e+13	3.913331e+14	2.262690e+14	7.855445e+03	3.982859e+03	1.741486e+03	0	3.231581e-04
1.220000e+09	6.692037e+11	0.000000e+00	4.572863e-01	7.484703e+13	3.890363e+14	2.253057e+14	7.848891e+03	3.980362e+03	1.740394e+03	0	3.189488e-04
1.230000e+09	6.426709e+11	0.000000e+00	4.572863e-01	7.440216e+13	3.867695e+14	2.243487e+14	7.842377e+03	3.977890e+03	1.739313e+03	0	3.146765e-04
1.240000e+09	6.164466e+11	0.000000e+00	4.572863e-01	7.396216e+13	3.845320e+14	2.233980e+14	7.835901e+03	3.975442e+03	1.738243e+03	0	3.103368e-04
1.250000e+09	5.905257e+11	0.000000e+00	4.572863e-01	7.352695e+13	3.823230e+14	2.224536e+14	7.829463e+03	3.973018e+03	1.737183e+03	0	3.059246e-04
1.260000e+09	5.649030e+11	0.000000e+00	4.572863e-01	7.309644e+13	3.801421e+14	2.215154e+14	7.823064e+03	3.970616e+03	1.736133e+03	0	3.014344e-04
1.270000e+09	5.395735e+11	0.000000e+00	4.572863e-01	7.267056e+13	3.779885e+14	2.205835e+14	7.816701e+03	3.968237e+03	1.735092e+03	0	2.968600e-04
1.280000e+09	5.145323e+11	0.000000e+00	4.572863e-01	7.224924e+13	3.758617e+14	2.196576e+14	7.810376e+03	3.965880e+03	1.734062e+03	0	2.921947e-04
1.290000e+09	4.897746e+11	0.000000e+00	4.572863e-01	7.183240e+13	3.737611e+14	2.187378e+14	7.804087e+03	3.963544e+03	1.733040e+03	0	2.874310e-04
1.300000e+09	4.652958e+11	0.000000e+00	4.572863e-01	7.141996e+13	3.716862e+14	2.178241e+14	7.797835e+03	3.961229e+03	1.732028e+03	0	2.825603e-04
1.310000e+09	4.410913e+11	0.000000e+00	4.572863e-01	7.101186e+13	3.696364e+14	2.169164e+14	7.791618e+03	3.958936e+03	1.731025e+03	0	2.775733e-04
1.320000e+09	4.171565e+11	0.000000e+00	4.572863e-01	7.060804e+13	3.676112e+14	2.160146e+14	7.785437e+03	3.956662e+03	1.730031e+03	0	2.724590e-04
1.330000e+09	3.934872e+11	0.000000e+00	4.572863e-01	7.020841e+13	3.656101e+14	2.151187e+14	7.779291e+03	3.954409e+03	1.729046e+03	0	2.672053e-04
1.340000e+09	3.700791e+11	0.000000e+00	4.572863e-01	6.981292e+13	3.636326e+14	2.142286e+14	7.773179e+03	3.952175e+03	1.728069e+03	0	2.617980e-04
1.350000e+09	3.469279e+11	0.000000e+00	4.572863e-01	6.942150e+13	3.616782e+14	2.133444e+14	7.767102e+03	3.949960e+03	1.727101e+03	0	2.562209e-04
1.360000e+09	3.240297e+11	0.000000e+00	4.572863e-01	6.903409e+13	3.597464e+14	2.124659e+14	7.761059e+03	3.947764e+03	1.726141e+03	0	2.504550e-04
