#t		Qconv[W]	Ri[Rp]		R*[Rp]		Qc[W]		Qm[W]		Qr[W]		Tcmb[K]		Tl[K]		Tup[K]		RiFlag		Bs[T]
0.000000e+00	1.786359e+13	0.000000e+00	4.572865e-01	3.590524e+14	4.319699e+15	4.814283e+14	1.039302e+04	6.183631e+03	2.523290e+03	0	9.467169e-04
1.000000e+07	1.740179e+13	0.000000e+00	4.572865e-01	3.526537e+14	4.011199e+15	4.787608e+14	1.036770e+04	6.102099e+03	2.490020e+03	0	9.384876e-04
2.000000e+07	1.694510e+13	0.000000e+00	4.572865e-01	3.463277e+14	3.741192e+15	4.761133e+14	1.034282e+04	6.027426e+03	2.459549e+03	0	9.302048e-04
3.000000e+07	1.649650e+13	0.000000e+00	4.572865e-01	3.401138e+14	3.503326e+15	4.734856e+14	1.031839e+04	5.958751e+03	2.431526e+03	0	9.219227e-04
4.000000e+07	1.605794e+13	0.000000e+00	4.572865e-01	3.340377e+14	3.292517e+15	4.708775e+14	1.029439e+04	5.895355e+03	2.405656e+03	0	9.136794e-04
5.000000e+07	1.563064e+13	0.000000e+00	4.572865e-01	3.281154e+14	3.104656e+15	4.682888e+14	1.027082e+04	5.836629e+03	2.381693e+03	0	9.055022e-04
6.000000e+07	1.521530e+13	0.000000e+00	4.572865e-01	3.223558e+14	2.936396e+15	4.657195e+14	1.024766e+04	5.782058e+03	2.359425e+03	0	8.974097e-04
7.000000e+07	1.481226e+13	0.000000e+00	4.572865e-01	3.167635e+14	2.784984e+15	4.631692e+14	1.022491e+04	5.731200e+03	2.338672e+03	0	8.894147e-04
8.000000e+07	1.442159e+13	0.000000e+00	4.572865e-01	3.113394e+14	2.648143e+15	4.606380e+14	1.020255e+04	5.683675e+03	2.319279e+03	0	8.815257e-04
9.000000e+07	1.404322e+13	0.000000e+00	4.572865e-01	3.060820e+14	2.523972e+15	4.581255e+14	1.018057e+04	5.639155e+03	2.301112e+03	0	8.737479e-04
1.000000e+08	1.367693e+13	0.000000e+00	4.572865e-01	3.009885e+14	2.410877e+15	4.556317e+14	1.015896e+04	5.597352e+03	2.284054e+03	0	8.660841e-04
1.100000e+08	1.332241e+13	0.000000e+00	4.572865e-01	2.960549e+14	2.307511e+15	4.531564e+14	1.013771e+04	5.558017e+03	2.268003e+03	0	8.585354e-04
1.200000e+08	1.297933e+13	0.000000e+00	4.572865e-01	2.912763e+14	2.212727e+15	4.506995e+14	1.011680e+04	5.520930e+03	2.252869e+03	0	8.511014e-04
1.300000e+08	1.264730e+13	0.000000e+00	4.572865e-01	2.866476e+14	2.125550e+15	4.482608e+14	1.009623e+04	5.485896e+03	2.238573e+03	0	8.437811e-04
1.400000e+08	1.232591e+13	0.000000e+00	4.572865e-01	2.821635e+14	2.045138e+15	4.458401e+14	1.007599e+04	5.452744e+03	2.225045e+03	0	8.365725e-04
1.500000e+08	1.201477e+13	0.000000e+00	4.572865e-01	2.778183e+14	1.970768e+15	4.434373e+14	1.005606e+04	5.421321e+03	2.212222e+03	0	8.294733e-04
1.600000e+08	1.171347e+13	0.000000e+00	4.572865e-01	2.736066e+14	1.901810e+15	4.410522e+14	1.003644e+04	5.391490e+03	2.200049e+03	0	8.224807e-04
1.700000e+08	1.142160e+13	0.000000e+00	4.572865e-01	2.695231e+14	1.837720e+15	4.386848e+14	1.001711e+04	5.363128e+03	2.188476e+03	0	8.155918e-04
1.800000e+08	1.113877e+13	0.000000e+00	4.572865e-01	2.655624e+14	1.778019e+15	4.363348e+14	9.998069e+03	5.336127e+03	2.177458e+03	0	8.088035e-04
1.900000e+08	1.086461e+13	0.000000e+00	4.572865e-01	2.617195e+14	1.722288e+15	4.340021e+14	9.979307e+03	5.310386e+03	2.166954e+03	0	8.021126e-04
2.000000e+08	1.059875e+13	0.000000e+00	4.572865e-01	2.579893e+14	1.670157e+15	4.316866e+14	9.960815e+03	5.285817e+03	2.156929e+03	0	7.955158e-04
2.100000e+08	1.034084e+13	0.000000e+00	4.572865e-01	2.543672e+14	1.621302e+15	4.293881e+14	9.942586e+03	5.262338e+03	2.147348e+03	0	7.890100e-04
2.200000e+08	1.009053e+13	0.000000e+00	4.572865e-01	2.508486e+14	1.575432e+15	4.271064e+14	9.924612e+03	5.239876e+03	2.138182e+03	0	7.825918e-04
2.300000e+08	9.847520e+12	0.000000e+00	4.572865e-01	2.474292e+14	1.532292e+15	4.248416e+14	9.906885e+03	5.218363e+03	2.129404e+03	0	7.762582e-04
2.400000e+08	9.611487e+12	0.000000e+00	4.572865e-01	2.441049e+14	1.491650e+15	4.225933e+14	9.889399e+03	5.197739e+03	2.120988e+03	0	7.700060e-04
2.500000e+08	9.382144e+12	0.000000e+00	4.572865e-01	2.408717e+14	1.453304e+15	4.203615e+14	9.872147e+03	5.177947e+03	2.112911e+03	0	7.638321e-04
2.600000e+08	9.159214e+12	0.000000e+00	4.572865e-01	2.377259e+14	1.417068e+15	4.181460e+14	9.855122e+03	5.158935e+03	2.105153e+03	0	7.577337e-04
2.700000e+08	8.942432e+12	0.000000e+00	4.572865e-01	2.346639e+14	1.382778e+15	4.159468e+14	9.838319e+03	5.140657e+03	2.097695e+03	0	7.517079e-04
2.800000e+08	8.731547e+12	0.000000e+00	4.572865e-01	2.316824e+14	1.350285e+15	4.137636e+14	9.821732e+03	5.123070e+03	2.090518e+03	0	7.457518e-04
2.900000e+08	8.526321e+12	0.000000e+00	4.572865e-01	2.287780e+14	1.319454e+15	4.115963e+14	9.805354e+03	5.106132e+03	2.083607e+03	0	7.398627e-04
3.000000e+08	8.326526e+12	0.000000e+00	4.572865e-01	2.259478e+14	1.290163e+15	4.094448e+14	9.789181e+03	5.089808e+03	2.076945e+03	0	7.340379e-04
3.100000e+08	8.131949e+12	0.000000e+00	4.572865e-01	2.231889e+14	1.262302e+15	4.073090e+14	9.773207e+03	5.074062e+03	2.070520e+03	0	7.282751e-04
3.200000e+08	7.942383e+12	0.000000e+00	4.572865e-01	2.204985e+14	1.235770e+15	4.051888e+14	9.757428e+03	5.058864e+03	2.064318e+03	0	7.225715e-04
3.300000e+08	7.757636e+12	0.000000e+00	4.572865e-01	2.178739e+14	1.210476e+15	4.030839e+14	9.741838e+03	5.044183e+03	2.058328e+03	0	7.169249e-04
3.400000e+08	7.577522e+12	0.000000e+00	4.572865e-01	2.153127e+14	1.186337e+15	4.009944e+14	9.726433e+03	5.029993e+03	2.052537e+03	0	7.113330e-04
3.500000e+08	7.401865e+12	0.000000e+00	4.572865e-01	2.128126e+14	1.163276e+15	3.989200e+14	9.711209e+03	5.016268e+03	2.046937e+03	0	7.057934e-04
3.600000e+08	7.230499e+12	0.000000e+00	4.572865e-01	2.103711e+14	1.141222e+15	3.968606e+14	9.696160e+03	5.002985e+03	2.041516e+03	0	7.003041e-04
3.700000e+08	7.063265e+12	0.000000e+00	4.572865e-01	2.079863e+14	1.120112e+15	3.948162e+14	9.681284e+03	4.990120e+03	2.036267e+03	0	6.948628e-04
3.800000e+08	6.900012e+12	0.000000e+00	4.572865e-01	2.056561e+14	1.099887e+15	3.927865e+14	9.666575e+03	4.977654e+03	2.031180e+03	0	6.894676e-04
3.900000e+08	6.740596e+12	0.000000e+00	4.572865e-01	2.033784e+14	1.080493e+15	3.907715e+14	9.652031e+03	4.965567e+03	2.026248e+03	0	6.841164e-04
4.000000e+08	6.584880e+12	0.000000e+00	4.572865e-01	2.011516e+14	1.061879e+15	3.887711e+14	9.637648e+03	4.953841e+03	2.021463e+03	0	6.788073e-04
4.100000e+08	6.432732e+12	0.000000e+00	4.572865e-01	1.989737e+14	1.043999e+15	3.867851e+14	9.623421e+03	4.942459e+03	2.016818e+03	0	6.735384e-04
4.200000e+08	6.284030e+12	0.000000e+00	4.572865e-01	1.968431e+14	1.026811e+15	3.848134e+14	9.609348e+03	4.931405e+03	2.012308e+03	0	6.683080e-04
4.300000e+08	6.138653e+12	0.000000e+00	4.572865e-01	1.947583e+14	1.010274e+15	3.828559e+14	9.595425e+03	4.920665e+03	2.007925e+03	0	6.631141e-04
4.400000e+08	5.996490e+12	0.000000e+00	4.572865e-01	1.927176e+14	9.943533e+14	3.809125e+14	9.581649e+03	4.910223e+03	2.003664e+03	0	6.579551e-04
4.500000e+08	5.857430e+12	0.000000e+00	4.572865e-01	1.907196e+14	9.790135e+14	3.789831e+14	9.568017e+03	4.900068e+03	1.999520e+03	0	6.528292e-04
4.600000e+08	5.721372e+12	0.000000e+00	4.572865e-01	1.887629e+14	9.642233e+14	3.770675e+14	9.554526e+03	4.890185e+03	1.995487e+03	0	6.477349e-04
4.700000e+08	5.588217e+12	0.000000e+00	4.572865e-01	1.868462e+14	9.499533e+14	3.751656e+14	9.541173e+03	4.880565e+03	1.991562e+03	0	6.426704e-04
4.800000e+08	5.457869e+12	0.000000e+00	4.572865e-01	1.849682e+14	9.361762e+14	3.732774e+14	9.527955e+03	4.871195e+03	1.987738e+03	0	6.376342e-04
4.900000e+08	5.330240e+12	0.000000e+00	4.572865e-01	1.831276e+14	9.228663e+14	3.714027e+14	9.514869e+03	4.862064e+03	1.984012e+03	0	6.326247e-04
5.000000e+08	5.205242e+12	0.000000e+00	4.572865e-01	1.813233e+14	9.099998e+14	3.695414e+14	9.501913e+03	4.853164e+03	1.980381e+03	0	6.276404e-04
5.100000e+08	5.082794e+12	0.000000e+00	4.572865e-01	1.795542e+14	8.975545e+14	3.676934e+14	9.489085e+03	4.844485e+03	1.976839e+03	0	6.226797e-04
5.200000e+08	4.962815e+12	0.000000e+00	4.572865e-01	1.778192e+14	8.855094e+14	3.658586e+14	9.476381e+03	4.836017e+03	1.973384e+03	0	6.177412e-04
5.300000e+08	4.845230e+12	0.000000e+00	4.572865e-01	1.761173e+14	8.738451e+14	3.640369e+14	9.463799e+03	4.827753e+03	1.970011e+03	0	6.128234e-04
5.400000e+08	4.729966e+12	0.000000e+00	4.572865e-01	1.744474e+14	8.625432e+14	3.622281e+14	9.451338e+03	4.819684e+03	1.966719e+03	0	6.079249e-04
5.500000e+08	4.616954e+12	0.000000e+00	4.572865e-01	1.728087e+14	8.515867e+14	3.604323e+14	9.438994e+03	4.811803e+03	1.963503e+03	0	6.030441e-04
5.600000e+08	4.506126e+12	0.000000e+00	4.572865e-01	1.712002e+14	8.409593e+14	3.586491e+14	9.426766e+03	4.804103e+03	1.960361e+03	0	5.981797e-04
5.700000e+08	4.397419e+12	0.000000e+00	4.572865e-01	1.696210e+14	8.306460e+14	3.568787e+14	9.414652e+03	4.796576e+03	1.957289e+03	0	5.933303e-04
5.800000e+08	4.290771e+12	0.000000e+00	4.572865e-01	1.680704e+14	8.206324e+14	3.551208e+14	9.402649e+03	4.789217e+03	1.954286e+03	0	5.884944e-04
5.900000e+08	4.186123e+12	0.000000e+00	4.572865e-01	1.665474e+14	8.109052e+14	3.533754e+14	9.390755e+03	4.782019e+03	1.951349e+03	0	5.836707e-04
6.000000e+08	4.083417e+12	0.000000e+00	4.572865e-01	1.650514e+14	8.014517e+14	3.516423e+14	9.378969e+03	4.774976e+03	1.948475e+03	0	5.788577e-04
6.100000e+08	3.982599e+12	0.000000e+00	4.572865e-01	1.635816e+14	7.922601e+14	3.499215e+14	9.367288e+03	4.768083e+03	1.945662e+03	0	5.740540e-04
6.200000e+08	3.883617e+12	0.000000e+00	4.572865e-01	1.621372e+14	7.833190e+14	3.482128e+14	9.355711e+03	4.761334e+03	1.942908e+03	0	5.692583e-04
6.300000e+08	3.786419e+12	0.000000e+00	4.572865e-01	1.607176e+14	7.746178e+14	3.465162e+14	9.344236e+03	4.754724e+03	1.940211e+03	0	5.644690e-04
6.400000e+08	3.690957e+12	0.000000e+00	4.572865e-01	1.593221e+14	7.661466e+14	3.448316e+14	9.332862e+03	4.748248e+03	1.937569e+03	0	5.596849e-04
6.500000e+08	3.597185e+12	0.000000e+00	4.572865e-01	1.579501e+14	7.578958e+14	3.431589e+14	9.321585e+03	4.741902e+03	1.934979e+03	0	5.549044e-04
6.600000e+08	3.505056e+12	0.000000e+00	4.572865e-01	1.566010e+14	7.498565e+14	3.414979e+14	9.310406e+03	4.735682e+03	1.932441e+03	0	5.501260e-04
6.700000e+08	3.414528e+12	0.000000e+00	4.572865e-01	1.552741e+14	7.420201e+14	3.398486e+14	9.299322e+03	4.729582e+03	1.929952e+03	0	5.453485e-04
6.800000e+08	3.325558e+12	0.000000e+00	4.572865e-01	1.539689e+14	7.343786e+14	3.382108e+14	9.288331e+03	4.723600e+03	1.927510e+03	0	5.405701e-04
6.900000e+08	3.238106e+12	0.000000e+00	4.572865e-01	1.526849e+14	7.269243e+14	3.365846e+14	9.277433e+03	4.717730e+03	1.925115e+03	0	5.357895e-04
7.000000e+08	3.152132e+12	0.000000e+00	4.572865e-01	1.514214e+14	7.196501e+14	3.349697e+14	9.266625e+03	4.711970e+03	1.922765e+03	0	5.310051e-04
7.100000e+08	3.067600e+12	0.000000e+00	4.572865e-01	1.501781e+14	7.125489e+14	3.333662e+14	9.255906e+03	4.706316e+03	1.920458e+03	0	5.262153e-04
7.200000e+08	2.984473e+12	0.000000e+00	4.572865e-01	1.489543e+14	7.056143e+14	3.317739e+14	9.245275e+03	4.700764e+03	1.918192e+03	0	5.214185e-04
7.300000e+08	2.902715e+12	0.000000e+00	4.572865e-01	1.477496e+14	6.988401e+14	3.301927e+14	9.234731e+03	4.695311e+03	1.915967e+03	0	5.166131e-04
7.400000e+08	2.822293e+12	0.000000e+00	4.572865e-01	1.465636e+14	6.922203e+14	3.286225e+14	9.224271e+03	4.689955e+03	1.913781e+03	0	5.117973e-04
7.500000e+08	2.743174e+12	0.000000e+00	4.572865e-01	1.453958e+14	6.857493e+14	3.270633e+14	9.213896e+03	4.684691e+03	1.911634e+03	0	5.069693e-04
7.600000e+08	2.665327e+12	0.000000e+00	4.572865e-01	1.442458e+14	6.794217e+14	3.255150e+14	9.203603e+03	4.679518e+03	1.909523e+03	0	5.021275e-04
7.700000e+08	2.588720e+12	0.000000e+00	4.572865e-01	1.431131e+14	6.732326e+14	3.239774e+14	9.193391e+03	4.674433e+03	1.907447e+03	0	4.972700e-04
7.800000e+08	2.513324e+12	0.000000e+00	4.572865e-01	1.419973e+14	6.671769e+14	3.224505e+14	9.183259e+03	4.669432e+03	1.905407e+03	0	4.923947e-04
7.900000e+08	2.439110e+12	0.000000e+00	4.572865e-01	1.408981e+14	6.612500e+14	3.209342e+14	9.173205e+03	4.664513e+03	1.903400e+03	0	4.874997e-04
8.000000e+08	2.366050e+12	0.000000e+00	4.572865e-01	1.398151e+14	6.554476e+14	3.194285e+14	9.163230e+03	4.659674e+03	1.901425e+03	0	4.825829e-04
8.100000e+08	2.294119e+12	0.000000e+00	4.572865e-01	1.387478e+14	6.497654e+14	3.179331e+14	9.153331e+03	4.654913e+03	1.899482e+03	0	4.776420e-04
8.200000e+08	2.223289e+12	0.000000e+00	4.572865e-01	1.376960e+14	6.441993e+14	3.164482e+14	9.143507e+03	4.650227e+03	1.897570e+03	0	4.726749e-04
8.300000e+08	2.153536e+12	0.000000e+00	4.572865e-01	1.366593e+14	6.387455e+14	3.149734e+14	9.133758e+03	4.645614e+03	1.895688e+03	0	4.676791e-04
8.400000e+08	2.084835e+12	0.000000e+00	4.572865e-01	1.356374e+14	6.334003e+14	3.135089e+14	9.124081e+03	4.641072e+03	1.893834e+03	0	4.626520e-04
8.500000e+08	2.017162e+12	0.000000e+00	4.572865e-01	1.346299e+14	6.281602e+14	3.120545e+14	9.114477e+03	4.636598e+03	1.892009e+03	0	4.575910e-04
8.600000e+08	1.950495e+12	0.000000e+00	4.572865e-01	1.336365e+14	6.230219e+14	3.106101e+14	9.104945e+03	4.632192e+03	1.890211e+03	0	4.524933e-04
8.700000e+08	1.884812e+12	0.000000e+00	4.572865e-01	1.326569e+14	6.179820e+14	3.091756e+14	9.095482e+03	4.627851e+03	1.888439e+03	0	4.473559e-04
8.800000e+08	1.820090e+12	0.000000e+00	4.572865e-01	1.316909e+14	6.130375e+14	3.077510e+14	9.086088e+03	4.623574e+03	1.886694e+03	0	4.421756e-04
8.900000e+08	1.756309e+12	0.000000e+00	4.572865e-01	1.307381e+14	6.081854e+14	3.063362e+14	9.076763e+03	4.619358e+03	1.884974e+03	0	4.369491e-04
9.000000e+08	1.693448e+12	0.000000e+00	4.572865e-01	1.297983e+14	6.034229e+14	3.049311e+14	9.067505e+03	4.615202e+03	1.883278e+03	0	4.316726e-04
9.100000e+08	1.631489e+12	0.000000e+00	4.572865e-01	1.288711e+14	5.987472e+14	3.035357e+14	9.058313e+03	4.611104e+03	1.881606e+03	0	4.263424e-04
9.200000e+08	1.570411e+12	0.000000e+00	4.572865e-01	1.279563e+14	5.941558e+14	3.021498e+14	9.049187e+03	4.607064e+03	1.879957e+03	0	4.209543e-04
9.300000e+08	1.510196e+12	0.000000e+00	4.572865e-01	1.270538e+14	5.896461e+14	3.007733e+14	9.040126e+03	4.603078e+03	1.878331e+03	0	4.155038e-04
9.400000e+08	1.450827e+12	0.000000e+00	4.572865e-01	1.261631e+14	5.852158e+14	2.994063e+14	9.031128e+03	4.599147e+03	1.876726e+03	0	4.099860e-04
9.500000e+08	1.392285e+12	0.000000e+00	4.572865e-01	1.252841e+14	5.808624e+14	2.980486e+14	9.022194e+03	4.595267e+03	1.875143e+03	0	4.043958e-04
9.600000e+08	1.334554e+12	0.000000e+00	4.572865e-01	1.244166e+14	5.765839e+14	2.967002e+14	9.013321e+03	4.591439e+03	1.873581e+03	0	3.987272e-04
9.700000e+08	1.277616e+12	0.000000e+00	4.572865e-01	1.235602e+14	5.723780e+14	2.953610e+14	9.004510e+03	4.587661e+03	1.872039e+03	0	3.929742e-04
9.800000e+08	1.221457e+12	0.000000e+00	4.572865e-01	1.227149e+14	5.682427e+14	2.940308e+14	8.995759e+03	4.583932e+03	1.870518e+03	0	3.871298e-04
9.900000e+08	1.166060e+12	0.000000e+00	4.572865e-01	1.218803e+14	5.641760e+14	2.927097e+14	8.987068e+03	4.580249e+03	1.869015e+03	0	3.811866e-04
1.000000e+09	1.111411e+12	0.000000e+00	4.572865e-01	1.210563e+14	5.601760e+14	2.913976e+14	8.978436e+03	4.576613e+03	1.867531e+03	0	3.751360e-04
1.010000e+09	1.057493e+12	0.000000e+00	4.572865e-01	1.202427e+14	5.562410e+14	2.900944e+14	8.969862e+03	4.573022e+03	1.866066e+03	0	3.689689e-04
1.020000e+09	1.004293e+12	0.000000e+00	4.572865e-01	1.194392e+14	5.523691e+14	2.888000e+14	8.961345e+03	4.569475e+03	1.864618e+03	0	3.626748e-04
1.030000e+09	9.517976e+11	0.000000e+00	4.572865e-01	1.186457e+14	5.485586e+14	2.875144e+14	8.952886e+03	4.565971e+03	1.863188e+03	0	3.562423e-04
1.040000e+09	8.999921e+11	0.000000e+00	4.572865e-01	1.178620e+14	5.448079e+14	2.862374e+14	8.944482e+03	4.562508e+03	1.861776e+03	0	3.496580e-04
1.050000e+09	8.488634e+11	0.000000e+00	4.572865e-01	1.170878e+14	5.411154e+14	2.849691e+14	8.936134e+03	4.559087e+03	1.860379e+03	0	3.429071e-04
1.060000e+09	7.983987e+11	0.000000e+00	4.572865e-01	1.163231e+14	5.374797e+14	2.837093e+14	8.927841e+03	4.555705e+03	1.858999e+03	0	3.359726e-04
1.070000e+09	7.485854e+11	0.000000e+00	4.572865e-01	1.155676e+14	5.338992e+14	2.824580e+14	8.919601e+03	4.552362e+03	1.857635e+03	0	3.288347e-04
1.080000e+09	6.994111e+11	0.000000e+00	4.572865e-01	1.148212e+14	5.303726e+14	2.812152e+14	8.911415e+03	4.549058e+03	1.856287e+03	0	3.214707e-04
1.090000e+09	6.508640e+11	0.000000e+00	4.572865e-01	1.140837e+14	5.268984e+14	2.799807e+14	8.903282e+03	4.545790e+03	1.854954e+03	0	3.138537e-04
1.100000e+09	6.029323e+11	0.000000e+00	4.572865e-01	1.133550e+14	5.234753e+14	2.787544e+14	8.895201e+03	4.542559e+03	1.853635e+03	0	3.059521e-04
1.110000e+09	5.556047e+11	0.000000e+00	4.572865e-01	1.126348e+14	5.201022e+14	2.775364e+14	8.887171e+03	4.539363e+03	1.852331e+03	0	2.977277e-04
1.120000e+09	5.088701e+11	0.000000e+00	4.572865e-01	1.119231e+14	5.167777e+14	2.763266e+14	8.879192e+03	4.536202e+03	1.851041e+03	0	2.891343e-04
1.130000e+09	4.627177e+11	0.000000e+00	4.572865e-01	1.112196e+14	5.135007e+14	2.751249e+14	8.871264e+03	4.533075e+03	1.849765e+03	0	2.801147e-04
1.140000e+09	4.171370e+11	0.000000e+00	4.572865e-01	1.105243e+14	5.102700e+14	2.739312e+14	8.863385e+03	4.529981e+03	1.848503e+03	0	2.705973e-04
1.150000e+09	3.721176e+11	0.000000e+00	4.572865e-01	1.098370e+14	5.070845e+14	2.727454e+14	8.855556e+03	4.526920e+03	1.847253e+03	0	2.604898e-04
1.160000e+09	3.276496e+11	0.000000e+00	4.572865e-01	1.091576e+14	5.039431e+14	2.715676e+14	8.847775e+03	4.523890e+03	1.846017e+03	0	2.496704e-04
1.170000e+09	2.837231e+11	0.000000e+00	4.572865e-01	1.084858e+14	5.008449e+14	2.703976e+14	8.840042e+03	4.520892e+03	1.844794e+03	0	2.379736e-04
1.180000e+09	2.403286e+11	0.000000e+00	4.572865e-01	1.078217e+14	4.977888e+14	2.692354e+14	8.832357e+03	4.517924e+03	1.843582e+03	0	2.251641e-04
1.190000e+09	1.974568e+11	0.000000e+00	4.572865e-01	1.071650e+14	4.947738e+14	2.680809e+14	8.824718e+03	4.514985e+03	1.842383e+03	0	2.108893e-04
1.200000e+09	1.550986e+11	0.000000e+00	4.572865e-01	1.065157e+14	4.917991e+14	2.669341e+14	8.817126e+03	4.512076e+03	1.841196e+03	0	1.945807e-04
1.210000e+09	1.132450e+11	0.000000e+00	4.572865e-01	1.058735e+14	4.888636e+14	2.657949e+14	8.809580e+03	4.509195e+03	1.840021e+03	0	1.752146e-04
1.220000e+09	7.188745e+10	0.000000e+00	4.572865e-01	1.052385e+14	4.859665e+14	2.646633e+14	8.802079e+03	4.506343e+03	1.838857e+03	0	1.505850e-04
1.230000e+09	3.101740e+10	0.000000e+00	4.572865e-01	1.046104e+14	4.831070e+14	2.635391e+14	8.794624e+03	4.503517e+03	1.837704e+03	0	1.137887e-04
1.240000e+09	-9.373415e+09	0.000000e+00	4.572865e-01	1.039892e+14	4.802842e+14	2.624224e+14	8.787212e+03	4.500719e+03	1.836562e+03	0	nan
