#t		Qconv[W]	Ri[Rp]		R*[Rp]		Qc[W]		Qm[W]		Qr[W]		Tcmb[K]		Tl[K]		Tup[K]		RiFlag		Bs[T]
0.000000e+00	3.068609e+13	0.000000e+00	4.522614e-01	6.104636e+14	4.758507e+15	6.284057e+14	1.276397e+04	7.352350e+03	2.646596e+03	0	1.131118e-03
1.000000e+07	2.981917e+13	0.000000e+00	4.522614e-01	6.000121e+14	4.506291e+15	6.249239e+14	1.273229e+04	7.285260e+03	2.622446e+03	0	1.120364e-03
2.000000e+07	2.897391e+13	0.000000e+00	4.522614e-01	5.898165e+14	4.278690e+15	6.214681e+14	1.270115e+04	7.222633e+03	2.599902e+03	0	1.109677e-03
3.000000e+07	2.815110e+13	0.000000e+00	4.522614e-01	5.798854e+14	4.072456e+15	6.180381e+14	1.267054e+04	7.164020e+03	2.578803e+03	0	1.099071e-03
4.000000e+07	2.735108e+13	0.000000e+00	4.522614e-01	5.702225e+14	3.884868e+15	6.146338e+14	1.264044e+04	7.109033e+03	2.559010e+03	0	1.088560e-03
5.000000e+07	2.657388e+13	0.000000e+00	4.522614e-01	5.608277e+14	3.713631e+15	6.112548e+14	1.261084e+04	7.057331e+03	2.540399e+03	0	1.078150e-03
6.000000e+07	2.581928e+13	0.000000e+00	4.522614e-01	5.516984e+14	3.556798e+15	6.079010e+14	1.258172e+04	7.008618e+03	2.522864e+03	0	1.067846e-03
7.000000e+07	2.508688e+13	0.000000e+00	4.522614e-01	5.428298e+14	3.412709e+15	6.045722e+14	1.255308e+04	6.962631e+03	2.506310e+03	0	1.057652e-03
8.000000e+07	2.437620e+13	0.000000e+00	4.522614e-01	5.342160e+14	3.279940e+15	6.012682e+14	1.252489e+04	6.919139e+03	2.490654e+03	0	1.047569e-03
9.000000e+07	2.368665e+13	0.000000e+00	4.522614e-01	5.258501e+14	3.157267e+15	5.979887e+14	1.249715e+04	6.877934e+03	2.475822e+03	0	1.037597e-03
1.000000e+08	2.301759e+13	0.000000e+00	4.522614e-01	5.177249e+14	3.043626e+15	5.947336e+14	1.246984e+04	6.838835e+03	2.461748e+03	0	1.027734e-03
1.100000e+08	2.236838e+13	0.000000e+00	4.522614e-01	5.098325e+14	2.938098e+15	5.915026e+14	1.244295e+04	6.801676e+03	2.448372e+03	0	1.017979e-03
1.200000e+08	2.173832e+13	0.000000e+00	4.522614e-01	5.021652e+14	2.839875e+15	5.882956e+14	1.241646e+04	6.766311e+03	2.435642e+03	0	1.008330e-03
1.300000e+08	2.112675e+13	0.000000e+00	4.522614e-01	4.947149e+14	2.748254e+15	5.851123e+14	1.239038e+04	6.732607e+03	2.423509e+03	0	9.987842e-04
1.400000e+08	2.053300e+13	0.000000e+00	4.522614e-01	4.874738e+14	2.662615e+15	5.819526e+14	1.236468e+04	6.700445e+03	2.411932e+03	0	9.893384e-04
1.500000e+08	1.995639e+13	0.000000e+00	4.522614e-01	4.804343e+14	2.582409e+15	5.788162e+14	1.233935e+04	6.669716e+03	2.400871e+03	0	9.799895e-04
1.600000e+08	1.939629e+13	0.000000e+00	4.522614e-01	4.735889e+14	2.507154e+15	5.757030e+14	1.231439e+04	6.640323e+03	2.390290e+03	0	9.707341e-04
1.700000e+08	1.885206e+13	0.000000e+00	4.522614e-01	4.669302e+14	2.436418e+15	5.726128e+14	1.228978e+04	6.612175e+03	2.380158e+03	0	9.615689e-04
1.800000e+08	1.832311e+13	0.000000e+00	4.522614e-01	4.604512e+14	2.369819e+15	5.695454e+14	1.226552e+04	6.585193e+03	2.370445e+03	0	9.524901e-04
1.900000e+08	1.780884e+13	0.000000e+00	4.522614e-01	4.541451e+14	2.307013e+15	5.665005e+14	1.224159e+04	6.559300e+03	2.361125e+03	0	9.434944e-04
2.000000e+08	1.730870e+13	0.000000e+00	4.522614e-01	4.480053e+14	2.247696e+15	5.634781e+14	1.221798e+04	6.534430e+03	2.352172e+03	0	9.345781e-04
2.100000e+08	1.682214e+13	0.000000e+00	4.522614e-01	4.420256e+14	2.191590e+15	5.604779e+14	1.219470e+04	6.510520e+03	2.343565e+03	0	9.257375e-04
2.200000e+08	1.634865e+13	0.000000e+00	4.522614e-01	4.362000e+14	2.138448e+15	5.574997e+14	1.217172e+04	6.487512e+03	2.335283e+03	0	9.169691e-04
2.300000e+08	1.588772e+13	0.000000e+00	4.522614e-01	4.305227e+14	2.088047e+15	5.545434e+14	1.214905e+04	6.465354e+03	2.327307e+03	0	9.082693e-04
2.400000e+08	1.543889e+13	0.000000e+00	4.522614e-01	4.249881e+14	2.040183e+15	5.516087e+14	1.212667e+04	6.443996e+03	2.319619e+03	0	8.996346e-04
2.500000e+08	1.500171e+13	0.000000e+00	4.522614e-01	4.195910e+14	1.994674e+15	5.486956e+14	1.210458e+04	6.423394e+03	2.312203e+03	0	8.910615e-04
2.600000e+08	1.457573e+13	0.000000e+00	4.522614e-01	4.143264e+14	1.951352e+15	5.458037e+14	1.208276e+04	6.403505e+03	2.305044e+03	0	8.825464e-04
2.700000e+08	1.416055e+13	0.000000e+00	4.522614e-01	4.091894e+14	1.910067e+15	5.429330e+14	1.206122e+04	6.384292e+03	2.298128e+03	0	8.740860e-04
2.800000e+08	1.375577e+13	0.000000e+00	4.522614e-01	4.041754e+14	1.870679e+15	5.400833e+14	1.203995e+04	6.365719e+03	2.291442e+03	0	8.656767e-04
2.900000e+08	1.336102e+13	0.000000e+00	4.522614e-01	3.992801e+14	1.833062e+15	5.372544e+14	1.201893e+04	6.347750e+03	2.284974e+03	0	8.573153e-04
3.000000e+08	1.297592e+13	0.000000e+00	4.522614e-01	3.944992e+14	1.797101e+15	5.344461e+14	1.199817e+04	6.330357e+03	2.278713e+03	0	8.489983e-04
3.100000e+08	1.260015e+13	0.000000e+00	4.522614e-01	3.898287e+14	1.762689e+15	5.316582e+14	1.197766e+04	6.313509e+03	2.272648e+03	0	8.407224e-04
3.200000e+08	1.223336e+13	0.000000e+00	4.522614e-01	3.852649e+14	1.729729e+15	5.288906e+14	1.195738e+04	6.297180e+03	2.266770e+03	0	8.324843e-04
3.300000e+08	1.187525e+13	0.000000e+00	4.522614e-01	3.808039e+14	1.698131e+15	5.261432e+14	1.193735e+04	6.281345e+03	2.261070e+03	0	8.242805e-04
3.400000e+08	1.152552e+13	0.000000e+00	4.522614e-01	3.764424e+14	1.667813e+15	5.234157e+14	1.191754e+04	6.265979e+03	2.255539e+03	0	8.161079e-04
3.500000e+08	1.118388e+13	0.000000e+00	4.522614e-01	3.721770e+14	1.638699e+15	5.207080e+14	1.189796e+04	6.251060e+03	2.250169e+03	0	8.079631e-04
3.600000e+08	1.085005e+13	0.000000e+00	4.522614e-01	3.680045e+14	1.610717e+15	5.180199e+14	1.187861e+04	6.236568e+03	2.244952e+03	0	7.998428e-04
3.700000e+08	1.052377e+13	0.000000e+00	4.522614e-01	3.639218e+14	1.583804e+15	5.153513e+14	1.185946e+04	6.222483e+03	2.239882e+03	0	7.917436e-04
3.800000e+08	1.020480e+13	0.000000e+00	4.522614e-01	3.599260e+14	1.557898e+15	5.127021e+14	1.184053e+04	6.208787e+03	2.234952e+03	0	7.836622e-04
3.900000e+08	9.892888e+12	0.000000e+00	4.522614e-01	3.560143e+14	1.532945e+15	5.100719e+14	1.182181e+04	6.195463e+03	2.230156e+03	0	7.755952e-04
4.000000e+08	9.587810e+12	0.000000e+00	4.522614e-01	3.521840e+14	1.508890e+15	5.074608e+14	1.180329e+04	6.182493e+03	2.225487e+03	0	7.675392e-04
4.100000e+08	9.289345e+12	0.000000e+00	4.522614e-01	3.484325e+14	1.485688e+15	5.048684e+14	1.178497e+04	6.169864e+03	2.220941e+03	0	7.594907e-04
4.200000e+08	8.997282e+12	0.000000e+00	4.522614e-01	3.447574e+14	1.463291e+15	5.022948e+14	1.176684e+04	6.157560e+03	2.216512e+03	0	7.514462e-04
4.300000e+08	8.711420e+12	0.000000e+00	4.522614e-01	3.411563e+14	1.441659e+15	4.997397e+14	1.174891e+04	6.145568e+03	2.212195e+03	0	7.434020e-04
4.400000e+08	8.431565e+12	0.000000e+00	4.522614e-01	3.376269e+14	1.420752e+15	4.972030e+14	1.173116e+04	6.133875e+03	2.207986e+03	0	7.353546e-04
4.500000e+08	8.157531e+12	0.000000e+00	4.522614e-01	3.341672e+14	1.400534e+15	4.946845e+14	1.171359e+04	6.122468e+03	2.203880e+03	0	7.273001e-04
4.600000e+08	7.889140e+12	0.000000e+00	4.522614e-01	3.307749e+14	1.380971e+15	4.921841e+14	1.169620e+04	6.111337e+03	2.199873e+03	0	7.192347e-04
4.700000e+08	7.626222e+12	0.000000e+00	4.522614e-01	3.274481e+14	1.362030e+15	4.897016e+14	1.167899e+04	6.100470e+03	2.195962e+03	0	7.111544e-04
4.800000e+08	7.368613e+12	0.000000e+00	4.522614e-01	3.241848e+14	1.343681e+15	4.872370e+14	1.166195e+04	6.089857e+03	2.192141e+03	0	7.030551e-04
4.900000e+08	7.116156e+12	0.000000e+00	4.522614e-01	3.209833e+14	1.325897e+15	4.847899e+14	1.164508e+04	6.079488e+03	2.188409e+03	0	6.949324e-04
5.000000e+08	6.868698e+12	0.000000e+00	4.522614e-01	3.178416e+14	1.308650e+15	4.823604e+14	1.162838e+04	6.069354e+03	2.184761e+03	0	6.867820e-04
5.100000e+08	6.626096e+12	0.000000e+00	4.522614e-01	3.147583e+14	1.291917e+15	4.799482e+14	1.161184e+04	6.059446e+03	2.181194e+03	0	6.785992e-04
5.200000e+08	6.388208e+12	0.000000e+00	4.522614e-01	3.117315e+14	1.275674e+15	4.775532e+14	1.159546e+04	6.049755e+03	2.177706e+03	0	6.703791e-04
5.300000e+08	6.154901e+12	0.000000e+00	4.522614e-01	3.087597e+14	1.259899e+15	4.751753e+14	1.157923e+04	6.040273e+03	2.174293e+03	0	6.621165e-04
5.400000e+08	5.926045e+12	0.000000e+00	4.522614e-01	3.058414e+14	1.244571e+15	4.728144e+14	1.156317e+04	6.030994e+03	2.170952e+03	0	6.538062e-04
5.500000e+08	5.701516e+12	0.000000e+00	4.522614e-01	3.029752e+14	1.229670e+15	4.704702e+14	1.154725e+04	6.021908e+03	2.167682e+03	0	6.454425e-04
5.600000e+08	5.481193e+12	0.000000e+00	4.522614e-01	3.001595e+14	1.215179e+15	4.681427e+14	1.153148e+04	6.013011e+03	2.164479e+03	0	6.370191e-04
5.700000e+08	5.264963e+12	0.000000e+00	4.522614e-01	2.973931e+14	1.201080e+15	4.658318e+14	1.151585e+04	6.004295e+03	2.161342e+03	0	6.285298e-04
5.800000e+08	5.052712e+12	0.000000e+00	4.522614e-01	2.946747e+14	1.187356e+15	4.635372e+14	1.150038e+04	5.995753e+03	2.158267e+03	0	6.199675e-04
5.900000e+08	4.844335e+12	0.000000e+00	4.522614e-01	2.920029e+14	1.173993e+15	4.612589e+14	1.148504e+04	5.987381e+03	2.155253e+03	0	6.113250e-04
6.000000e+08	4.639728e+12	0.000000e+00	4.522614e-01	2.893766e+14	1.160975e+15	4.589968e+14	1.146984e+04	5.979171e+03	2.152298e+03	0	6.025942e-04
6.100000e+08	4.438791e+12	0.000000e+00	4.522614e-01	2.867946e+14	1.148288e+15	4.567506e+14	1.145477e+04	5.971119e+03	2.149399e+03	0	5.937665e-04
6.200000e+08	4.241429e+12	0.000000e+00	4.522614e-01	2.842558e+14	1.135920e+15	4.545203e+14	1.143984e+04	5.963219e+03	2.146556e+03	0	5.848325e-04
6.300000e+08	4.047547e+12	0.000000e+00	4.522614e-01	2.817590e+14	1.123858e+15	4.523057e+14	1.142505e+04	5.955467e+03	2.143765e+03	0	5.757820e-04
6.400000e+08	3.857058e+12	0.000000e+00	4.522614e-01	2.793033e+14	1.112089e+15	4.501068e+14	1.141038e+04	5.947857e+03	2.141026e+03	0	5.666038e-04
6.500000e+08	3.669874e+12	0.000000e+00	4.522614e-01	2.768875e+14	1.100604e+15	4.479234e+14	1.139584e+04	5.940385e+03	2.138336e+03	0	5.572856e-04
6.600000e+08	3.485912e+12	0.000000e+00	4.522614e-01	2.745107e+14	1.089390e+15	4.457553e+14	1.138142e+04	5.933047e+03	2.135695e+03	0	5.478137e-04
6.700000e+08	3.305090e+12	0.000000e+00	4.522614e-01	2.721720e+14	1.078438e+15	4.436024e+14	1.136713e+04	5.925838e+03	2.133100e+03	0	5.381730e-04
6.800000e+08	3.127332e+12	0.000000e+00	4.522614e-01	2.698704e+14	1.067739e+15	4.414647e+14	1.135296e+04	5.918754e+03	2.130550e+03	0	5.283464e-04
6.900000e+08	2.952562e+12	0.000000e+00	4.522614e-01	2.676051e+14	1.057283e+15	4.393420e+14	1.133891e+04	5.911792e+03	2.128044e+03	0	5.183150e-04
7.000000e+08	2.780707e+12	0.000000e+00	4.522614e-01	2.653751e+14	1.047061e+15	4.372342e+14	1.132497e+04	5.904948e+03	2.125580e+03	0	5.080571e-04
7.100000e+08	2.611696e+12	0.000000e+00	4.522614e-01	2.631796e+14	1.037065e+15	4.351411e+14	1.131116e+04	5.898218e+03	2.123158e+03	0	4.975480e-04
7.200000e+08	2.445461e+12	0.000000e+00	4.522614e-01	2.610179e+14	1.027287e+15	4.330626e+14	1.129745e+04	5.891599e+03	2.120775e+03	0	4.867594e-04
7.300000e+08	2.281935e+12	0.000000e+00	4.522614e-01	2.588891e+14	1.017720e+15	4.309987e+14	1.128386e+04	5.885087e+03	2.118431e+03	0	4.756584e-04
7.400000e+08	2.121056e+12	0.000000e+00	4.522614e-01	2.567925e+14	1.008356e+15	4.289492e+14	1.127038e+04	5.878680e+03	2.116125e+03	0	4.642068e-04
7.500000e+08	1.962761e+12	0.000000e+00	4.522614e-01	2.547273e+14	9.991887e+14	4.269140e+14	1.125701e+04	5.872374e+03	2.113855e+03	0	4.523590e-04
7.600000e+08	1.806989e+12	0.000000e+00	4.522614e-01	2.526929e+14	9.902110e+14	4.248929e+14	1.124374e+04	5.866167e+03	2.111620e+03	0	4.400607e-04
7.700000e+08	1.653684e+12	0.000000e+00	4.522614e-01	2.506886e+14	9.814167e+14	4.228859e+14	1.123059e+04	5.860055e+03	2.109420e+03	0	4.272462e-04
7.800000e+08	1.502788e+12	0.000000e+00	4.522614e-01	2.487136e+14	9.727999e+14	4.208929e+14	1.121753e+04	5.854036e+03	2.107254e+03	0	4.138344e-04
7.900000e+08	1.354246e+12	0.000000e+00	4.522614e-01	2.467673e+14	9.643549e+14	4.189137e+14	1.120458e+04	5.848107e+03	2.105119e+03	0	3.997238e-04
8.000000e+08	1.208007e+12	0.000000e+00	4.522614e-01	2.448492e+14	9.560761e+14	4.169482e+14	1.119173e+04	5.842267e+03	2.103017e+03	0	3.847842e-04
8.100000e+08	1.064018e+12	0.000000e+00	4.522614e-01	2.429585e+14	9.479583e+14	4.149964e+14	1.117898e+04	5.836511e+03	2.100945e+03	0	3.688448e-04
8.200000e+08	9.222292e+11	0.000000e+00	4.522614e-01	2.410948e+14	9.399963e+14	4.130580e+14	1.116632e+04	5.830839e+03	2.098903e+03	0	3.516741e-04
8.300000e+08	7.825928e+11	0.000000e+00	4.522614e-01	2.392573e+14	9.321854e+14	4.111331e+14	1.115377e+04	5.825248e+03	2.096891e+03	0	3.329452e-04
8.400000e+08	6.450616e+11	0.000000e+00	4.522614e-01	2.374456e+14	9.245210e+14	4.092214e+14	1.114130e+04	5.819735e+03	2.094906e+03	0	3.121724e-04
8.500000e+08	5.095901e+11	0.000000e+00	4.522614e-01	2.356592e+14	9.169985e+14	4.073230e+14	1.112894e+04	5.814299e+03	2.092950e+03	0	2.885810e-04
8.600000e+08	3.761339e+11	0.000000e+00	4.522614e-01	2.338974e+14	9.096138e+14	4.054376e+14	1.111666e+04	5.808938e+03	2.091020e+03	0	2.608004e-04
8.700000e+08	2.446501e+11	0.000000e+00	4.522614e-01	2.321598e+14	9.023626e+14	4.035652e+14	1.110448e+04	5.803649e+03	2.089116e+03	0	2.259657e-04
8.800000e+08	1.150968e+11	0.000000e+00	4.522614e-01	2.304459e+14	8.952412e+14	4.017057e+14	1.109239e+04	5.798431e+03	2.087238e+03	0	1.757445e-04
8.900000e+08	-1.256655e+10	0.000000e+00	4.522614e-01	2.287552e+14	8.882457e+14	3.998590e+14	1.108038e+04	5.793282e+03	2.085384e+03	0	nan
