#t		Qconv[W]	Ri[Rp]		R*[Rp]		Qc[W]		Qm[W]		Qr[W]		Tcmb[K]		Tl[K]		Tup[K]		RiFlag		Bs[T]
0.000000e+00	3.734407e+13	0.000000e+00	4.522614e-01	7.619724e+14	4.864739e+15	6.999113e+14	1.391845e+04	7.917941e+03	2.700110e+03	0	1.203481e-03
1.000000e+07	3.624365e+13	0.000000e+00	4.522614e-01	7.494651e+14	4.644201e+15	6.960333e+14	1.388428e+04	7.858282e+03	2.679766e+03	0	1.191542e-03
2.000000e+07	3.517279e+13	0.000000e+00	4.522614e-01	7.372843e+14	4.442605e+15	6.921843e+14	1.385067e+04	7.802147e+03	2.660623e+03	0	1.179689e-03
3.000000e+07	3.413145e+13	0.000000e+00	4.522614e-01	7.254291e+14	4.257726e+15	6.883640e+14	1.381761e+04	7.749220e+03	2.642574e+03	0	1.167931e-03
4.000000e+07	3.311931e+13	0.000000e+00	4.522614e-01	7.138958e+14	4.087662e+15	6.845723e+14	1.378507e+04	7.699222e+03	2.625524e+03	0	1.156270e-03
5.000000e+07	3.213585e+13	0.000000e+00	4.522614e-01	7.026786e+14	3.930778e+15	6.808088e+14	1.375305e+04	7.651906e+03	2.609389e+03	0	1.144710e-03
6.000000e+07	3.118046e+13	0.000000e+00	4.522614e-01	6.917705e+14	3.785665e+15	6.770734e+14	1.372153e+04	7.607053e+03	2.594094e+03	0	1.133251e-03
7.000000e+07	3.025240e+13	0.000000e+00	4.522614e-01	6.811635e+14	3.651099e+15	6.733658e+14	1.369050e+04	7.564466e+03	2.579571e+03	0	1.121894e-03
8.000000e+07	2.935090e+13	0.000000e+00	4.522614e-01	6.708491e+14	3.526017e+15	6.696858e+14	1.365994e+04	7.523972e+03	2.565762e+03	0	1.110638e-03
9.000000e+07	2.847514e+13	0.000000e+00	4.522614e-01	6.608183e+14	3.409488e+15	6.660332e+14	1.362984e+04	7.485412e+03	2.552613e+03	0	1.099480e-03
1.000000e+08	2.762429e+13	0.000000e+00	4.522614e-01	6.510620e+14	3.300694e+15	6.624076e+14	1.360018e+04	7.448644e+03	2.540074e+03	0	1.088418e-03
1.100000e+08	2.679752e+13	0.000000e+00	4.522614e-01	6.415711e+14	3.198918e+15	6.588090e+14	1.357097e+04	7.413541e+03	2.528104e+03	0	1.077450e-03
1.200000e+08	2.599398e+13	0.000000e+00	4.522614e-01	6.323365e+14	3.103524e+15	6.552371e+14	1.354217e+04	7.379986e+03	2.516661e+03	0	1.066571e-03
1.300000e+08	2.521287e+13	0.000000e+00	4.522614e-01	6.233492e+14	3.013948e+15	6.516916e+14	1.351379e+04	7.347875e+03	2.505711e+03	0	1.055779e-03
1.400000e+08	2.445337e+13	0.000000e+00	4.522614e-01	6.146004e+14	2.929690e+15	6.481723e+14	1.348582e+04	7.317110e+03	2.495220e+03	0	1.045069e-03
1.500000e+08	2.371471e+13	0.000000e+00	4.522614e-01	6.060817e+14	2.850304e+15	6.446791e+14	1.345823e+04	7.287606e+03	2.485159e+03	0	1.034438e-03
1.600000e+08	2.299612e+13	0.000000e+00	4.522614e-01	5.977848e+14	2.775389e+15	6.412116e+14	1.343102e+04	7.259282e+03	2.475500e+03	0	1.023883e-03
1.700000e+08	2.229688e+13	0.000000e+00	4.522614e-01	5.897016e+14	2.704589e+15	6.377698e+14	1.340418e+04	7.232064e+03	2.466218e+03	0	1.013398e-03
1.800000e+08	2.161627e+13	0.000000e+00	4.522614e-01	5.818246e+14	2.637580e+15	6.343533e+14	1.337771e+04	7.205886e+03	2.457291e+03	0	1.002980e-03
1.900000e+08	2.095362e+13	0.000000e+00	4.522614e-01	5.741461e+14	2.574073e+15	6.309620e+14	1.335158e+04	7.180685e+03	2.448697e+03	0	9.926248e-04
2.000000e+08	2.030827e+13	0.000000e+00	4.522614e-01	5.666592e+14	2.513806e+15	6.275956e+14	1.332580e+04	7.156405e+03	2.440417e+03	0	9.823277e-04
2.100000e+08	1.967960e+13	0.000000e+00	4.522614e-01	5.593570e+14	2.456541e+15	6.242540e+14	1.330036e+04	7.132993e+03	2.432434e+03	0	9.720848e-04
2.200000e+08	1.906699e+13	0.000000e+00	4.522614e-01	5.522328e+14	2.402063e+15	6.209369e+14	1.327524e+04	7.110400e+03	2.424729e+03	0	9.618916e-04
2.300000e+08	1.846988e+13	0.000000e+00	4.522614e-01	5.452804e+14	2.350177e+15	6.176442e+14	1.325044e+04	7.088582e+03	2.417289e+03	0	9.517438e-04
2.400000e+08	1.788770e+13	0.000000e+00	4.522614e-01	5.384938e+14	2.300705e+15	6.143756e+14	1.322595e+04	7.067496e+03	2.410098e+03	0	9.416371e-04
2.500000e+08	1.731993e+13	0.000000e+00	4.522614e-01	5.318671e+14	2.253483e+15	6.111310e+14	1.320177e+04	7.047104e+03	2.403145e+03	0	9.315671e-04
2.600000e+08	1.676607e+13	0.000000e+00	4.522614e-01	5.253949e+14	2.208363e+15	6.079101e+14	1.317788e+04	7.027369e+03	2.396415e+03	0	9.215293e-04
2.700000e+08	1.622562e+13	0.000000e+00	4.522614e-01	5.190717e+14	2.165209e+15	6.047128e+14	1.315428e+04	7.008259e+03	2.389898e+03	0	9.115192e-04
2.800000e+08	1.569812e+13	0.000000e+00	4.522614e-01	5.128927e+14	2.123895e+15	6.015388e+14	1.313096e+04	6.989742e+03	2.383583e+03	0	9.015323e-04
2.900000e+08	1.518313e+13	0.000000e+00	4.522614e-01	5.068528e+14	2.084307e+15	5.983879e+14	1.310792e+04	6.971788e+03	2.377461e+03	0	8.915640e-04
3.000000e+08	1.468022e+13	0.000000e+00	4.522614e-01	5.009474e+14	2.046340e+15	5.952601e+14	1.308515e+04	6.954370e+03	2.371521e+03	0	8.816095e-04
3.100000e+08	1.418898e+13	0.000000e+00	4.522614e-01	4.951722e+14	2.009895e+15	5.921550e+14	1.306264e+04	6.937462e+03	2.365756e+03	0	8.716640e-04
3.200000e+08	1.370902e+13	0.000000e+00	4.522614e-01	4.895227e+14	1.974883e+15	5.890725e+14	1.304040e+04	6.921041e+03	2.360156e+03	0	8.617228e-04
3.300000e+08	1.323998e+13	0.000000e+00	4.522614e-01	4.839950e+14	1.941221e+15	5.860124e+14	1.301840e+04	6.905084e+03	2.354714e+03	0	8.517807e-04
3.400000e+08	1.278148e+13	0.000000e+00	4.522614e-01	4.785850e+14	1.908831e+15	5.829746e+14	1.299666e+04	6.889570e+03	2.349424e+03	0	8.418327e-04
3.500000e+08	1.233319e+13	0.000000e+00	4.522614e-01	4.732891e+14	1.877643e+15	5.799588e+14	1.297515e+04	6.874479e+03	2.344278e+03	0	8.318734e-04
3.600000e+08	1.189478e+13	0.000000e+00	4.522614e-01	4.681037e+14	1.847590e+15	5.769649e+14	1.295388e+04	6.859792e+03	2.339269e+03	0	8.218974e-04
3.700000e+08	1.146594e+13	0.000000e+00	4.522614e-01	4.630252e+14	1.818610e+15	5.739926e+14	1.293285e+04	6.845492e+03	2.334393e+03	0	8.118989e-04
3.800000e+08	1.104636e+13	0.000000e+00	4.522614e-01	4.580505e+14	1.790647e+15	5.710418e+14	1.291204e+04	6.831562e+03	2.329642e+03	0	8.018722e-04
3.900000e+08	1.063575e+13	0.000000e+00	4.522614e-01	4.531762e+14	1.763646e+15	5.681124e+14	1.289145e+04	6.817986e+03	2.325013e+03	0	7.918109e-04
4.000000e+08	1.023384e+13	0.000000e+00	4.522614e-01	4.483995e+14	1.737559e+15	5.652041e+14	1.287109e+04	6.804751e+03	2.320499e+03	0	7.817087e-04
4.100000e+08	9.840357e+12	0.000000e+00	4.522614e-01	4.437172e+14	1.712338e+15	5.623169e+14	1.285093e+04	6.791840e+03	2.316097e+03	0	7.715588e-04
4.200000e+08	9.455045e+12	0.000000e+00	4.522614e-01	4.391267e+14	1.687941e+15	5.594504e+14	1.283099e+04	6.779242e+03	2.311801e+03	0	7.613540e-04
4.300000e+08	9.077661e+12	0.000000e+00	4.522614e-01	4.346252e+14	1.664327e+15	5.566045e+14	1.281125e+04	6.766944e+03	2.307607e+03	0	7.510867e-04
4.400000e+08	8.707967e+12	0.000000e+00	4.522614e-01	4.302101e+14	1.641458e+15	5.537792e+14	1.279172e+04	6.754935e+03	2.303511e+03	0	7.407489e-04
4.500000e+08	8.345736e+12	0.000000e+00	4.522614e-01	4.258790e+14	1.619298e+15	5.509741e+14	1.277238e+04	6.743202e+03	2.299510e+03	0	7.303319e-04
4.600000e+08	7.990752e+12	0.000000e+00	4.522614e-01	4.216294e+14	1.597814e+15	5.481892e+14	1.275324e+04	6.731735e+03	2.295600e+03	0	7.198267e-04
4.700000e+08	7.642802e+12	0.000000e+00	4.522614e-01	4.174590e+14	1.576974e+15	5.454242e+14	1.273428e+04	6.720524e+03	2.291777e+03	0	7.092232e-04
4.800000e+08	7.301687e+12	0.000000e+00	4.522614e-01	4.133656e+14	1.556749e+15	5.426791e+14	1.271551e+04	6.709560e+03	2.288038e+03	0	6.985108e-04
4.900000e+08	6.967212e+12	0.000000e+00	4.522614e-01	4.093471e+14	1.537111e+15	5.399536e+14	1.269693e+04	6.698833e+03	2.284380e+03	0	6.876779e-04
5.000000e+08	6.639189e+12	0.000000e+00	4.522614e-01	4.054014e+14	1.518035e+15	5.372476e+14	1.267853e+04	6.688335e+03	2.280800e+03	0	6.767118e-04
5.100000e+08	6.317439e+12	0.000000e+00	4.522614e-01	4.015265e+14	1.499495e+15	5.345610e+14	1.266030e+04	6.678057e+03	2.277295e+03	0	6.655987e-04
5.200000e+08	6.001789e+12	0.000000e+00	4.522614e-01	3.977205e+14	1.481468e+15	5.318935e+14	1.264225e+04	6.667992e+03	2.273863e+03	0	6.543232e-04
5.300000e+08	5.692071e+12	0.000000e+00	4.522614e-01	3.939816e+14	1.463932e+15	5.292450e+14	1.262437e+04	6.658131e+03	2.270500e+03	0	6.428686e-04
5.400000e+08	5.388125e+12	0.000000e+00	4.522614e-01	3.903080e+14	1.446867e+15	5.266154e+14	1.260665e+04	6.648469e+03	2.267205e+03	0	6.312160e-04
5.500000e+08	5.089796e+12	0.000000e+00	4.522614e-01	3.866980e+14	1.430254e+15	5.240045e+14	1.258910e+04	6.638998e+03	2.263976e+03	0	6.193444e-04
5.600000e+08	4.796932e+12	0.000000e+00	4.522614e-01	3.831499e+14	1.414073e+15	5.214122e+14	1.257171e+04	6.629711e+03	2.260809e+03	0	6.072301e-04
5.700000e+08	4.509392e+12	0.000000e+00	4.522614e-01	3.796621e+14	1.398307e+15	5.188383e+14	1.255448e+04	6.620602e+03	2.257702e+03	0	5.948462e-04
5.800000e+08	4.227034e+12	0.000000e+00	4.522614e-01	3.762331e+14	1.382940e+15	5.162826e+14	1.253741e+04	6.611666e+03	2.254655e+03	0	5.821622e-04
5.900000e+08	3.949724e+12	0.000000e+00	4.522614e-01	3.728614e+14	1.367955e+15	5.137451e+14	1.252049e+04	6.602896e+03	2.251665e+03	0	5.691425e-04
6.000000e+08	3.677333e+12	0.000000e+00	4.522614e-01	3.695456e+14	1.353339e+15	5.112255e+14	1.250372e+04	6.594287e+03	2.248729e+03	0	5.557461e-04
6.100000e+08	3.409735e+12	0.000000e+00	4.522614e-01	3.662843e+14	1.339076e+15	5.087237e+14	1.248710e+04	6.585835e+03	2.245847e+03	0	5.419247e-04
6.200000e+08	3.146809e+12	0.000000e+00	4.522614e-01	3.630760e+14	1.325154e+15	5.062396e+14	1.247063e+04	6.577534e+03	2.243016e+03	0	5.276212e-04
6.300000e+08	2.888437e+12	0.000000e+00	4.522614e-01	3.599196e+14	1.311559e+15	5.037731e+14	1.245430e+04	6.569379e+03	2.240235e+03	0	5.127666e-04
6.400000e+08	2.634507e+12	0.000000e+00	4.522614e-01	3.568138e+14	1.298280e+15	5.013239e+14	1.243811e+04	6.561365e+03	2.237502e+03	0	4.972772e-04
6.500000e+08	2.384909e+12	0.000000e+00	4.522614e-01	3.537574e+14	1.285305e+15	4.988920e+14	1.242207e+04	6.553489e+03	2.234816e+03	0	4.810490e-04
6.600000e+08	2.139537e+12	0.000000e+00	4.522614e-01	3.507491e+14	1.272623e+15	4.964773e+14	1.240615e+04	6.545746e+03	2.232176e+03	0	4.639509e-04
6.700000e+08	1.898288e+12	0.000000e+00	4.522614e-01	3.477879e+14	1.260223e+15	4.940795e+14	1.239038e+04	6.538132e+03	2.229579e+03	0	4.458130e-04
6.800000e+08	1.661063e+12	0.000000e+00	4.522614e-01	3.448726e+14	1.248096e+15	4.916985e+14	1.237473e+04	6.530644e+03	2.227026e+03	0	4.264101e-04
6.900000e+08	1.427767e+12	0.000000e+00	4.522614e-01	3.420022e+14	1.236232e+15	4.893342e+14	1.235922e+04	6.523276e+03	2.224513e+03	0	4.054318e-04
7.000000e+08	1.198305e+12	0.000000e+00	4.522614e-01	3.391757e+14	1.224622e+15	4.869865e+14	1.234384e+04	6.516027e+03	2.222041e+03	0	3.824323e-04
7.100000e+08	9.725889e+11	0.000000e+00	4.522614e-01	3.363920e+14	1.213258e+15	4.846553e+14	1.232858e+04	6.508892e+03	2.219608e+03	0	3.567318e-04
7.200000e+08	7.505303e+11	0.000000e+00	4.522614e-01	3.336502e+14	1.202130e+15	4.823403e+14	1.231345e+04	6.501869e+03	2.217213e+03	0	3.272062e-04
7.300000e+08	5.320450e+11	0.000000e+00	4.522614e-01	3.309493e+14	1.191232e+15	4.800416e+14	1.229844e+04	6.494954e+03	2.214855e+03	0	2.917527e-04
7.400000e+08	3.170508e+11	0.000000e+00	4.522614e-01	3.282884e+14	1.180555e+15	4.777588e+14	1.228355e+04	6.488143e+03	2.212532e+03	0	2.455133e-04
7.500000e+08	1.054685e+11	0.000000e+00	4.522614e-01	3.256667e+14	1.170093e+15	4.754920e+14	1.226878e+04	6.481435e+03	2.210245e+03	0	1.701138e-04
7.600000e+08	-1.027793e+11	0.000000e+00	4.522614e-01	3.230832e+14	1.159838e+15	4.732410e+14	1.225413e+04	6.474826e+03	2.207991e+03	0	nan
