#t		Qconv[W]	Ri[Rp]		R*[Rp]		Qc[W]		Qm[W]		Qr[W]		Tcmb[K]		Tl[K]		Tup[K]		RiFlag		Bs[T]
0.000000e+00	4.440105e+13	0.000000e+00	4.472363e-01	9.273572e+14	4.954401e+15	7.780241e+14	1.507725e+04	8.483466e+03	2.749737e+03	0	1.278775e-03
1.000000e+07	4.302664e+13	0.000000e+00	4.472363e-01	9.123593e+14	4.763114e+15	7.737133e+14	1.503945e+04	8.431086e+03	2.732759e+03	0	1.265442e-03
2.000000e+07	4.169113e+13	0.000000e+00	4.472363e-01	8.977710e+14	4.586210e+15	7.694347e+14	1.500226e+04	8.381440e+03	2.716667e+03	0	1.252211e-03
3.000000e+07	4.039360e+13	0.000000e+00	4.472363e-01	8.835828e+14	4.422191e+15	7.651881e+14	1.496566e+04	8.334311e+03	2.701391e+03	0	1.239083e-03
4.000000e+07	3.913306e+13	0.000000e+00	4.472363e-01	8.697841e+14	4.269752e+15	7.609732e+14	1.492963e+04	8.289501e+03	2.686867e+03	0	1.226058e-03
5.000000e+07	3.790846e+13	0.000000e+00	4.472363e-01	8.563637e+14	4.127755e+15	7.567897e+14	1.489417e+04	8.246836e+03	2.673038e+03	0	1.213133e-03
6.000000e+07	3.671868e+13	0.000000e+00	4.472363e-01	8.433102e+14	3.995199e+15	7.526374e+14	1.485925e+04	8.206158e+03	2.659853e+03	0	1.200306e-03
7.000000e+07	3.556261e+13	0.000000e+00	4.472363e-01	8.306118e+14	3.871205e+15	7.485161e+14	1.482485e+04	8.167323e+03	2.647266e+03	0	1.187575e-03
8.000000e+07	3.443912e+13	0.000000e+00	4.472363e-01	8.182568e+14	3.754996e+15	7.444254e+14	1.479098e+04	8.130203e+03	2.635234e+03	0	1.174935e-03
9.000000e+07	3.334710e+13	0.000000e+00	4.472363e-01	8.062337e+14	3.645883e+15	7.403651e+14	1.475760e+04	8.094680e+03	2.623720e+03	0	1.162383e-03
1.000000e+08	3.228547e+13	0.000000e+00	4.472363e-01	7.945308e+14	3.543254e+15	7.363349e+14	1.472471e+04	8.060648e+03	2.612689e+03	0	1.149914e-03
1.100000e+08	3.125313e+13	0.000000e+00	4.472363e-01	7.831372e+14	3.446564e+15	7.323347e+14	1.469230e+04	8.028009e+03	2.602110e+03	0	1.137525e-03
1.200000e+08	3.024906e+13	0.000000e+00	4.472363e-01	7.720420e+14	3.355324e+15	7.283641e+14	1.466035e+04	7.996674e+03	2.591954e+03	0	1.125210e-03
1.300000e+08	2.927224e+13	0.000000e+00	4.472363e-01	7.612345e+14	3.269097e+15	7.244229e+14	1.462885e+04	7.966563e+03	2.582194e+03	0	1.112965e-03
1.400000e+08	2.832169e+13	0.000000e+00	4.472363e-01	7.507046e+14	3.187490e+15	7.205109e+14	1.459779e+04	7.937600e+03	2.572806e+03	0	1.100786e-03
1.500000e+08	2.739646e+13	0.000000e+00	4.472363e-01	7.404425e+14	3.110150e+15	7.166278e+14	1.456715e+04	7.909717e+03	2.563768e+03	0	1.088666e-03
1.600000e+08	2.649564e+13	0.000000e+00	4.472363e-01	7.304387e+14	3.036755e+15	7.127733e+14	1.453694e+04	7.882851e+03	2.555060e+03	0	1.076600e-03
1.700000e+08	2.561837e+13	0.000000e+00	4.472363e-01	7.206840e+14	2.967018e+15	7.089474e+14	1.450713e+04	7.856943e+03	2.546663e+03	0	1.064585e-03
1.800000e+08	2.476379e+13	0.000000e+00	4.472363e-01	7.111697e+14	2.900674e+15	7.051496e+14	1.447771e+04	7.831939e+03	2.538558e+03	0	1.052613e-03
1.900000e+08	2.393109e+13	0.000000e+00	4.472363e-01	7.018873e+14	2.837487e+15	7.013798e+14	1.444869e+04	7.807790e+03	2.530731e+03	0	1.040680e-03
2.000000e+08	2.311951e+13	0.000000e+00	4.472363e-01	6.928288e+14	2.777237e+15	6.976377e+14	1.442004e+04	7.784448e+03	2.523165e+03	0	1.028780e-03
2.100000e+08	2.232830e+13	0.000000e+00	4.472363e-01	6.839865e+14	2.719728e+15	6.939232e+14	1.439176e+04	7.761872e+03	2.515847e+03	0	1.016908e-03
2.200000e+08	2.155674e+13	0.000000e+00	4.472363e-01	6.753529e+14	2.664778e+15	6.902359e+14	1.436383e+04	7.740022e+03	2.508765e+03	0	1.005057e-03
2.300000e+08	2.080416e+13	0.000000e+00	4.472363e-01	6.669208e+14	2.612221e+15	6.865757e+14	1.433626e+04	7.718859e+03	2.501906e+03	0	9.932222e-04
2.400000e+08	2.006989e+13	0.000000e+00	4.472363e-01	6.586835e+14	2.561904e+15	6.829423e+14	1.430903e+04	7.698350e+03	2.495258e+03	0	9.813970e-04
2.500000e+08	1.935332e+13	0.000000e+00	4.472363e-01	6.506344e+14	2.513688e+15	6.793356e+14	1.428214e+04	7.678462e+03	2.488812e+03	0	9.695752e-04
2.600000e+08	1.865383e+13	0.000000e+00	4.472363e-01	6.427672e+14	2.467444e+15	6.757552e+14	1.425557e+04	7.659164e+03	2.482557e+03	0	9.577505e-04
2.700000e+08	1.797086e+13	0.000000e+00	4.472363e-01	6.350759e+14	2.423053e+15	6.722011e+14	1.422933e+04	7.640430e+03	2.476484e+03	0	9.459163e-04
2.800000e+08	1.730386e+13	0.000000e+00	4.472363e-01	6.275549e+14	2.380406e+15	6.686728e+14	1.420339e+04	7.622231e+03	2.470586e+03	0	9.340656e-04
2.900000e+08	1.665229e+13	0.000000e+00	4.472363e-01	6.201985e+14	2.339402e+15	6.651704e+14	1.417777e+04	7.604543e+03	2.464853e+03	0	9.221914e-04
3.000000e+08	1.601566e+13	0.000000e+00	4.472363e-01	6.130014e+14	2.299947e+15	6.616934e+14	1.415244e+04	7.587344e+03	2.459278e+03	0	9.102862e-04
3.100000e+08	1.539346e+13	0.000000e+00	4.472363e-01	6.059586e+14	2.261954e+15	6.582418e+14	1.412740e+04	7.570610e+03	2.453854e+03	0	8.983422e-04
3.200000e+08	1.478525e+13	0.000000e+00	4.472363e-01	5.990653e+14	2.225342e+15	6.548153e+14	1.410265e+04	7.554321e+03	2.448574e+03	0	8.863514e-04
3.300000e+08	1.419057e+13	0.000000e+00	4.472363e-01	5.923166e+14	2.190037e+15	6.514137e+14	1.407819e+04	7.538459e+03	2.443433e+03	0	8.743050e-04
3.400000e+08	1.360899e+13	0.000000e+00	4.472363e-01	5.857083e+14	2.155969e+15	6.480368e+14	1.405399e+04	7.523003e+03	2.438423e+03	0	8.621941e-04
3.500000e+08	1.304011e+13	0.000000e+00	4.472363e-01	5.792359e+14	2.123073e+15	6.446845e+14	1.403007e+04	7.507939e+03	2.433540e+03	0	8.500089e-04
3.600000e+08	1.248353e+13	0.000000e+00	4.472363e-01	5.728953e+14	2.091288e+15	6.413564e+14	1.400641e+04	7.493248e+03	2.428779e+03	0	8.377392e-04
3.700000e+08	1.193887e+13	0.000000e+00	4.472363e-01	5.666826e+14	2.060559e+15	6.380524e+14	1.398300e+04	7.478916e+03	2.424133e+03	0	8.253739e-04
3.800000e+08	1.140576e+13	0.000000e+00	4.472363e-01	5.605939e+14	2.030831e+15	6.347723e+14	1.395985e+04	7.464928e+03	2.419599e+03	0	8.129013e-04
3.900000e+08	1.088387e+13	0.000000e+00	4.472363e-01	5.546257e+14	2.002057e+15	6.315160e+14	1.393695e+04	7.451270e+03	2.415172e+03	0	8.003086e-04
4.000000e+08	1.037285e+13	0.000000e+00	4.472363e-01	5.487742e+14	1.974190e+15	6.282831e+14	1.391429e+04	7.437930e+03	2.410848e+03	0	7.875819e-04
4.100000e+08	9.872377e+12	0.000000e+00	4.472363e-01	5.430363e+14	1.947186e+15	6.250736e+14	1.389187e+04	7.424894e+03	2.406623e+03	0	7.747061e-04
4.200000e+08	9.382148e+12	0.000000e+00	4.472363e-01	5.374086e+14	1.921005e+15	6.218872e+14	1.386968e+04	7.412152e+03	2.402493e+03	0	7.616647e-04
4.300000e+08	8.901861e+12	0.000000e+00	4.472363e-01	5.318879e+14	1.895609e+15	6.187238e+14	1.384772e+04	7.399691e+03	2.398454e+03	0	7.484394e-04
4.400000e+08	8.431230e+12	0.000000e+00	4.472363e-01	5.264713e+14	1.870961e+15	6.155831e+14	1.382599e+04	7.387502e+03	2.394503e+03	0	7.350102e-04
4.500000e+08	7.969978e+12	0.000000e+00	4.472363e-01	5.211559e+14	1.847028e+15	6.124650e+14	1.380447e+04	7.375575e+03	2.390637e+03	0	7.213545e-04
4.600000e+08	7.517839e+12	0.000000e+00	4.472363e-01	5.159388e+14	1.823779e+15	6.093692e+14	1.378318e+04	7.363899e+03	2.386853e+03	0	7.074472e-04
4.700000e+08	7.074558e+12	0.000000e+00	4.472363e-01	5.108174e+14	1.801183e+15	6.062957e+14	1.376209e+04	7.352466e+03	2.383147e+03	0	6.932600e-04
4.800000e+08	6.639887e+12	0.000000e+00	4.472363e-01	5.057890e+14	1.779213e+15	6.032442e+14	1.374122e+04	7.341267e+03	2.379517e+03	0	6.787606e-04
4.900000e+08	6.213589e+12	0.000000e+00	4.472363e-01	5.008512e+14	1.757841e+15	6.002145e+14	1.372054e+04	7.330294e+03	2.375961e+03	0	6.639121e-04
5.000000e+08	5.795436e+12	0.000000e+00	4.472363e-01	4.960015e+14	1.737042e+15	5.972065e+14	1.370007e+04	7.319539e+03	2.372474e+03	0	6.486719e-04
5.100000e+08	5.385205e+12	0.000000e+00	4.472363e-01	4.912376e+14	1.716793e+15	5.942200e+14	1.367980e+04	7.308995e+03	2.369057e+03	0	6.329904e-04
5.200000e+08	4.982684e+12	0.000000e+00	4.472363e-01	4.865573e+14	1.697071e+15	5.912548e+14	1.365972e+04	7.298654e+03	2.365705e+03	0	6.168092e-04
5.300000e+08	4.587668e+12	0.000000e+00	4.472363e-01	4.819584e+14	1.677855e+15	5.883108e+14	1.363984e+04	7.288509e+03	2.362417e+03	0	6.000587e-04
5.400000e+08	4.199958e+12	0.000000e+00	4.472363e-01	4.774388e+14	1.659124e+15	5.853877e+14	1.362014e+04	7.278554e+03	2.359190e+03	0	5.826549e-04
5.500000e+08	3.819362e+12	0.000000e+00	4.472363e-01	4.729964e+14	1.640861e+15	5.824854e+14	1.360062e+04	7.268783e+03	2.356023e+03	0	5.644949e-04
5.600000e+08	3.445696e+12	0.000000e+00	4.472363e-01	4.686294e+14	1.623045e+15	5.796038e+14	1.358129e+04	7.259190e+03	2.352913e+03	0	5.454505e-04
5.700000e+08	3.078781e+12	0.000000e+00	4.472363e-01	4.643358e+14	1.605661e+15	5.767426e+14	1.356213e+04	7.249768e+03	2.349860e+03	0	5.253588e-04
5.800000e+08	2.718444e+12	0.000000e+00	4.472363e-01	4.601137e+14	1.588692e+15	5.739017e+14	1.354315e+04	7.240514e+03	2.346860e+03	0	5.040069e-04
5.900000e+08	2.364519e+12	0.000000e+00	4.472363e-01	4.559615e+14	1.572123e+15	5.710810e+14	1.352434e+04	7.231420e+03	2.343913e+03	0	4.811095e-04
6.000000e+08	2.016843e+12	0.000000e+00	4.472363e-01	4.518775e+14	1.555938e+15	5.682802e+14	1.350570e+04	7.222483e+03	2.341016e+03	0	4.562685e-04
6.100000e+08	1.675263e+12	0.000000e+00	4.472363e-01	4.478598e+14	1.540124e+15	5.654993e+14	1.348722e+04	7.213698e+03	2.338168e+03	0	4.289013e-04
6.200000e+08	1.339626e+12	0.000000e+00	4.472363e-01	4.439071e+14	1.524667e+15	5.627379e+14	1.346891e+04	7.205059e+03	2.335368e+03	0	3.980988e-04
6.300000e+08	1.009786e+12	0.000000e+00	4.472363e-01	4.400177e+14	1.509555e+15	5.599961e+14	1.345076e+04	7.196563e+03	2.332614e+03	0	3.623037e-04
6.400000e+08	6.856026e+11	0.000000e+00	4.472363e-01	4.361901e+14	1.494775e+15	5.572736e+14	1.343277e+04	7.188205e+03	2.329905e+03	0	3.184348e-04
6.500000e+08	3.669389e+11	0.000000e+00	4.472363e-01	4.324228e+14	1.480316e+15	5.545703e+14	1.341494e+04	7.179981e+03	2.327240e+03	0	2.585399e-04
6.600000e+08	5.366258e+10	0.000000e+00	4.472363e-01	4.287145e+14	1.466167e+15	5.518861e+14	1.339725e+04	7.171887e+03	2.324616e+03	0	1.362135e-04
6.700000e+08	-2.543547e+11	0.000000e+00	4.472363e-01	4.250639e+14	1.452318e+15	5.492206e+14	1.337972e+04	7.163920e+03	2.322034e+03	0	nan
