#t		Qconv[W]	Ri[Rp]		R*[Rp]		Qc[W]		Qm[W]		Qr[W]		Tcmb[K]		Tl[K]		Tup[K]		RiFlag		Bs[T]
0.000000e+00	5.481148e+13	0.000000e+00	4.472362e-01	1.401635e+15	4.878114e+15	9.503007e+14	1.788266e+04	9.845964e+03	2.857533e+03	0	1.364998e-03
1.000000e+07	5.277564e+13	0.000000e+00	4.472362e-01	1.381349e+15	4.757821e+15	9.450353e+14	1.783966e+04	9.811048e+03	2.847399e+03	0	1.347884e-03
2.000000e+07	5.079449e+13	0.000000e+00	4.472362e-01	1.361581e+15	4.643744e+15	9.398093e+14	1.779728e+04	9.777428e+03	2.837642e+03	0	1.330802e-03
3.000000e+07	4.886611e+13	0.000000e+00	4.472362e-01	1.342312e+15	4.535419e+15	9.346224e+14	1.775550e+04	9.745028e+03	2.828239e+03	0	1.313744e-03
4.000000e+07	4.698866e+13	0.000000e+00	4.472362e-01	1.323526e+15	4.432426e+15	9.294742e+14	1.771431e+04	9.713776e+03	2.819169e+03	0	1.296699e-03
5.000000e+07	4.516035e+13	0.000000e+00	4.472362e-01	1.305205e+15	4.334382e+15	9.243644e+14	1.767369e+04	9.683608e+03	2.810413e+03	0	1.279658e-03
6.000000e+07	4.337947e+13	0.000000e+00	4.472362e-01	1.287335e+15	4.240942e+15	9.192927e+14	1.763363e+04	9.654462e+03	2.801954e+03	0	1.262611e-03
7.000000e+07	4.164437e+13	0.000000e+00	4.472362e-01	1.269899e+15	4.151790e+15	9.142587e+14	1.759412e+04	9.626284e+03	2.793776e+03	0	1.245547e-03
8.000000e+07	3.995346e+13	0.000000e+00	4.472362e-01	1.252883e+15	4.066638e+15	9.092622e+14	1.755514e+04	9.599021e+03	2.785864e+03	0	1.228456e-03
9.000000e+07	3.830523e+13	0.000000e+00	4.472362e-01	1.236273e+15	3.985222e+15	9.043029e+14	1.751668e+04	9.572624e+03	2.778203e+03	0	1.211325e-03
1.000000e+08	3.669821e+13	0.000000e+00	4.472362e-01	1.220054e+15	3.907301e+15	8.993803e+14	1.747873e+04	9.547050e+03	2.770781e+03	0	1.194143e-03
1.100000e+08	3.513100e+13	0.000000e+00	4.472362e-01	1.204215e+15	3.832654e+15	8.944943e+14	1.744127e+04	9.522256e+03	2.763585e+03	0	1.176896e-03
1.200000e+08	3.360225e+13	0.000000e+00	4.472362e-01	1.188743e+15	3.761078e+15	8.896445e+14	1.740430e+04	9.498203e+03	2.756604e+03	0	1.159572e-03
1.300000e+08	3.211068e+13	0.000000e+00	4.472362e-01	1.173625e+15	3.692385e+15	8.848307e+14	1.736780e+04	9.474855e+03	2.749828e+03	0	1.142154e-03
1.400000e+08	3.065505e+13	0.000000e+00	4.472362e-01	1.158849e+15	3.626403e+15	8.800524e+14	1.733177e+04	9.452178e+03	2.743247e+03	0	1.124628e-03
1.500000e+08	2.923416e+13	0.000000e+00	4.472362e-01	1.144406e+15	3.562973e+15	8.753095e+14	1.729618e+04	9.430140e+03	2.736851e+03	0	1.106976e-03
1.600000e+08	2.784688e+13	0.000000e+00	4.472362e-01	1.130284e+15	3.501948e+15	8.706016e+14	1.726104e+04	9.408711e+03	2.730631e+03	0	1.089181e-03
1.700000e+08	2.649211e+13	0.000000e+00	4.472362e-01	1.116472e+15	3.443191e+15	8.659284e+14	1.722633e+04	9.387862e+03	2.724581e+03	0	1.071224e-03
1.800000e+08	2.516880e+13	0.000000e+00	4.472362e-01	1.102962e+15	3.386576e+15	8.612897e+14	1.719204e+04	9.367569e+03	2.718691e+03	0	1.053082e-03
1.900000e+08	2.387595e+13	0.000000e+00	4.472362e-01	1.089743e+15	3.331986e+15	8.566852e+14	1.715816e+04	9.347806e+03	2.712955e+03	0	1.034733e-03
2.000000e+08	2.261258e+13	0.000000e+00	4.472362e-01	1.076807e+15	3.279312e+15	8.521145e+14	1.712469e+04	9.328549e+03	2.707367e+03	0	1.016151e-03
2.100000e+08	2.137777e+13	0.000000e+00	4.472362e-01	1.064145e+15	3.228452e+15	8.475774e+14	1.709162e+04	9.309778e+03	2.701919e+03	0	9.973070e-04
2.200000e+08	2.017062e+13	0.000000e+00	4.472362e-01	1.051749e+15	3.179313e+15	8.430737e+14	1.705893e+04	9.291470e+03	2.696605e+03	0	9.781704e-04
2.300000e+08	1.899029e+13	0.000000e+00	4.472362e-01	1.039610e+15	3.131806e+15	8.386030e+14	1.702662e+04	9.273607e+03	2.691421e+03	0	9.587055e-04
2.400000e+08	1.783593e+13	0.000000e+00	4.472362e-01	1.027721e+15	3.085848e+15	8.341651e+14	1.699468e+04	9.256171e+03	2.686361e+03	0	9.388726e-04
2.500000e+08	1.670677e+13	0.000000e+00	4.472362e-01	1.016075e+15	3.041364e+15	8.297597e+14	1.696311e+04	9.239144e+03	2.681419e+03	0	9.186263e-04
2.600000e+08	1.560204e+13	0.000000e+00	4.472362e-01	1.004663e+15	2.998280e+15	8.253866e+14	1.693189e+04	9.222509e+03	2.676591e+03	0	8.979149e-04
2.700000e+08	1.452101e+13	0.000000e+00	4.472362e-01	9.934805e+14	2.956531e+15	8.210454e+14	1.690102e+04	9.206251e+03	2.671873e+03	0	8.766784e-04
2.800000e+08	1.346297e+13	0.000000e+00	4.472362e-01	9.825194e+14	2.916052e+15	8.167359e+14	1.687050e+04	9.190355e+03	2.667259e+03	0	8.548469e-04
2.900000e+08	1.242725e+13	0.000000e+00	4.472362e-01	9.717738e+14	2.876785e+15	8.124579e+14	1.684031e+04	9.174808e+03	2.662747e+03	0	8.323380e-04
3.000000e+08	1.141320e+13	0.000000e+00	4.472362e-01	9.612374e+14	2.838674e+15	8.082111e+14	1.681045e+04	9.159596e+03	2.658332e+03	0	8.090534e-04
3.100000e+08	1.042018e+13	0.000000e+00	4.472362e-01	9.509045e+14	2.801666e+15	8.039952e+14	1.678091e+04	9.144706e+03	2.654011e+03	0	7.848739e-04
3.200000e+08	9.447606e+12	0.000000e+00	4.472362e-01	9.407693e+14	2.765713e+15	7.998100e+14	1.675168e+04	9.130126e+03	2.649779e+03	0	7.596531e-04
3.300000e+08	8.494880e+12	0.000000e+00	4.472362e-01	9.308264e+14	2.730768e+15	7.956552e+14	1.672277e+04	9.115846e+03	2.645635e+03	0	7.332079e-04
3.400000e+08	7.561447e+12	0.000000e+00	4.472362e-01	9.210704e+14	2.696787e+15	7.915306e+14	1.669416e+04	9.101854e+03	2.641574e+03	0	7.053040e-04
3.500000e+08	6.646765e+12	0.000000e+00	4.472362e-01	9.114963e+14	2.663730e+15	7.874359e+14	1.666586e+04	9.088140e+03	2.637594e+03	0	6.756340e-04
3.600000e+08	5.750315e+12	0.000000e+00	4.472362e-01	9.020991e+14	2.631557e+15	7.833709e+14	1.663784e+04	9.074694e+03	2.633692e+03	0	6.437817e-04
3.700000e+08	4.871593e+12	0.000000e+00	4.472362e-01	8.928742e+14	2.600232e+15	7.793353e+14	1.661011e+04	9.061507e+03	2.629865e+03	0	6.091605e-04
3.800000e+08	4.010115e+12	0.000000e+00	4.472362e-01	8.838170e+14	2.569720e+15	7.753289e+14	1.658267e+04	9.048570e+03	2.626110e+03	0	5.709004e-04
3.900000e+08	3.165414e+12	0.000000e+00	4.472362e-01	8.749229e+14	2.539988e+15	7.713515e+14	1.655550e+04	9.035875e+03	2.622426e+03	0	5.276163e-04
4.000000e+08	2.337039e+12	0.000000e+00	4.472362e-01	8.661879e+14	2.511005e+15	7.674028e+14	1.652860e+04	9.023413e+03	2.618809e+03	0	4.768664e-04
4.100000e+08	1.524553e+12	0.000000e+00	4.472362e-01	8.576077e+14	2.482742e+15	7.634826e+14	1.650198e+04	9.011177e+03	2.615258e+03	0	4.135763e-04
4.200000e+08	7.275376e+11	0.000000e+00	4.472362e-01	8.491784e+14	2.455170e+15	7.595907e+14	1.647561e+04	8.999159e+03	2.611770e+03	0	3.231915e-04
4.300000e+08	-5.441472e+10	0.000000e+00	4.472362e-01	8.408961e+14	2.428263e+15	7.557268e+14	1.644950e+04	8.987352e+03	2.608343e+03	0	nan
