#t		Qconv[W]	Ri[Rp]		R*[Rp]		Qc[W]		Qm[W]		Qr[W]		Tcmb[K]		Tl[K]		Tup[K]		RiFlag		Bs[T]
0.000000e+00	5.468799e+13	0.000000e+00	4.472361e-01	1.625888e+15	4.783412e+15	1.021872e+15	1.906412e+04	1.041728e+04	2.898291e+03	0	1.361946e-03
1.000000e+07	5.237650e+13	0.000000e+00	4.472361e-01	1.603471e+15	4.688899e+15	1.016210e+15	1.901928e+04	1.038936e+04	2.890523e+03	0	1.342481e-03
2.000000e+07	5.012435e+13	0.000000e+00	4.472361e-01	1.581597e+15	4.598390e+15	1.010590e+15	1.897506e+04	1.036230e+04	2.882994e+03	0	1.322956e-03
3.000000e+07	4.792948e+13	0.000000e+00	4.472361e-01	1.560248e+15	4.511635e+15	1.005013e+15	1.893144e+04	1.033606e+04	2.875693e+03	0	1.303357e-03
4.000000e+07	4.578992e+13	0.000000e+00	4.472361e-01	1.539405e+15	4.428401e+15	9.994769e+14	1.888841e+04	1.031059e+04	2.868607e+03	0	1.283668e-03
5.000000e+07	4.370376e+13	0.000000e+00	4.472361e-01	1.519052e+15	4.348476e+15	9.939822e+14	1.884594e+04	1.028586e+04	2.861726e+03	0	1.263869e-03
6.000000e+07	4.166920e+13	0.000000e+00	4.472361e-01	1.499172e+15	4.271661e+15	9.885285e+14	1.880404e+04	1.026183e+04	2.855041e+03	0	1.243945e-03
7.000000e+07	3.968448e+13	0.000000e+00	4.472361e-01	1.479750e+15	4.197777e+15	9.831154e+14	1.876268e+04	1.023847e+04	2.848542e+03	0	1.223873e-03
8.000000e+07	3.774795e+13	0.000000e+00	4.472361e-01	1.460771e+15	4.126654e+15	9.777426e+14	1.872186e+04	1.021574e+04	2.842219e+03	0	1.203632e-03
9.000000e+07	3.585801e+13	0.000000e+00	4.472361e-01	1.442221e+15	4.058137e+15	9.724098e+14	1.868155e+04	1.019363e+04	2.836066e+03	0	1.183200e-03
1.000000e+08	3.401312e+13	0.000000e+00	4.472361e-01	1.424085e+15	3.992083e+15	9.671165e+14	1.864176e+04	1.017209e+04	2.830074e+03	0	1.162549e-03
1.100000e+08	3.221180e+13	0.000000e+00	4.472361e-01	1.406351e+15	3.928357e+15	9.618625e+14	1.860247e+04	1.015111e+04	2.824236e+03	0	1.141653e-03
1.200000e+08	3.045266e+13	0.000000e+00	4.472361e-01	1.389006e+15	3.866836e+15	9.566474e+14	1.856366e+04	1.013066e+04	2.818546e+03	0	1.120481e-03
1.300000e+08	2.873433e+13	0.000000e+00	4.472361e-01	1.372037e+15	3.807403e+15	9.514710e+14	1.852533e+04	1.011071e+04	2.812996e+03	0	1.098997e-03
1.400000e+08	2.705552e+13	0.000000e+00	4.472361e-01	1.355433e+15	3.749950e+15	9.463329e+14	1.848746e+04	1.009125e+04	2.807582e+03	0	1.077163e-03
1.500000e+08	2.541498e+13	0.000000e+00	4.472361e-01	1.339183e+15	3.694377e+15	9.412327e+14	1.845005e+04	1.007225e+04	2.802296e+03	0	1.054936e-03
1.600000e+08	2.381152e+13	0.000000e+00	4.472361e-01	1.323276e+15	3.640591e+15	9.361703e+14	1.841309e+04	1.005370e+04	2.797135e+03	0	1.032266e-03
1.700000e+08	2.224398e+13	0.000000e+00	4.472361e-01	1.307702e+15	3.588502e+15	9.311451e+14	1.837657e+04	1.003557e+04	2.792092e+03	0	1.009098e-03
1.800000e+08	2.071126e+13	0.000000e+00	4.472361e-01	1.292450e+15	3.538030e+15	9.261571e+14	1.834047e+04	1.001786e+04	2.787164e+03	0	9.853673e-04
1.900000e+08	1.921230e+13	0.000000e+00	4.472361e-01	1.277512e+15	3.489096e+15	9.212058e+14	1.830479e+04	1.000054e+04	2.782345e+03	0	9.609979e-04
2.000000e+08	1.774608e+13	0.000000e+00	4.472361e-01	1.262877e+15	3.441630e+15	9.162909e+14	1.826953e+04	9.983595e+03	2.777631e+03	0	9.359014e-04
2.100000e+08	1.631161e+13	0.000000e+00	4.472361e-01	1.248537e+15	3.395562e+15	9.114121e+14	1.823466e+04	9.967016e+03	2.773018e+03	0	9.099725e-04
2.200000e+08	1.490796e+13	0.000000e+00	4.472361e-01	1.234484e+15	3.350830e+15	9.065692e+14	1.820019e+04	9.950787e+03	2.768503e+03	0	8.830841e-04
2.300000e+08	1.353421e+13	0.000000e+00	4.472361e-01	1.220708e+15	3.307374e+15	9.017618e+14	1.816611e+04	9.934895e+03	2.764082e+03	0	8.550805e-04
2.400000e+08	1.218950e+13	0.000000e+00	4.472361e-01	1.207204e+15	3.265137e+15	8.969897e+14	1.813240e+04	9.919327e+03	2.759750e+03	0	8.257678e-04
2.500000e+08	1.087297e+13	0.000000e+00	4.472361e-01	1.193962e+15	3.224066e+15	8.922525e+14	1.809907e+04	9.904072e+03	2.755506e+03	0	7.948993e-04
2.600000e+08	9.583830e+12	0.000000e+00	4.472361e-01	1.180975e+15	3.184112e+15	8.875500e+14	1.806610e+04	9.889117e+03	2.751345e+03	0	7.621533e-04
2.700000e+08	8.321285e+12	0.000000e+00	4.472361e-01	1.168236e+15	3.145226e+15	8.828818e+14	1.803349e+04	9.874453e+03	2.747266e+03	0	7.270977e-04
2.800000e+08	7.084588e+12	0.000000e+00	4.472361e-01	1.155740e+15	3.107365e+15	8.782478e+14	1.800123e+04	9.860070e+03	2.743264e+03	0	6.891295e-04
2.900000e+08	5.873014e+12	0.000000e+00	4.472361e-01	1.143478e+15	3.070487e+15	8.736476e+14	1.796931e+04	9.845957e+03	2.739337e+03	0	6.473657e-04
3.000000e+08	4.685865e+12	0.000000e+00	4.472361e-01	1.131444e+15	3.034551e+15	8.690809e+14	1.793773e+04	9.832105e+03	2.735483e+03	0	6.004256e-04
3.100000e+08	3.522467e+12	0.000000e+00	4.472361e-01	1.119633e+15	2.999520e+15	8.645475e+14	1.790648e+04	9.818505e+03	2.731700e+03	0	5.459400e-04
3.200000e+08	2.382169e+12	0.000000e+00	4.472361e-01	1.108039e+15	2.965359e+15	8.600471e+14	1.787556e+04	9.805150e+03	2.727984e+03	0	4.792037e-04
3.300000e+08	1.264345e+12	0.000000e+00	4.472361e-01	1.096655e+15	2.932033e+15	8.555793e+14	1.784496e+04	9.792030e+03	2.724334e+03	0	3.879876e-04
3.400000e+08	1.683897e+11	0.000000e+00	4.472361e-01	1.085477e+15	2.899510e+15	8.511441e+14	1.781466e+04	9.779139e+03	2.720747e+03	0	1.981380e-04
3.500000e+08	-9.062822e+11	0.000000e+00	4.472361e-01	1.074499e+15	2.867760e+15	8.467410e+14	1.778468e+04	9.766468e+03	2.717222e+03	0	nan
