#t		Qconv[W]	Ri[Rp]		R*[Rp]		Qc[W]		Qm[W]		Qr[W]		Tcmb[K]		Tl[K]		Tup[K]		RiFlag		Bs[T]
0.000000e+00	5.471924e+12	5.419068e-01	7.889444e-01	1.071380e+13	1.105145e+15	8.081571e+13	3.965550e+03	2.946854e+03	2.043307e+03	0	3.792567e-04
1.000000e+08	5.588488e+12	5.427629e-01	7.889444e-01	1.097602e+13	9.145304e+14	7.648533e+13	3.965315e+03	2.841489e+03	1.970248e+03	1	3.817790e-04
2.000000e+08	5.084401e+12	5.435435e-01	7.889444e-01	1.005503e+13	3.154732e+14	7.246573e+13	3.962871e+03	2.330054e+03	1.615626e+03	1	3.698024e-04
3.000000e+08	4.540337e+12	5.442466e-01	7.889444e-01	9.068373e+12	1.898663e+14	6.873209e+13	3.960638e+03	2.145326e+03	1.487539e+03	1	3.559951e-04
4.000000e+08	4.204504e+12	5.449016e-01	7.889444e-01	8.455925e+12	1.392846e+14	6.526166e+13	3.958629e+03	2.047308e+03	1.419574e+03	1	3.468866e-04
5.000000e+08	3.984659e+12	5.455248e-01	7.889444e-01	8.051780e+12	1.128635e+14	6.203364e+13	3.956759e+03	1.986779e+03	1.377604e+03	1	3.406335e-04
6.000000e+08	3.831098e+12	5.461253e-01	7.889444e-01	7.766708e+12	9.682934e+13	5.902898e+13	3.954983e+03	1.945839e+03	1.349217e+03	1	3.361066e-04
7.000000e+08	3.717798e+12	5.467090e-01	7.889444e-01	7.554020e+12	8.607415e+13	5.623021e+13	3.953273e+03	1.916304e+03	1.328738e+03	1	3.326700e-04
8.000000e+08	3.630283e+12	5.472793e-01	7.889444e-01	7.387693e+12	7.831454e+13	5.362135e+13	3.951614e+03	1.893896e+03	1.313200e+03	1	3.299517e-04
9.000000e+08	3.530876e+12	5.478362e-01	7.889444e-01	7.252345e+12	7.239503e+13	5.118774e+13	3.949994e+03	1.876171e+03	1.300910e+03	1	3.268277e-04
1.000000e+09	3.472674e+12	5.483821e-01	7.889444e-01	7.138066e+12	6.767680e+13	4.891591e+13	3.948376e+03	1.861648e+03	1.290840e+03	1	3.249397e-04
1.100000e+09	3.422862e+12	5.489201e-01	7.889444e-01	7.039119e+12	6.378285e+13	4.679354e+13	3.946786e+03	1.849386e+03	1.282338e+03	1	3.232979e-04
1.200000e+09	3.379185e+12	5.494509e-01	7.889444e-01	6.951432e+12	6.047875e+13	4.480931e+13	3.945221e+03	1.838766e+03	1.274974e+03	1	3.218377e-04
1.300000e+09	3.340112e+12	5.499754e-01	7.889444e-01	6.872236e+12	5.761249e+13	4.295282e+13	3.943679e+03	1.829371e+03	1.268460e+03	1	3.205145e-04
1.400000e+09	3.304576e+12	5.504939e-01	7.889444e-01	6.799604e+12	5.508201e+13	4.121452e+13	3.942157e+03	1.820911e+03	1.262594e+03	1	3.192971e-04
1.500000e+09	3.271824e+12	5.510069e-01	7.889444e-01	6.732170e+12	5.281655e+13	3.958563e+13	3.940654e+03	1.813182e+03	1.257234e+03	1	3.181631e-04
1.600000e+09	3.241309e+12	5.515148e-01	7.889444e-01	6.668948e+12	5.076572e+13	3.805809e+13	3.939168e+03	1.806037e+03	1.252280e+03	1	3.170963e-04
1.700000e+09	3.212635e+12	5.520177e-01	7.889444e-01	6.609213e+12	4.889267e+13	3.662448e+13	3.937700e+03	1.799369e+03	1.247657e+03	1	3.160848e-04
1.800000e+09	3.185503e+12	5.525160e-01	7.889444e-01	6.552424e+12	4.716981e+13	3.527797e+13	3.936247e+03	1.793099e+03	1.243310e+03	1	3.151198e-04
1.900000e+09	3.133187e+12	5.530039e-01	7.889444e-01	6.498172e+12	4.557597e+13	3.401228e+13	3.934809e+03	1.787167e+03	1.239196e+03	1	3.133144e-04
2.000000e+09	3.108584e+12	5.534896e-01	7.889444e-01	6.445817e+12	4.409448e+13	3.282162e+13	3.933356e+03	1.781526e+03	1.235285e+03	1	3.124219e-04
2.100000e+09	3.084987e+12	5.539711e-01	7.889444e-01	6.395443e+12	4.271219e+13	3.170066e+13	3.931917e+03	1.776142e+03	1.231551e+03	1	3.115599e-04
2.200000e+09	3.062293e+12	5.544486e-01	7.889444e-01	6.346852e+12	4.141834e+13	3.064447e+13	3.930492e+03	1.770985e+03	1.227976e+03	1	3.107254e-04
2.300000e+09	3.040415e+12	5.549223e-01	7.889444e-01	6.299885e+12	4.020400e+13	2.964853e+13	3.929081e+03	1.766033e+03	1.224542e+03	1	3.099157e-04
2.400000e+09	3.019286e+12	5.553923e-01	7.889444e-01	6.254411e+12	3.906166e+13	2.870865e+13	3.927682e+03	1.761269e+03	1.221239e+03	1	3.091289e-04
2.500000e+09	2.998847e+12	5.558587e-01	7.889444e-01	6.210322e+12	3.798493e+13	2.782098e+13	3.926295e+03	1.756677e+03	1.218055e+03	1	3.083633e-04
2.600000e+09	2.979051e+12	5.563215e-01	7.889444e-01	6.167525e+12	3.696827e+13	2.698193e+13	3.924921e+03	1.752244e+03	1.214981e+03	1	3.076174e-04
2.700000e+09	2.959855e+12	5.567809e-01	7.889444e-01	6.125940e+12	3.600683e+13	2.618823e+13	3.923559e+03	1.747961e+03	1.212011e+03	1	3.068901e-04
2.800000e+09	2.941225e+12	5.572370e-01	7.889444e-01	6.085499e+12	3.509637e+13	2.543681e+13	3.922207e+03	1.743816e+03	1.209138e+03	1	3.061803e-04
2.900000e+09	2.923130e+12	5.576899e-01	7.889444e-01	6.046139e+12	3.423307e+13	2.472486e+13	3.920868e+03	1.739804e+03	1.206355e+03	1	3.054871e-04
3.000000e+09	2.881818e+12	5.581293e-01	7.889444e-01	6.007807e+12	3.341354e+13	2.404977e+13	3.919538e+03	1.735915e+03	1.203659e+03	1	3.039795e-04
3.100000e+09	2.864732e+12	5.585725e-01	7.889444e-01	5.970177e+12	3.263462e+13	2.340912e+13	3.918193e+03	1.732145e+03	1.201045e+03	1	3.033154e-04
3.200000e+09	2.848102e+12	5.590127e-01	7.889444e-01	5.933484e+12	3.189361e+13	2.280068e+13	3.916858e+03	1.728487e+03	1.198508e+03	1	3.026658e-04
3.300000e+09	2.831908e+12	5.594500e-01	7.889444e-01	5.897686e+12	3.118799e+13	2.222237e+13	3.915533e+03	1.724936e+03	1.196046e+03	1	3.020300e-04
3.400000e+09	2.816131e+12	5.598844e-01	7.889444e-01	5.862747e+12	3.051547e+13	2.167227e+13	3.914219e+03	1.721487e+03	1.193654e+03	1	3.014076e-04
3.500000e+09	2.800753e+12	5.603160e-01	7.889444e-01	5.828629e+12	2.987393e+13	2.114859e+13	3.912914e+03	1.718135e+03	1.191331e+03	1	3.007980e-04
3.600000e+09	2.785758e+12	5.607449e-01	7.889444e-01	5.795301e+12	2.926143e+13	2.064967e+13	3.911619e+03	1.714877e+03	1.189072e+03	1	3.002008e-04
3.700000e+09	2.771131e+12	5.611711e-01	7.889444e-01	5.762732e+12	2.867618e+13	2.017398e+13	3.910334e+03	1.711709e+03	1.186875e+03	1	2.996155e-04
3.800000e+09	2.756856e+12	5.615947e-01	7.889444e-01	5.730890e+12	2.811653e+13	1.972008e+13	3.909057e+03	1.708627e+03	1.184738e+03	1	2.990416e-04
3.900000e+09	2.742921e+12	5.620158e-01	7.889444e-01	5.699750e+12	2.758096e+13	1.928664e+13	3.907790e+03	1.705628e+03	1.182658e+03	1	2.984789e-04
4.000000e+09	2.729312e+12	5.624343e-01	7.889444e-01	5.669285e+12	2.706804e+13	1.887243e+13	3.906531e+03	1.702708e+03	1.180633e+03	1	2.979269e-04
4.100000e+09	2.694799e+12	5.628486e-01	7.889444e-01	5.639469e+12	2.657647e+13	1.847630e+13	3.905281e+03	1.699864e+03	1.178662e+03	1	2.966091e-04
4.200000e+09	2.681808e+12	5.632593e-01	7.889444e-01	5.610040e+12	2.610493e+13	1.809716e+13	3.904015e+03	1.697094e+03	1.176741e+03	1	2.960756e-04
4.300000e+09	2.669106e+12	5.636676e-01	7.889444e-01	5.581217e+12	2.565235e+13	1.773402e+13	3.902757e+03	1.694395e+03	1.174869e+03	1	2.955517e-04
4.400000e+09	2.656684e+12	5.640737e-01	7.889444e-01	5.552979e+12	2.521767e+13	1.738596e+13	3.901508e+03	1.691763e+03	1.173044e+03	1	2.950373e-04
4.500000e+09	2.644531e+12	5.644774e-01	7.889444e-01	5.525305e+12	2.479991e+13	1.705209e+13	3.900266e+03	1.689197e+03	1.171265e+03	1	2.945318e-04
4.600000e+09	2.632637e+12	5.648790e-01	7.889444e-01	5.498175e+12	2.439814e+13	1.673161e+13	3.899033e+03	1.686693e+03	1.169529e+03	1	2.940352e-04
4.700000e+09	2.620993e+12	5.652784e-01	7.889444e-01	5.471570e+12	2.401151e+13	1.642376e+13	3.897808e+03	1.684251e+03	1.167835e+03	1	2.935470e-04
4.800000e+09	2.609591e+12	5.656756e-01	7.889444e-01	5.445472e+12	2.363920e+13	1.612783e+13	3.896590e+03	1.681866e+03	1.166182e+03	1	2.930670e-04
4.900000e+09	2.598421e+12	5.660708e-01	7.889444e-01	5.419865e+12	2.328047e+13	1.584316e+13	3.895380e+03	1.679538e+03	1.164568e+03	1	2.925950e-04
5.000000e+09	2.587476e+12	5.664639e-01	7.889444e-01	5.394730e+12	2.293459e+13	1.556914e+13	3.894177e+03	1.677265e+03	1.162992e+03	1	2.921307e-04
5.100000e+09	2.576748e+12	5.668549e-01	7.889444e-01	5.370053e+12	2.260092e+13	1.530518e+13	3.892982e+03	1.675044e+03	1.161452e+03	1	2.916738e-04
5.200000e+09	2.566229e+12	5.672440e-01	7.889444e-01	5.345819e+12	2.227882e+13	1.505074e+13	3.891793e+03	1.672873e+03	1.159946e+03	1	2.912242e-04
5.300000e+09	2.555912e+12	5.676311e-01	7.889444e-01	5.322011e+12	2.196771e+13	1.480531e+13	3.890612e+03	1.670751e+03	1.158475e+03	1	2.907815e-04
5.400000e+09	2.525700e+12	5.680146e-01	7.889444e-01	5.298617e+12	2.166704e+13	1.456843e+13	3.889438e+03	1.668676e+03	1.157036e+03	1	2.895801e-04
5.500000e+09	2.515755e+12	5.683951e-01	7.889444e-01	5.275403e+12	2.137621e+13	1.433964e+13	3.888246e+03	1.666646e+03	1.155629e+03	1	2.891489e-04
5.600000e+09	2.505991e+12	5.687738e-01	7.889444e-01	5.252577e+12	2.109481e+13	1.411853e+13	3.887062e+03	1.664660e+03	1.154251e+03	1	2.887239e-04
5.700000e+09	2.496403e+12	5.691506e-01	7.889444e-01	5.230128e+12	2.082237e+13	1.390469e+13	3.885884e+03	1.662715e+03	1.152903e+03	1	2.883052e-04
5.800000e+09	2.486983e+12	5.695256e-01	7.889444e-01	5.208043e+12	2.055847e+13	1.369778e+13	3.884713e+03	1.660811e+03	1.151583e+03	1	2.878924e-04
5.900000e+09	2.477727e+12	5.698989e-01	7.889444e-01	5.186312e+12	2.030271e+13	1.349743e+13	3.883549e+03	1.658947e+03	1.150290e+03	1	2.874854e-04
6.000000e+09	2.468630e+12	5.702704e-01	7.889444e-01	5.164922e+12	2.005470e+13	1.330333e+13	3.882390e+03	1.657120e+03	1.149023e+03	1	2.870841e-04
6.100000e+09	2.459686e+12	5.706402e-01	7.889444e-01	5.143863e+12	1.981409e+13	1.311517e+13	3.881239e+03	1.655329e+03	1.147782e+03	1	2.866881e-04
6.200000e+09	2.450890e+12	5.710083e-01	7.889444e-01	5.123125e+12	1.958052e+13	1.293265e+13	3.880093e+03	1.653574e+03	1.146565e+03	1	2.862975e-04
6.300000e+09	2.442237e+12	5.713747e-01	7.889444e-01	5.102699e+12	1.935369e+13	1.275552e+13	3.878954e+03	1.651853e+03	1.145371e+03	1	2.859120e-04
6.400000e+09	2.433723e+12	5.717395e-01	7.889444e-01	5.082574e+12	1.913329e+13	1.258352e+13	3.877820e+03	1.650164e+03	1.144201e+03	1	2.855314e-04
6.500000e+09	2.425343e+12	5.721027e-01	7.889444e-01	5.062742e+12	1.891903e+13	1.241640e+13	3.876693e+03	1.648508e+03	1.143052e+03	1	2.851557e-04
6.600000e+09	2.417093e+12	5.724642e-01	7.889444e-01	5.043194e+12	1.871064e+13	1.225395e+13	3.875571e+03	1.646882e+03	1.141924e+03	1	2.847846e-04
6.700000e+09	2.408968e+12	5.728242e-01	7.889444e-01	5.023921e+12	1.850786e+13	1.209594e+13	3.874456e+03	1.645285e+03	1.140817e+03	1	2.844181e-04
6.800000e+09	2.382483e+12	5.731747e-01	7.889444e-01	5.004915e+12	1.831046e+13	1.194218e+13	3.873346e+03	1.643717e+03	1.139730e+03	1	2.833263e-04
6.900000e+09	2.374580e+12	5.735290e-01	7.889444e-01	4.985972e+12	1.811813e+13	1.179247e+13	3.872219e+03	1.642177e+03	1.138662e+03	1	2.829665e-04
7.000000e+09	2.366790e+12	5.738819e-01	7.889444e-01	4.967283e+12	1.793072e+13	1.164664e+13	3.871098e+03	1.640663e+03	1.137613e+03	1	2.826109e-04
7.100000e+09	2.359110e+12	5.742333e-01	7.889444e-01	4.948840e+12	1.774801e+13	1.150453e+13	3.869983e+03	1.639175e+03	1.136581e+03	1	2.822594e-04
7.200000e+09	2.351538e+12	5.745831e-01	7.889444e-01	4.930637e+12	1.756982e+13	1.136596e+13	3.868873e+03	1.637712e+03	1.135566e+03	1	2.819117e-04
7.300000e+09	2.344069e+12	5.749316e-01	7.889444e-01	4.912666e+12	1.739596e+13	1.123080e+13	3.867769e+03	1.636273e+03	1.134569e+03	1	2.815678e-04
7.400000e+09	2.336702e+12	5.752785e-01	7.889444e-01	4.894922e+12	1.722626e+13	1.109888e+13	3.866670e+03	1.634857e+03	1.133587e+03	1	2.812277e-04
7.500000e+09	2.329432e+12	5.756241e-01	7.889444e-01	4.877398e+12	1.706055e+13	1.097010e+13	3.865576e+03	1.633464e+03	1.132621e+03	1	2.808912e-04
7.600000e+09	2.322257e+12	5.759682e-01	7.889444e-01	4.860089e+12	1.689867e+13	1.084430e+13	3.864488e+03	1.632092e+03	1.131670e+03	1	2.805581e-04
7.700000e+09	2.315174e+12	5.763110e-01	7.889444e-01	4.842988e+12	1.674047e+13	1.072138e+13	3.863405e+03	1.630742e+03	1.130733e+03	1	2.802285e-04
7.800000e+09	2.308181e+12	5.766523e-01	7.889444e-01	4.826090e+12	1.658582e+13	1.060122e+13	3.862327e+03	1.629412e+03	1.129811e+03	1	2.799022e-04
7.900000e+09	2.301275e+12	5.769923e-01	7.889444e-01	4.809390e+12	1.643457e+13	1.048370e+13	3.861255e+03	1.628101e+03	1.128902e+03	1	2.795791e-04
8.000000e+09	2.294453e+12	5.773310e-01	7.889444e-01	4.792883e+12	1.628659e+13	1.036874e+13	3.860187e+03	1.626810e+03	1.128007e+03	1	2.792591e-04
8.100000e+09	2.287713e+12	5.776683e-01	7.889444e-01	4.776563e+12	1.614177e+13	1.025622e+13	3.859124e+03	1.625537e+03	1.127125e+03	1	2.789422e-04
8.200000e+09	2.263734e+12	5.780028e-01	7.889444e-01	4.760427e+12	1.599999e+13	1.014606e+13	3.858066e+03	1.624283e+03	1.126255e+03	1	2.779215e-04
8.300000e+09	2.257129e+12	5.783352e-01	7.889444e-01	4.744287e+12	1.586107e+13	1.003817e+13	3.856992e+03	1.623045e+03	1.125397e+03	1	2.776086e-04
8.400000e+09	2.250600e+12	5.786663e-01	7.889444e-01	4.728323e+12	1.572496e+13	9.932470e+12	3.855923e+03	1.621825e+03	1.124550e+03	1	2.772985e-04
8.500000e+09	2.244143e+12	5.789962e-01	7.889444e-01	4.712529e+12	1.559156e+13	9.828873e+12	3.854859e+03	1.620620e+03	1.123715e+03	1	2.769912e-04
8.600000e+09	2.237758e+12	5.793248e-01	7.889444e-01	4.696903e+12	1.546078e+13	9.727309e+12	3.853799e+03	1.619431e+03	1.122891e+03	1	2.766865e-04
8.700000e+09	2.231442e+12	5.796521e-01	7.889444e-01	4.681439e+12	1.533252e+13	9.627704e+12	3.852744e+03	1.618258e+03	1.122077e+03	1	2.763844e-04
8.800000e+09	2.225193e+12	5.799782e-01	7.889444e-01	4.666134e+12	1.520670e+13	9.529991e+12	3.851694e+03	1.617099e+03	1.121274e+03	1	2.760849e-04
8.900000e+09	2.219011e+12	5.803031e-01	7.889444e-01	4.650985e+12	1.508325e+13	9.434106e+12	3.850649e+03	1.615955e+03	1.120480e+03	1	2.757879e-04
9.000000e+09	2.212893e+12	5.806267e-01	7.889444e-01	4.635988e+12	1.496206e+13	9.339986e+12	3.849608e+03	1.614825e+03	1.119697e+03	1	2.754933e-04
9.100000e+09	2.206837e+12	5.809491e-01	7.889444e-01	4.621139e+12	1.484309e+13	9.247573e+12	3.848572e+03	1.613708e+03	1.118922e+03	1	2.752011e-04
9.200000e+09	2.200843e+12	5.812704e-01	7.889444e-01	4.606435e+12	1.472624e+13	9.156812e+12	3.847540e+03	1.612605e+03	1.118157e+03	1	2.749112e-04
9.300000e+09	2.194908e+12	5.815905e-01	7.889444e-01	4.591873e+12	1.461146e+13	9.067648e+12	3.846513e+03	1.611514e+03	1.117401e+03	1	2.746236e-04
9.400000e+09	2.189031e+12	5.819094e-01	7.889444e-01	4.577450e+12	1.449867e+13	8.980030e+12	3.845490e+03	1.610436e+03	1.116653e+03	1	2.743381e-04
9.500000e+09	2.183211e+12	5.822271e-01	7.889444e-01	4.563162e+12	1.438781e+13	8.893912e+12	3.844472e+03	1.609369e+03	1.115914e+03	1	2.740549e-04
9.600000e+09	2.177446e+12	5.825437e-01	7.889444e-01	4.549008e+12	1.427883e+13	8.809245e+12	3.843458e+03	1.608315e+03	1.115183e+03	1	2.737737e-04
9.700000e+09	2.171736e+12	5.828591e-01	7.889444e-01	4.534984e+12	1.417167e+13	8.725987e+12	3.842448e+03	1.607272e+03	1.114459e+03	1	2.734947e-04
9.800000e+09	2.150404e+12	5.831668e-01	7.889444e-01	4.521087e+12	1.406626e+13	8.644094e+12	3.841443e+03	1.606240e+03	1.113744e+03	1	2.725578e-04
9.900000e+09	2.144774e+12	5.834780e-01	7.889444e-01	4.507155e+12	1.396251e+13	8.563527e+12	3.840422e+03	1.605219e+03	1.113036e+03	1	2.722809e-04
1.000000e+10	2.139194e+12	5.837880e-01	7.889444e-01	4.493346e+12	1.386041e+13	8.484247e+12	3.839405e+03	1.604208e+03	1.112335e+03	1	2.720060e-04
