#t		Qconv[W]	Ri[Rp]		R*[Rp]		Qc[W]		Qm[W]		Qr[W]		Tcmb[K]		Tl[K]		Tup[K]		RiFlag		Bs[T]
0.000000e+00	2.220868e+13	0.000000e+00	8.048781e-01	4.200570e+14	4.524803e+13	3.401371e+13	7.984549e+03	2.950195e+03	2.163796e+03	0	8.218104e-04
1.000000e+07	2.183193e+13	0.000000e+00	8.048781e-01	4.130343e+14	5.639305e+13	3.382525e+13	7.931071e+03	3.055785e+03	2.241240e+03	0	8.171369e-04
2.000000e+07	2.142186e+13	0.000000e+00	8.048781e-01	4.053976e+14	6.880822e+13	3.363820e+13	7.878481e+03	3.156401e+03	2.315036e+03	0	8.119883e-04
3.000000e+07	2.098417e+13	0.000000e+00	8.048781e-01	3.972522e+14	8.232056e+13	3.345255e+13	7.826856e+03	3.251571e+03	2.384838e+03	0	8.064201e-04
4.000000e+07	2.052487e+13	0.000000e+00	8.048781e-01	3.887091e+14	9.670369e+13	3.326828e+13	7.776262e+03	3.340904e+03	2.450358e+03	0	8.004930e-04
5.000000e+07	2.004998e+13	0.000000e+00	8.048781e-01	3.798797e+14	1.116916e+14	3.308538e+13	7.726750e+03	3.424102e+03	2.511380e+03	0	7.942711e-04
6.000000e+07	1.956536e+13	0.000000e+00	8.048781e-01	3.708719e+14	1.269954e+14	3.290386e+13	7.678354e+03	3.500970e+03	2.567758e+03	0	7.878195e-04
7.000000e+07	1.907646e+13	0.000000e+00	8.048781e-01	3.617866e+14	1.423213e+14	3.272368e+13	7.631100e+03	3.571417e+03	2.619426e+03	0	7.812020e-04
8.000000e+07	1.858818e+13	0.000000e+00	8.048781e-01	3.527142e+14	1.573875e+14	3.254484e+13	7.584996e+03	3.635455e+03	2.666394e+03	0	7.744792e-04
9.000000e+07	1.810477e+13	0.000000e+00	8.048781e-01	3.437329e+14	1.719385e+14	3.236733e+13	7.540041e+03	3.693189e+03	2.708739e+03	0	7.677062e-04
1.000000e+08	1.762973e+13	0.000000e+00	8.048781e-01	3.349079e+14	1.857557e+14	3.219114e+13	7.496223e+03	3.744807e+03	2.746598e+03	0	7.609323e-04
1.100000e+08	1.716588e+13	0.000000e+00	8.048781e-01	3.262909e+14	1.986638e+14	3.201626e+13	7.453524e+03	3.790567e+03	2.780160e+03	0	7.541993e-04
1.200000e+08	1.671534e+13	0.000000e+00	8.048781e-01	3.179206e+14	2.105333e+14	3.184267e+13	7.411918e+03	3.830780e+03	2.809654e+03	0	7.475423e-04
1.300000e+08	1.627957e+13	0.000000e+00	8.048781e-01	3.098247e+14	2.212792e+14	3.167037e+13	7.371372e+03	3.865794e+03	2.835335e+03	0	7.409889e-04
1.400000e+08	1.585953e+13	0.000000e+00	8.048781e-01	3.020203e+14	2.308578e+14	3.149934e+13	7.331852e+03	3.895982e+03	2.857476e+03	0	7.345604e-04
1.500000e+08	1.545569e+13	0.000000e+00	8.048781e-01	2.945164e+14	2.392605e+14	3.132958e+13	7.293322e+03	3.921728e+03	2.876359e+03	0	7.282719e-04
1.600000e+08	1.506816e+13	0.000000e+00	8.048781e-01	2.873148e+14	2.465085e+14	3.116107e+13	7.255744e+03	3.943417e+03	2.892267e+03	0	7.221336e-04
1.700000e+08	1.469678e+13	0.000000e+00	8.048781e-01	2.804122e+14	2.526455e+14	3.099381e+13	7.219079e+03	3.961425e+03	2.905474e+03	0	7.161513e-04
1.800000e+08	1.434113e+13	0.000000e+00	8.048781e-01	2.738014e+14	2.577325e+14	3.082778e+13	7.183289e+03	3.976113e+03	2.916248e+03	0	7.103274e-04
1.900000e+08	1.400068e+13	0.000000e+00	8.048781e-01	2.674722e+14	2.618410e+14	3.066297e+13	7.148339e+03	3.987825e+03	2.924837e+03	0	7.046614e-04
2.000000e+08	1.367479e+13	0.000000e+00	8.048781e-01	2.614127e+14	2.650496e+14	3.049937e+13	7.114191e+03	3.996880e+03	2.931479e+03	0	6.991510e-04
2.100000e+08	1.336274e+13	0.000000e+00	8.048781e-01	2.556099e+14	2.674399e+14	3.033698e+13	7.080813e+03	4.003574e+03	2.936389e+03	0	6.937920e-04
2.200000e+08	1.306382e+13	0.000000e+00	8.048781e-01	2.500502e+14	2.690930e+14	3.017578e+13	7.048171e+03	4.008179e+03	2.939766e+03	0	6.885796e-04
2.300000e+08	1.277728e+13	0.000000e+00	8.048781e-01	2.447200e+14	2.700879e+14	3.001576e+13	7.016234e+03	4.010940e+03	2.941791e+03	0	6.835079e-04
2.400000e+08	1.250240e+13	0.000000e+00	8.048781e-01	2.396060e+14	2.704998e+14	2.985692e+13	6.984974e+03	4.012081e+03	2.942628e+03	0	6.785709e-04
2.500000e+08	1.223849e+13	0.000000e+00	8.048781e-01	2.346953e+14	2.703990e+14	2.969924e+13	6.954364e+03	4.011802e+03	2.942423e+03	0	6.737623e-04
2.600000e+08	1.198489e+13	0.000000e+00	8.048781e-01	2.299757e+14	2.698506e+14	2.954271e+13	6.924377e+03	4.010282e+03	2.941308e+03	0	6.690759e-04
2.700000e+08	1.174097e+13	0.000000e+00	8.048781e-01	2.254356e+14	2.689139e+14	2.938733e+13	6.894990e+03	4.007681e+03	2.939401e+03	0	6.645057e-04
2.800000e+08	1.150615e+13	0.000000e+00	8.048781e-01	2.210642e+14	2.676426e+14	2.923308e+13	6.866179e+03	4.004140e+03	2.936804e+03	0	6.600458e-04
2.900000e+08	1.127989e+13	0.000000e+00	8.048781e-01	2.168514e+14	2.660851e+14	2.907996e+13	6.837924e+03	3.999785e+03	2.933610e+03	0	6.556906e-04
3.000000e+08	1.106167e+13	0.000000e+00	8.048781e-01	2.127879e+14	2.642845e+14	2.892796e+13	6.810204e+03	3.994728e+03	2.929900e+03	0	6.514349e-04
3.100000e+08	1.085104e+13	0.000000e+00	8.048781e-01	2.088651e+14	2.622789e+14	2.877706e+13	6.783001e+03	3.989066e+03	2.925747e+03	0	6.472736e-04
3.200000e+08	1.064756e+13	0.000000e+00	8.048781e-01	2.050750e+14	2.601022e+14	2.862726e+13	6.756296e+03	3.982885e+03	2.921214e+03	0	6.432021e-04
3.300000e+08	1.045083e+13	0.000000e+00	8.048781e-01	2.014101e+14	2.577841e+14	2.847855e+13	6.730072e+03	3.976261e+03	2.916356e+03	0	6.392161e-04
3.400000e+08	1.026049e+13	0.000000e+00	8.048781e-01	1.978637e+14	2.553505e+14	2.833092e+13	6.704315e+03	3.969262e+03	2.911222e+03	0	6.353116e-04
3.500000e+08	1.007620e+13	0.000000e+00	8.048781e-01	1.944294e+14	2.528243e+14	2.818436e+13	6.679009e+03	3.961944e+03	2.905856e+03	0	6.314849e-04
3.600000e+08	9.897635e+12	0.000000e+00	8.048781e-01	1.911016e+14	2.502253e+14	2.803886e+13	6.654139e+03	3.954361e+03	2.900293e+03	0	6.277324e-04
3.700000e+08	9.724516e+12	0.000000e+00	8.048781e-01	1.878748e+14	2.475705e+14	2.789442e+13	6.629692e+03	3.946556e+03	2.894569e+03	0	6.240510e-04
3.800000e+08	9.556573e+12	0.000000e+00	8.048781e-01	1.847440e+14	2.448749e+14	2.775102e+13	6.605656e+03	3.938569e+03	2.888711e+03	0	6.204376e-04
3.900000e+08	9.393557e+12	0.000000e+00	8.048781e-01	1.817048e+14	2.421512e+14	2.760866e+13	6.582019e+03	3.930435e+03	2.882745e+03	0	6.168896e-04
4.000000e+08	9.235237e+12	0.000000e+00	8.048781e-01	1.787527e+14	2.394106e+14	2.746732e+13	6.558768e+03	3.922182e+03	2.876692e+03	0	6.134042e-04
4.100000e+08	9.081401e+12	0.000000e+00	8.048781e-01	1.758838e+14	2.366626e+14	2.732701e+13	6.535892e+03	3.913839e+03	2.870573e+03	0	6.099792e-04
4.200000e+08	8.931848e+12	0.000000e+00	8.048781e-01	1.730945e+14	2.339151e+14	2.718771e+13	6.513382e+03	3.905427e+03	2.864403e+03	0	6.066123e-04
4.300000e+08	8.786391e+12	0.000000e+00	8.048781e-01	1.703813e+14	2.311752e+14	2.704941e+13	6.491227e+03	3.896967e+03	2.858198e+03	0	6.033013e-04
4.400000e+08	8.644859e+12	0.000000e+00	8.048781e-01	1.677409e+14	2.284486e+14	2.691210e+13	6.469417e+03	3.888476e+03	2.851971e+03	0	6.000444e-04
4.500000e+08	8.507086e+12	0.000000e+00	8.048781e-01	1.651704e+14	2.257404e+14	2.677579e+13	6.447943e+03	3.879969e+03	2.845732e+03	0	5.968397e-04
4.600000e+08	8.372922e+12	0.000000e+00	8.048781e-01	1.626669e+14	2.230547e+14	2.664045e+13	6.426797e+03	3.871460e+03	2.839491e+03	0	5.936855e-04
4.700000e+08	8.242223e+12	0.000000e+00	8.048781e-01	1.602278e+14	2.203949e+14	2.650608e+13	6.405969e+03	3.862960e+03	2.833256e+03	0	5.905802e-04
4.800000e+08	8.114853e+12	0.000000e+00	8.048781e-01	1.578505e+14	2.177639e+14	2.637267e+13	6.385452e+03	3.854478e+03	2.827035e+03	0	5.875222e-04
4.900000e+08	7.990687e+12	0.000000e+00	8.048781e-01	1.555328e+14	2.151642e+14	2.624022e+13	6.365238e+03	3.846024e+03	2.820835e+03	0	5.845102e-04
5.000000e+08	7.869603e+12	0.000000e+00	8.048781e-01	1.532723e+14	2.125976e+14	2.610872e+13	6.345319e+03	3.837605e+03	2.814660e+03	0	5.815428e-04
5.100000e+08	7.751489e+12	0.000000e+00	8.048781e-01	1.510670e+14	2.100655e+14	2.597815e+13	6.325688e+03	3.829227e+03	2.808515e+03	0	5.786187e-04
5.200000e+08	7.636238e+12	0.000000e+00	8.048781e-01	1.489149e+14	2.075694e+14	2.584852e+13	6.306338e+03	3.820896e+03	2.802405e+03	0	5.757367e-04
5.300000e+08	7.523747e+12	0.000000e+00	8.048781e-01	1.468142e+14	2.051099e+14	2.571981e+13	6.287263e+03	3.812616e+03	2.796332e+03	0	5.728956e-04
5.400000e+08	7.413921e+12	0.000000e+00	8.048781e-01	1.447630e+14	2.026879e+14	2.559202e+13	6.268455e+03	3.804391e+03	2.790299e+03	0	5.700944e-04
5.500000e+08	7.306668e+12	0.000000e+00	8.048781e-01	1.427596e+14	2.003038e+14	2.546514e+13	6.249909e+03	3.796225e+03	2.784310e+03	0	5.673319e-04
5.600000e+08	7.201901e+12	0.000000e+00	8.048781e-01	1.408024e+14	1.979577e+14	2.533916e+13	6.231618e+03	3.788121e+03	2.778366e+03	0	5.646073e-04
5.700000e+08	7.099537e+12	0.000000e+00	8.048781e-01	1.388899e+14	1.956498e+14	2.521407e+13	6.213576e+03	3.780080e+03	2.772469e+03	0	5.619195e-04
5.800000e+08	6.999496e+12	0.000000e+00	8.048781e-01	1.370206e+14	1.933803e+14	2.508988e+13	6.195779e+03	3.772105e+03	2.766620e+03	0	5.592676e-04
5.900000e+08	6.901704e+12	0.000000e+00	8.048781e-01	1.351931e+14	1.911487e+14	2.496656e+13	6.178219e+03	3.764198e+03	2.760820e+03	0	5.566508e-04
6.000000e+08	6.806089e+12	0.000000e+00	8.048781e-01	1.334060e+14	1.889550e+14	2.484411e+13	6.160893e+03	3.756359e+03	2.755071e+03	0	5.540683e-04
6.100000e+08	6.712581e+12	0.000000e+00	8.048781e-01	1.316582e+14	1.867989e+14	2.472254e+13	6.143795e+03	3.748590e+03	2.749372e+03	0	5.515191e-04
6.200000e+08	6.621114e+12	0.000000e+00	8.048781e-01	1.299484e+14	1.846799e+14	2.460182e+13	6.126920e+03	3.740890e+03	2.743725e+03	0	5.490027e-04
6.300000e+08	6.531627e+12	0.000000e+00	8.048781e-01	1.282753e+14	1.825977e+14	2.448195e+13	6.110262e+03	3.733262e+03	2.738130e+03	0	5.465181e-04
6.400000e+08	6.444057e+12	0.000000e+00	8.048781e-01	1.266380e+14	1.805517e+14	2.436293e+13	6.093819e+03	3.725705e+03	2.732587e+03	0	5.440647e-04
6.500000e+08	6.358349e+12	0.000000e+00	8.048781e-01	1.250352e+14	1.785415e+14	2.424474e+13	6.077584e+03	3.718218e+03	2.727097e+03	0	5.416418e-04
6.600000e+08	6.274445e+12	0.000000e+00	8.048781e-01	1.234660e+14	1.765665e+14	2.412739e+13	6.061554e+03	3.710803e+03	2.721658e+03	0	5.392488e-04
6.700000e+08	6.192292e+12	0.000000e+00	8.048781e-01	1.219294e+14	1.746261e+14	2.401087e+13	6.045724e+03	3.703459e+03	2.716272e+03	0	5.368850e-04
6.800000e+08	6.111840e+12	0.000000e+00	8.048781e-01	1.204245e+14	1.727197e+14	2.389516e+13	6.030090e+03	3.696186e+03	2.710937e+03	0	5.345497e-04
6.900000e+08	6.033040e+12	0.000000e+00	8.048781e-01	1.189503e+14	1.708467e+14	2.378026e+13	6.014648e+03	3.688983e+03	2.705654e+03	0	5.322424e-04
7.000000e+08	5.955843e+12	0.000000e+00	8.048781e-01	1.175059e+14	1.690066e+14	2.366617e+13	5.999394e+03	3.681850e+03	2.700423e+03	0	5.299625e-04
7.100000e+08	5.880205e+12	0.000000e+00	8.048781e-01	1.160905e+14	1.671987e+14	2.355288e+13	5.984325e+03	3.674787e+03	2.695242e+03	0	5.277095e-04
7.200000e+08	5.806081e+12	0.000000e+00	8.048781e-01	1.147034e+14	1.654224e+14	2.344038e+13	5.969437e+03	3.667793e+03	2.690113e+03	0	5.254827e-04
7.300000e+08	5.733430e+12	0.000000e+00	8.048781e-01	1.133436e+14	1.636770e+14	2.332866e+13	5.954725e+03	3.660867e+03	2.685033e+03	0	5.232817e-04
7.400000e+08	5.662211e+12	0.000000e+00	8.048781e-01	1.120105e+14	1.619619e+14	2.321773e+13	5.940188e+03	3.654009e+03	2.680003e+03	0	5.211060e-04
7.500000e+08	5.592384e+12	0.000000e+00	8.048781e-01	1.107033e+14	1.602766e+14	2.310757e+13	5.925820e+03	3.647218e+03	2.675022e+03	0	5.189550e-04
7.600000e+08	5.523912e+12	0.000000e+00	8.048781e-01	1.094213e+14	1.586204e+14	2.299818e+13	5.911620e+03	3.640494e+03	2.670090e+03	0	5.168283e-04
7.700000e+08	5.456758e+12	0.000000e+00	8.048781e-01	1.081639e+14	1.569927e+14	2.288954e+13	5.897583e+03	3.633835e+03	2.665206e+03	0	5.147255e-04
7.800000e+08	5.390888e+12	0.000000e+00	8.048781e-01	1.069303e+14	1.553928e+14	2.278167e+13	5.883707e+03	3.627241e+03	2.660370e+03	0	5.126459e-04
7.900000e+08	5.326266e+12	0.000000e+00	8.048781e-01	1.057201e+14	1.538203e+14	2.267454e+13	5.869988e+03	3.620711e+03	2.655581e+03	0	5.105893e-04
8.000000e+08	5.262862e+12	0.000000e+00	8.048781e-01	1.045325e+14	1.522745e+14	2.256815e+13	5.856425e+03	3.614245e+03	2.650838e+03	0	5.085552e-04
8.100000e+08	5.200642e+12	0.000000e+00	8.048781e-01	1.033669e+14	1.507549e+14	2.246251e+13	5.843012e+03	3.607841e+03	2.646141e+03	0	5.065431e-04
8.200000e+08	5.139577e+12	0.000000e+00	8.048781e-01	1.022228e+14	1.492608e+14	2.235759e+13	5.829749e+03	3.601499e+03	2.641489e+03	0	5.045527e-04
8.300000e+08	5.079636e+12	0.000000e+00	8.048781e-01	1.010997e+14	1.477918e+14	2.225340e+13	5.816632e+03	3.595217e+03	2.636883e+03	0	5.025836e-04
8.400000e+08	5.020791e+12	0.000000e+00	8.048781e-01	9.999703e+13	1.463473e+14	2.214993e+13	5.803659e+03	3.588996e+03	2.632320e+03	0	5.006353e-04
8.500000e+08	4.963014e+12	0.000000e+00	8.048781e-01	9.891424e+13	1.449267e+14	2.204717e+13	5.790826e+03	3.582834e+03	2.627800e+03	0	4.987075e-04
8.600000e+08	4.906280e+12	0.000000e+00	8.048781e-01	9.785085e+13	1.435296e+14	2.194512e+13	5.778132e+03	3.576731e+03	2.623324e+03	0	4.967999e-04
8.700000e+08	4.850561e+12	0.000000e+00	8.048781e-01	9.680638e+13	1.421555e+14	2.184377e+13	5.765574e+03	3.570685e+03	2.618890e+03	0	4.949121e-04
8.800000e+08	4.795832e+12	0.000000e+00	8.048781e-01	9.578037e+13	1.408037e+14	2.174312e+13	5.753149e+03	3.564697e+03	2.614497e+03	0	4.930437e-04
8.900000e+08	4.742070e+12	0.000000e+00	8.048781e-01	9.477237e+13	1.394739e+14	2.164316e+13	5.740855e+03	3.558764e+03	2.610146e+03	0	4.911944e-04
9.000000e+08	4.689251e+12	0.000000e+00	8.048781e-01	9.378193e+13	1.381656e+14	2.154389e+13	5.728691e+03	3.552887e+03	2.605835e+03	0	4.893639e-04
9.100000e+08	4.637352e+12	0.000000e+00	8.048781e-01	9.280864e+13	1.368783e+14	2.144530e+13	5.716653e+03	3.547064e+03	2.601565e+03	0	4.875518e-04
9.200000e+08	4.586350e+12	0.000000e+00	8.048781e-01	9.185208e+13	1.356116e+14	2.134738e+13	5.704739e+03	3.541295e+03	2.597334e+03	0	4.857579e-04
9.300000e+08	4.536226e+12	0.000000e+00	8.048781e-01	9.091186e+13	1.343650e+14	2.125014e+13	5.692948e+03	3.535579e+03	2.593141e+03	0	4.839817e-04
9.400000e+08	4.486957e+12	0.000000e+00	8.048781e-01	8.998759e+13	1.331380e+14	2.115356e+13	5.681277e+03	3.529915e+03	2.588987e+03	0	4.822231e-04
9.500000e+08	4.438524e+12	0.000000e+00	8.048781e-01	8.907889e+13	1.319304e+14	2.105763e+13	5.669724e+03	3.524303e+03	2.584871e+03	0	4.804818e-04
9.600000e+08	4.390907e+12	0.000000e+00	8.048781e-01	8.818541e+13	1.307416e+14	2.096236e+13	5.658287e+03	3.518741e+03	2.580792e+03	0	4.787574e-04
9.700000e+08	4.344087e+12	0.000000e+00	8.048781e-01	8.730680e+13	1.295712e+14	2.086774e+13	5.646965e+03	3.513230e+03	2.576749e+03	0	4.770496e-04
9.800000e+08	4.298046e+12	0.000000e+00	8.048781e-01	8.644270e+13	1.284189e+14	2.077377e+13	5.635755e+03	3.507767e+03	2.572743e+03	0	4.753583e-04
9.900000e+08	4.252766e+12	0.000000e+00	8.048781e-01	8.559278e+13	1.272842e+14	2.068043e+13	5.624656e+03	3.502354e+03	2.568773e+03	0	4.736831e-04
1.000000e+09	4.208229e+12	0.000000e+00	8.048781e-01	8.475674e+13	1.261669e+14	2.058773e+13	5.613665e+03	3.496988e+03	2.564837e+03	0	4.720238e-04
1.010000e+09	4.164420e+12	0.000000e+00	8.048781e-01	8.393425e+13	1.250665e+14	2.049565e+13	5.602782e+03	3.491670e+03	2.560936e+03	0	4.703801e-04
1.020000e+09	4.121320e+12	0.000000e+00	8.048781e-01	8.312501e+13	1.239827e+14	2.040420e+13	5.592003e+03	3.486398e+03	2.557070e+03	0	4.687517e-04
1.030000e+09	4.078916e+12	0.000000e+00	8.048781e-01	8.232872e+13	1.229152e+14	2.031337e+13	5.581328e+03	3.481171e+03	2.553237e+03	0	4.671385e-04
1.040000e+09	4.037191e+12	0.000000e+00	8.048781e-01	8.154510e+13	1.218635e+14	2.022315e+13	5.570755e+03	3.475991e+03	2.549437e+03	0	4.655402e-04
1.050000e+09	3.996130e+12	0.000000e+00	8.048781e-01	8.077387e+13	1.208274e+14	2.013354e+13	5.560283e+03	3.470854e+03	2.545669e+03	0	4.639565e-04
1.060000e+09	3.955719e+12	0.000000e+00	8.048781e-01	8.001476e+13	1.198066e+14	2.004454e+13	5.549909e+03	3.465762e+03	2.541934e+03	0	4.623873e-04
1.070000e+09	3.915943e+12	0.000000e+00	8.048781e-01	7.926750e+13	1.188007e+14	1.995613e+13	5.539632e+03	3.460713e+03	2.538231e+03	0	4.608323e-04
1.080000e+09	3.876789e+12	0.000000e+00	8.048781e-01	7.853184e+13	1.178095e+14	1.986832e+13	5.529450e+03	3.455706e+03	2.534559e+03	0	4.592912e-04
1.090000e+09	3.838243e+12	0.000000e+00	8.048781e-01	7.780753e+13	1.168326e+14	1.978110e+13	5.519363e+03	3.450742e+03	2.530918e+03	0	4.577640e-04
1.100000e+09	3.800293e+12	0.000000e+00	8.048781e-01	7.709434e+13	1.158697e+14	1.969446e+13	5.509369e+03	3.445819e+03	2.527308e+03	0	4.562503e-04
1.110000e+09	3.762926e+12	0.000000e+00	8.048781e-01	7.639201e+13	1.149207e+14	1.960841e+13	5.499466e+03	3.440937e+03	2.523727e+03	0	4.547499e-04
1.120000e+09	3.726129e+12	0.000000e+00	8.048781e-01	7.570033e+13	1.139851e+14	1.952293e+13	5.489653e+03	3.436096e+03	2.520176e+03	0	4.532628e-04
1.130000e+09	3.689890e+12	0.000000e+00	8.048781e-01	7.501906e+13	1.130628e+14	1.943803e+13	5.479928e+03	3.431294e+03	2.516654e+03	0	4.517886e-04
1.140000e+09	3.654198e+12	0.000000e+00	8.048781e-01	7.434801e+13	1.121534e+14	1.935369e+13	5.470291e+03	3.426532e+03	2.513161e+03	0	4.503271e-04
1.150000e+09	3.619042e+12	0.000000e+00	8.048781e-01	7.368694e+13	1.112568e+14	1.926992e+13	5.460740e+03	3.421808e+03	2.509697e+03	0	4.488783e-04
1.160000e+09	3.584409e+12	0.000000e+00	8.048781e-01	7.303566e+13	1.103726e+14	1.918670e+13	5.451273e+03	3.417122e+03	2.506260e+03	0	4.474419e-04
1.170000e+09	3.550291e+12	0.000000e+00	8.048781e-01	7.239396e+13	1.095006e+14	1.910404e+13	5.441889e+03	3.412474e+03	2.502851e+03	0	4.460177e-04
1.180000e+09	3.516675e+12	0.000000e+00	8.048781e-01	7.176166e+13	1.086406e+14	1.902193e+13	5.432588e+03	3.407864e+03	2.499470e+03	0	4.446055e-04
1.190000e+09	3.483552e+12	0.000000e+00	8.048781e-01	7.113855e+13	1.077924e+14	1.894037e+13	5.423368e+03	3.403289e+03	2.496115e+03	0	4.432052e-04
1.200000e+09	3.450912e+12	0.000000e+00	8.048781e-01	7.052446e+13	1.069557e+14	1.885934e+13	5.414228e+03	3.398751e+03	2.492786e+03	0	4.418166e-04
1.210000e+09	3.418745e+12	0.000000e+00	8.048781e-01	6.991921e+13	1.061303e+14	1.877886e+13	5.405166e+03	3.394249e+03	2.489484e+03	0	4.404396e-04
1.220000e+09	3.387042e+12	0.000000e+00	8.048781e-01	6.932261e+13	1.053159e+14	1.869890e+13	5.396182e+03	3.389782e+03	2.486208e+03	0	4.390739e-04
1.230000e+09	3.355794e+12	0.000000e+00	8.048781e-01	6.873450e+13	1.045125e+14	1.861948e+13	5.387274e+03	3.385349e+03	2.482957e+03	0	4.377194e-04
1.240000e+09	3.324991e+12	0.000000e+00	8.048781e-01	6.815472e+13	1.037197e+14	1.854058e+13	5.378441e+03	3.380951e+03	2.479731e+03	0	4.363760e-04
1.250000e+09	3.294625e+12	0.000000e+00	8.048781e-01	6.758308e+13	1.029374e+14	1.846220e+13	5.369683e+03	3.376587e+03	2.476530e+03	0	4.350435e-04
1.260000e+09	3.264687e+12	0.000000e+00	8.048781e-01	6.701945e+13	1.021654e+14	1.838434e+13	5.360998e+03	3.372255e+03	2.473353e+03	0	4.337218e-04
1.270000e+09	3.235169e+12	0.000000e+00	8.048781e-01	6.646366e+13	1.014035e+14	1.830699e+13	5.352385e+03	3.367957e+03	2.470200e+03	0	4.324107e-04
1.280000e+09	3.206062e+12	0.000000e+00	8.048781e-01	6.591557e+13	1.006515e+14	1.823015e+13	5.343843e+03	3.363691e+03	2.467072e+03	0	4.311100e-04
1.290000e+09	3.177360e+12	0.000000e+00	8.048781e-01	6.537501e+13	9.990922e+13	1.815382e+13	5.335372e+03	3.359458e+03	2.463967e+03	0	4.298196e-04
1.300000e+09	3.149054e+12	0.000000e+00	8.048781e-01	6.484186e+13	9.917646e+13	1.807798e+13	5.326970e+03	3.355256e+03	2.460885e+03	0	4.285394e-04
1.310000e+09	3.121137e+12	0.000000e+00	8.048781e-01	6.431597e+13	9.845307e+13	1.800264e+13	5.318636e+03	3.351085e+03	2.457825e+03	0	4.272693e-04
1.320000e+09	3.093600e+12	0.000000e+00	8.048781e-01	6.379720e+13	9.773890e+13	1.792780e+13	5.310370e+03	3.346945e+03	2.454789e+03	0	4.260090e-04
1.330000e+09	3.066438e+12	0.000000e+00	8.048781e-01	6.328543e+13	9.703376e+13	1.785345e+13	5.302170e+03	3.342835e+03	2.451775e+03	0	4.247586e-04
1.340000e+09	3.039643e+12	0.000000e+00	8.048781e-01	6.278051e+13	9.633749e+13	1.777958e+13	5.294035e+03	3.338756e+03	2.448783e+03	0	4.235177e-04
1.350000e+09	3.013208e+12	0.000000e+00	8.048781e-01	6.228232e+13	9.564993e+13	1.770619e+13	5.285966e+03	3.334706e+03	2.445812e+03	0	4.222864e-04
1.360000e+09	2.987127e+12	0.000000e+00	8.048781e-01	6.179075e+13	9.497095e+13	1.763329e+13	5.277960e+03	3.330685e+03	2.442864e+03	0	4.210645e-04
