#t		Qconv[W]	Ri[Rp]		R*[Rp]		Qc[W]		Qm[W]		Qr[W]		Tcmb[K]		Tl[K]		Tup[K]		RiFlag		Bs[T]
0.000000e+00	4.221538e+13	0.000000e+00	8.048780e-01	6.343568e+14	5.443337e+13	5.042330e+13	9.250224e+03	3.206025e+03	2.289509e+03	0	9.952182e-04
1.000000e+07	4.178620e+13	0.000000e+00	8.048780e-01	6.280357e+14	6.776179e+13	5.014392e+13	9.199803e+03	3.317574e+03	2.369170e+03	0	9.918341e-04
2.000000e+07	4.129265e+13	0.000000e+00	8.048780e-01	6.207902e+14	8.284167e+13	4.986662e+13	9.149881e+03	3.425403e+03	2.446173e+03	0	9.879137e-04
3.000000e+07	4.074067e+13	0.000000e+00	8.048780e-01	6.127058e+14	9.957392e+13	4.959140e+13	9.100532e+03	3.529040e+03	2.520183e+03	0	9.834919e-04
4.000000e+07	4.013703e+13	0.000000e+00	8.048780e-01	6.038804e+14	1.177939e+14	4.931824e+13	9.051823e+03	3.628054e+03	2.590891e+03	0	9.786105e-04
5.000000e+07	3.948916e+13	0.000000e+00	8.048780e-01	5.944207e+14	1.372774e+14	4.904711e+13	9.003811e+03	3.722067e+03	2.658028e+03	0	9.733164e-04
6.000000e+07	3.880482e+13	0.000000e+00	8.048780e-01	5.844388e+14	1.577505e+14	4.877800e+13	8.956547e+03	3.810763e+03	2.721369e+03	0	9.676612e-04
7.000000e+07	3.809194e+13	0.000000e+00	8.048780e-01	5.740486e+14	1.789035e+14	4.851090e+13	8.910074e+03	3.893899e+03	2.780738e+03	0	9.616989e-04
8.000000e+07	3.735825e+13	0.000000e+00	8.048780e-01	5.633616e+14	2.004069e+14	4.824578e+13	8.864422e+03	3.971311e+03	2.836020e+03	0	9.554844e-04
9.000000e+07	3.661116e+13	0.000000e+00	8.048780e-01	5.524841e+14	2.219276e+14	4.798264e+13	8.819615e+03	4.042913e+03	2.887153e+03	0	9.490722e-04
1.000000e+08	3.585746e+13	0.000000e+00	8.048780e-01	5.415143e+14	2.431446e+14	4.772144e+13	8.775670e+03	4.108696e+03	2.934131e+03	0	9.425143e-04
1.100000e+08	3.510328e+13	0.000000e+00	8.048780e-01	5.305400e+14	2.637628e+14	4.746219e+13	8.732593e+03	4.168727e+03	2.977001e+03	0	9.358596e-04
1.200000e+08	3.435393e+13	0.000000e+00	8.048780e-01	5.196377e+14	2.835229e+14	4.720486e+13	8.690384e+03	4.223135e+03	3.015855e+03	0	9.291523e-04
1.300000e+08	3.361388e+13	0.000000e+00	8.048780e-01	5.088718e+14	3.022089e+14	4.694943e+13	8.649039e+03	4.272106e+03	3.050827e+03	0	9.224319e-04
1.400000e+08	3.288678e+13	0.000000e+00	8.048780e-01	4.982946e+14	3.196510e+14	4.669590e+13	8.608545e+03	4.315874e+03	3.082082e+03	0	9.157323e-04
1.500000e+08	3.217548e+13	0.000000e+00	8.048780e-01	4.879472e+14	3.357265e+14	4.644424e+13	8.568890e+03	4.354707e+03	3.109814e+03	0	9.090822e-04
1.600000e+08	3.148213e+13	0.000000e+00	8.048780e-01	4.778603e+14	3.503574e+14	4.619443e+13	8.530053e+03	4.388897e+03	3.134230e+03	0	9.025047e-04
1.700000e+08	3.080822e+13	0.000000e+00	8.048780e-01	4.680554e+14	3.635063e+14	4.594647e+13	8.492016e+03	4.418754e+03	3.155552e+03	0	8.960185e-04
1.800000e+08	3.015469e+13	0.000000e+00	8.048780e-01	4.585459e+14	3.751707e+14	4.570034e+13	8.454755e+03	4.444595e+03	3.174005e+03	0	8.896374e-04
1.900000e+08	2.952202e+13	0.000000e+00	8.048780e-01	4.493387e+14	3.853776e+14	4.545602e+13	8.418247e+03	4.466736e+03	3.189817e+03	0	8.833717e-04
2.000000e+08	2.891035e+13	0.000000e+00	8.048780e-01	4.404356e+14	3.941774e+14	4.521350e+13	8.382469e+03	4.485487e+03	3.203208e+03	0	8.772281e-04
2.100000e+08	2.831948e+13	0.000000e+00	8.048780e-01	4.318338e+14	4.016380e+14	4.497276e+13	8.347396e+03	4.501150e+03	3.214393e+03	0	8.712106e-04
2.200000e+08	2.774902e+13	0.000000e+00	8.048780e-01	4.235276e+14	4.078394e+14	4.473380e+13	8.313005e+03	4.514011e+03	3.223577e+03	0	8.653211e-04
2.300000e+08	2.719840e+13	0.000000e+00	8.048780e-01	4.155088e+14	4.128698e+14	4.449658e+13	8.279271e+03	4.524340e+03	3.230953e+03	0	8.595594e-04
2.400000e+08	2.666696e+13	0.000000e+00	8.048780e-01	4.077676e+14	4.168215e+14	4.426110e+13	8.246174e+03	4.532391e+03	3.236703e+03	0	8.539241e-04
2.500000e+08	2.615395e+13	0.000000e+00	8.048780e-01	4.002933e+14	4.197875e+14	4.402735e+13	8.213689e+03	4.538397e+03	3.240992e+03	0	8.484128e-04
2.600000e+08	2.565858e+13	0.000000e+00	8.048780e-01	3.930745e+14	4.218599e+14	4.379531e+13	8.181797e+03	4.542576e+03	3.243976e+03	0	8.430221e-04
2.700000e+08	2.518004e+13	0.000000e+00	8.048780e-01	3.860995e+14	4.231274e+14	4.356497e+13	8.150478e+03	4.545125e+03	3.245796e+03	0	8.377484e-04
2.800000e+08	2.471754e+13	0.000000e+00	8.048780e-01	3.793567e+14	4.236746e+14	4.333630e+13	8.119711e+03	4.546223e+03	3.246581e+03	0	8.325874e-04
2.900000e+08	2.427029e+13	0.000000e+00	8.048780e-01	3.728349e+14	4.235812e+14	4.310931e+13	8.089479e+03	4.546036e+03	3.246447e+03	0	8.275351e-04
3.000000e+08	2.383754e+13	0.000000e+00	8.048780e-01	3.665231e+14	4.229206e+14	4.288397e+13	8.059764e+03	4.544709e+03	3.245500e+03	0	8.225871e-04
3.100000e+08	2.341854e+13	0.000000e+00	8.048780e-01	3.604108e+14	4.217612e+14	4.266027e+13	8.030549e+03	4.542377e+03	3.243834e+03	0	8.177390e-04
3.200000e+08	2.301263e+13	0.000000e+00	8.048780e-01	3.544879e+14	4.201649e+14	4.243821e+13	8.001819e+03	4.539159e+03	3.241536e+03	0	8.129868e-04
3.300000e+08	2.261913e+13	0.000000e+00	8.048780e-01	3.487451e+14	4.181883e+14	4.221775e+13	7.973559e+03	4.535162e+03	3.238682e+03	0	8.083263e-04
3.400000e+08	2.223744e+13	0.000000e+00	8.048780e-01	3.431733e+14	4.158825e+14	4.199890e+13	7.945755e+03	4.530483e+03	3.235340e+03	0	8.037538e-04
3.500000e+08	2.186698e+13	0.000000e+00	8.048780e-01	3.377644e+14	4.132934e+14	4.178163e+13	7.918392e+03	4.525205e+03	3.231571e+03	0	7.992654e-04
3.600000e+08	2.150720e+13	0.000000e+00	8.048780e-01	3.325105e+14	4.104621e+14	4.156594e+13	7.891459e+03	4.519407e+03	3.227431e+03	0	7.948577e-04
3.700000e+08	2.115760e+13	0.000000e+00	8.048780e-01	3.274042e+14	4.074251e+14	4.135181e+13	7.864942e+03	4.513156e+03	3.222967e+03	0	7.905274e-04
3.800000e+08	2.081771e+13	0.000000e+00	8.048780e-01	3.224387e+14	4.042152e+14	4.113923e+13	7.838831e+03	4.506512e+03	3.218222e+03	0	7.862713e-04
3.900000e+08	2.048709e+13	0.000000e+00	8.048780e-01	3.176077e+14	4.008614e+14	4.092819e+13	7.813113e+03	4.499529e+03	3.213236e+03	0	7.820866e-04
4.000000e+08	2.016532e+13	0.000000e+00	8.048780e-01	3.129051e+14	3.973891e+14	4.071867e+13	7.787779e+03	4.492256e+03	3.208041e+03	0	7.779705e-04
4.100000e+08	1.985201e+13	0.000000e+00	8.048780e-01	3.083254e+14	3.938209e+14	4.051066e+13	7.762819e+03	4.484733e+03	3.202669e+03	0	7.739204e-04
4.200000e+08	1.954682e+13	0.000000e+00	8.048780e-01	3.038634e+14	3.901767e+14	4.030415e+13	7.738221e+03	4.477000e+03	3.197147e+03	0	7.699339e-04
4.300000e+08	1.924939e+13	0.000000e+00	8.048780e-01	2.995141e+14	3.864739e+14	4.009913e+13	7.713979e+03	4.469089e+03	3.191497e+03	0	7.660088e-04
4.400000e+08	1.895941e+13	0.000000e+00	8.048780e-01	2.952731e+14	3.827278e+14	3.989559e+13	7.690081e+03	4.461029e+03	3.185741e+03	0	7.621429e-04
4.500000e+08	1.867660e+13	0.000000e+00	8.048780e-01	2.911360e+14	3.789520e+14	3.969350e+13	7.666520e+03	4.452848e+03	3.179899e+03	0	7.583342e-04
4.600000e+08	1.840065e+13	0.000000e+00	8.048780e-01	2.870988e+14	3.751578e+14	3.949287e+13	7.643288e+03	4.444567e+03	3.173985e+03	0	7.545810e-04
4.700000e+08	1.813133e+13	0.000000e+00	8.048780e-01	2.831577e+14	3.713555e+14	3.929368e+13	7.620376e+03	4.436208e+03	3.168016e+03	0	7.508813e-04
4.800000e+08	1.786837e+13	0.000000e+00	8.048780e-01	2.793091e+14	3.675539e+14	3.909591e+13	7.597778e+03	4.427788e+03	3.162003e+03	0	7.472337e-04
4.900000e+08	1.761155e+13	0.000000e+00	8.048780e-01	2.755497e+14	3.637607e+14	3.889956e+13	7.575485e+03	4.419324e+03	3.155959e+03	0	7.436364e-04
5.000000e+08	1.736065e+13	0.000000e+00	8.048780e-01	2.718762e+14	3.599824e+14	3.870461e+13	7.553491e+03	4.410830e+03	3.149893e+03	0	7.400881e-04
5.100000e+08	1.711546e+13	0.000000e+00	8.048780e-01	2.682858e+14	3.562245e+14	3.851106e+13	7.531789e+03	4.402318e+03	3.143814e+03	0	7.365873e-04
5.200000e+08	1.687577e+13	0.000000e+00	8.048780e-01	2.647754e+14	3.524922e+14	3.831889e+13	7.510372e+03	4.393799e+03	3.137731e+03	0	7.331328e-04
5.300000e+08	1.664142e+13	0.000000e+00	8.048780e-01	2.613425e+14	3.487894e+14	3.812809e+13	7.489234e+03	4.385283e+03	3.131649e+03	0	7.297233e-04
5.400000e+08	1.641221e+13	0.000000e+00	8.048780e-01	2.579844e+14	3.451196e+14	3.793864e+13	7.468368e+03	4.376778e+03	3.125575e+03	0	7.263576e-04
5.500000e+08	1.618798e+13	0.000000e+00	8.048780e-01	2.546988e+14	3.414857e+14	3.775055e+13	7.447770e+03	4.368291e+03	3.119515e+03	0	7.230345e-04
5.600000e+08	1.596858e+13	0.000000e+00	8.048780e-01	2.514833e+14	3.378903e+14	3.756379e+13	7.427433e+03	4.359830e+03	3.113473e+03	0	7.197531e-04
5.700000e+08	1.575384e+13	0.000000e+00	8.048780e-01	2.483357e+14	3.343353e+14	3.737836e+13	7.407351e+03	4.351400e+03	3.107452e+03	0	7.165122e-04
5.800000e+08	1.554363e+13	0.000000e+00	8.048780e-01	2.452538e+14	3.308225e+14	3.719424e+13	7.387520e+03	4.343006e+03	3.101458e+03	0	7.133110e-04
5.900000e+08	1.533780e+13	0.000000e+00	8.048780e-01	2.422358e+14	3.273530e+14	3.701143e+13	7.367934e+03	4.334652e+03	3.095492e+03	0	7.101484e-04
6.000000e+08	1.513622e+13	0.000000e+00	8.048780e-01	2.392796e+14	3.239282e+14	3.682992e+13	7.348587e+03	4.326342e+03	3.089558e+03	0	7.070236e-04
6.100000e+08	1.493877e+13	0.000000e+00	8.048780e-01	2.363834e+14	3.205487e+14	3.664968e+13	7.329476e+03	4.318080e+03	3.083657e+03	0	7.039358e-04
6.200000e+08	1.474532e+13	0.000000e+00	8.048780e-01	2.335455e+14	3.172150e+14	3.647072e+13	7.310595e+03	4.309867e+03	3.077793e+03	0	7.008841e-04
6.300000e+08	1.455576e+13	0.000000e+00	8.048780e-01	2.307642e+14	3.139277e+14	3.629303e+13	7.291940e+03	4.301708e+03	3.071966e+03	0	6.978676e-04
6.400000e+08	1.436997e+13	0.000000e+00	8.048780e-01	2.280378e+14	3.106868e+14	3.611659e+13	7.273506e+03	4.293603e+03	3.066178e+03	0	6.948858e-04
6.500000e+08	1.418785e+13	0.000000e+00	8.048780e-01	2.253648e+14	3.074924e+14	3.594139e+13	7.255289e+03	4.285554e+03	3.060430e+03	0	6.919377e-04
6.600000e+08	1.400930e+13	0.000000e+00	8.048780e-01	2.227437e+14	3.043447e+14	3.576742e+13	7.237285e+03	4.277563e+03	3.054723e+03	0	6.890228e-04
6.700000e+08	1.383421e+13	0.000000e+00	8.048780e-01	2.201731e+14	3.012434e+14	3.559468e+13	7.219489e+03	4.269631e+03	3.049059e+03	0	6.861403e-04
6.800000e+08	1.366250e+13	0.000000e+00	8.048780e-01	2.176516e+14	2.981881e+14	3.542315e+13	7.201897e+03	4.261758e+03	3.043437e+03	0	6.832896e-04
6.900000e+08	1.349406e+13	0.000000e+00	8.048780e-01	2.151779e+14	2.951788e+14	3.525282e+13	7.184507e+03	4.253947e+03	3.037859e+03	0	6.804701e-04
7.000000e+08	1.332882e+13	0.000000e+00	8.048780e-01	2.127506e+14	2.922148e+14	3.508369e+13	7.167313e+03	4.246197e+03	3.032324e+03	0	6.776811e-04
7.100000e+08	1.316669e+13	0.000000e+00	8.048780e-01	2.103686e+14	2.892960e+14	3.491574e+13	7.150312e+03	4.238508e+03	3.026833e+03	0	6.749220e-04
7.200000e+08	1.300757e+13	0.000000e+00	8.048780e-01	2.080307e+14	2.864216e+14	3.474896e+13	7.133501e+03	4.230882e+03	3.021387e+03	0	6.721923e-04
7.300000e+08	1.285141e+13	0.000000e+00	8.048780e-01	2.057357e+14	2.835912e+14	3.458335e+13	7.116876e+03	4.223318e+03	3.015985e+03	0	6.694914e-04
7.400000e+08	1.269811e+13	0.000000e+00	8.048780e-01	2.034825e+14	2.808043e+14	3.441890e+13	7.100434e+03	4.215816e+03	3.010628e+03	0	6.668188e-04
7.500000e+08	1.254762e+13	0.000000e+00	8.048780e-01	2.012700e+14	2.780602e+14	3.425559e+13	7.084171e+03	4.208377e+03	3.005315e+03	0	6.641739e-04
7.600000e+08	1.239984e+13	0.000000e+00	8.048780e-01	1.990973e+14	2.753582e+14	3.409342e+13	7.068084e+03	4.200999e+03	3.000047e+03	0	6.615563e-04
7.700000e+08	1.225473e+13	0.000000e+00	8.048780e-01	1.969633e+14	2.726979e+14	3.393238e+13	7.052170e+03	4.193684e+03	2.994823e+03	0	6.589654e-04
7.800000e+08	1.211220e+13	0.000000e+00	8.048780e-01	1.948671e+14	2.700785e+14	3.377246e+13	7.036426e+03	4.186430e+03	2.989643e+03	0	6.564008e-04
7.900000e+08	1.197220e+13	0.000000e+00	8.048780e-01	1.928076e+14	2.674995e+14	3.361365e+13	7.020849e+03	4.179237e+03	2.984506e+03	0	6.538620e-04
8.000000e+08	1.183466e+13	0.000000e+00	8.048780e-01	1.907841e+14	2.649600e+14	3.345594e+13	7.005436e+03	4.172106e+03	2.979414e+03	0	6.513485e-04
8.100000e+08	1.169953e+13	0.000000e+00	8.048780e-01	1.887957e+14	2.624594e+14	3.329932e+13	6.990184e+03	4.165035e+03	2.974364e+03	0	6.488599e-04
8.200000e+08	1.156675e+13	0.000000e+00	8.048780e-01	1.868414e+14	2.599972e+14	3.314379e+13	6.975091e+03	4.158025e+03	2.969358e+03	0	6.463957e-04
8.300000e+08	1.143625e+13	0.000000e+00	8.048780e-01	1.849206e+14	2.575726e+14	3.298933e+13	6.960153e+03	4.151074e+03	2.964394e+03	0	6.439557e-04
8.400000e+08	1.130799e+13	0.000000e+00	8.048780e-01	1.830323e+14	2.551849e+14	3.283594e+13	6.945368e+03	4.144182e+03	2.959473e+03	0	6.415392e-04
8.500000e+08	1.118191e+13	0.000000e+00	8.048780e-01	1.811759e+14	2.528335e+14	3.268361e+13	6.930733e+03	4.137350e+03	2.954593e+03	0	6.391460e-04
8.600000e+08	1.105796e+13	0.000000e+00	8.048780e-01	1.793506e+14	2.505177e+14	3.253233e+13	6.916247e+03	4.130575e+03	2.949755e+03	0	6.367756e-04
8.700000e+08	1.093609e+13	0.000000e+00	8.048780e-01	1.775556e+14	2.482369e+14	3.238209e+13	6.901906e+03	4.123858e+03	2.944958e+03	0	6.344277e-04
8.800000e+08	1.081626e+13	0.000000e+00	8.048780e-01	1.757902e+14	2.459904e+14	3.223288e+13	6.887708e+03	4.117197e+03	2.940202e+03	0	6.321019e-04
8.900000e+08	1.069841e+13	0.000000e+00	8.048780e-01	1.740539e+14	2.437777e+14	3.208470e+13	6.873650e+03	4.110594e+03	2.935486e+03	0	6.297978e-04
9.000000e+08	1.058250e+13	0.000000e+00	8.048780e-01	1.723459e+14	2.415980e+14	3.193753e+13	6.859731e+03	4.104046e+03	2.930810e+03	0	6.275151e-04
9.100000e+08	1.046849e+13	0.000000e+00	8.048780e-01	1.706655e+14	2.394506e+14	3.179138e+13	6.845948e+03	4.097553e+03	2.926173e+03	0	6.252535e-04
9.200000e+08	1.035633e+13	0.000000e+00	8.048780e-01	1.690123e+14	2.373352e+14	3.164622e+13	6.832299e+03	4.091115e+03	2.921575e+03	0	6.230125e-04
9.300000e+08	1.024599e+13	0.000000e+00	8.048780e-01	1.673854e+14	2.352509e+14	3.150206e+13	6.818782e+03	4.084730e+03	2.917016e+03	0	6.207919e-04
9.400000e+08	1.013742e+13	0.000000e+00	8.048780e-01	1.657845e+14	2.331974e+14	3.135888e+13	6.805394e+03	4.078399e+03	2.912495e+03	0	6.185914e-04
9.500000e+08	1.003058e+13	0.000000e+00	8.048780e-01	1.642089e+14	2.311737e+14	3.121668e+13	6.792134e+03	4.072121e+03	2.908012e+03	0	6.164106e-04
9.600000e+08	9.925435e+12	0.000000e+00	8.048780e-01	1.626580e+14	2.291797e+14	3.107545e+13	6.778999e+03	4.065895e+03	2.903565e+03	0	6.142492e-04
9.700000e+08	9.821950e+12	0.000000e+00	8.048780e-01	1.611313e+14	2.272145e+14	3.093518e+13	6.765989e+03	4.059720e+03	2.899156e+03	0	6.121070e-04
9.800000e+08	9.720086e+12	0.000000e+00	8.048780e-01	1.596283e+14	2.252777e+14	3.079587e+13	6.753099e+03	4.053596e+03	2.894783e+03	0	6.099836e-04
9.900000e+08	9.619811e+12	0.000000e+00	8.048780e-01	1.581485e+14	2.233687e+14	3.065750e+13	6.740330e+03	4.047523e+03	2.890445e+03	0	6.078787e-04
1.000000e+09	9.521088e+12	0.000000e+00	8.048780e-01	1.566914e+14	2.214870e+14	3.052008e+13	6.727679e+03	4.041499e+03	2.886144e+03	0	6.057921e-04
1.010000e+09	9.423885e+12	0.000000e+00	8.048780e-01	1.552565e+14	2.196321e+14	3.038358e+13	6.715144e+03	4.035524e+03	2.881877e+03	0	6.037235e-04
1.020000e+09	9.328171e+12	0.000000e+00	8.048780e-01	1.538433e+14	2.178035e+14	3.024801e+13	6.702723e+03	4.029597e+03	2.877644e+03	0	6.016726e-04
1.030000e+09	9.233913e+12	0.000000e+00	8.048780e-01	1.524514e+14	2.160006e+14	3.011336e+13	6.690415e+03	4.023719e+03	2.873446e+03	0	5.996392e-04
1.040000e+09	9.141082e+12	0.000000e+00	8.048780e-01	1.510804e+14	2.142230e+14	2.997961e+13	6.678218e+03	4.017887e+03	2.869282e+03	0	5.976230e-04
1.050000e+09	9.049647e+12	0.000000e+00	8.048780e-01	1.497297e+14	2.124702e+14	2.984677e+13	6.666130e+03	4.012102e+03	2.865151e+03	0	5.956237e-04
1.060000e+09	8.959580e+12	0.000000e+00	8.048780e-01	1.483991e+14	2.107418e+14	2.971483e+13	6.654150e+03	4.006363e+03	2.861052e+03	0	5.936411e-04
1.070000e+09	8.870853e+12	0.000000e+00	8.048780e-01	1.470880e+14	2.090372e+14	2.958377e+13	6.642276e+03	4.000670e+03	2.856987e+03	0	5.916750e-04
1.080000e+09	8.783438e+12	0.000000e+00	8.048780e-01	1.457961e+14	2.073561e+14	2.945360e+13	6.630507e+03	3.995021e+03	2.852953e+03	0	5.897251e-04
1.090000e+09	8.697309e+12	0.000000e+00	8.048780e-01	1.445231e+14	2.056979e+14	2.932430e+13	6.618840e+03	3.989417e+03	2.848951e+03	0	5.877912e-04
1.100000e+09	8.612440e+12	0.000000e+00	8.048780e-01	1.432684e+14	2.040624e+14	2.919587e+13	6.607275e+03	3.983857e+03	2.844980e+03	0	5.858730e-04
1.110000e+09	8.528805e+12	0.000000e+00	8.048780e-01	1.420318e+14	2.024489e+14	2.906830e+13	6.595811e+03	3.978340e+03	2.841040e+03	0	5.839704e-04
1.120000e+09	8.446379e+12	0.000000e+00	8.048780e-01	1.408128e+14	2.008572e+14	2.894159e+13	6.584445e+03	3.972865e+03	2.837130e+03	0	5.820831e-04
1.130000e+09	8.365140e+12	0.000000e+00	8.048780e-01	1.396112e+14	1.992868e+14	2.881572e+13	6.573176e+03	3.967433e+03	2.833251e+03	0	5.802108e-04
1.140000e+09	8.285063e+12	0.000000e+00	8.048780e-01	1.384267e+14	1.977374e+14	2.869069e+13	6.562003e+03	3.962042e+03	2.829401e+03	0	5.783535e-04
1.150000e+09	8.206125e+12	0.000000e+00	8.048780e-01	1.372587e+14	1.962085e+14	2.856650e+13	6.550925e+03	3.956693e+03	2.825581e+03	0	5.765108e-04
1.160000e+09	8.128305e+12	0.000000e+00	8.048780e-01	1.361072e+14	1.946998e+14	2.844314e+13	6.539939e+03	3.951384e+03	2.821790e+03	0	5.746827e-04
1.170000e+09	8.051580e+12	0.000000e+00	8.048780e-01	1.349716e+14	1.932110e+14	2.832060e+13	6.529046e+03	3.946115e+03	2.818027e+03	0	5.728688e-04
1.180000e+09	7.975930e+12	0.000000e+00	8.048780e-01	1.338518e+14	1.917415e+14	2.819888e+13	6.518243e+03	3.940885e+03	2.814293e+03	0	5.710689e-04
1.190000e+09	7.901333e+12	0.000000e+00	8.048780e-01	1.327474e+14	1.902912e+14	2.807796e+13	6.507530e+03	3.935695e+03	2.810586e+03	0	5.692830e-04
1.200000e+09	7.827770e+12	0.000000e+00	8.048780e-01	1.316581e+14	1.888597e+14	2.795785e+13	6.496905e+03	3.930543e+03	2.806907e+03	0	5.675108e-04
1.210000e+09	7.755221e+12	0.000000e+00	8.048780e-01	1.305836e+14	1.874465e+14	2.783853e+13	6.486366e+03	3.925430e+03	2.803256e+03	0	5.657521e-04
1.220000e+09	7.683666e+12	0.000000e+00	8.048780e-01	1.295237e+14	1.860515e+14	2.772001e+13	6.475914e+03	3.920354e+03	2.799631e+03	0	5.640067e-04
1.230000e+09	7.613088e+12	0.000000e+00	8.048780e-01	1.284781e+14	1.846742e+14	2.760226e+13	6.465546e+03	3.915316e+03	2.796033e+03	0	5.622745e-04
1.240000e+09	7.543467e+12	0.000000e+00	8.048780e-01	1.274466e+14	1.833144e+14	2.748530e+13	6.455261e+03	3.910314e+03	2.792461e+03	0	5.605553e-04
1.250000e+09	7.474786e+12	0.000000e+00	8.048780e-01	1.264287e+14	1.819718e+14	2.736911e+13	6.445059e+03	3.905348e+03	2.788915e+03	0	5.588488e-04
1.260000e+09	7.407028e+12	0.000000e+00	8.048780e-01	1.254244e+14	1.806459e+14	2.725369e+13	6.434938e+03	3.900418e+03	2.785394e+03	0	5.571551e-04
1.270000e+09	7.340175e+12	0.000000e+00	8.048780e-01	1.244334e+14	1.793367e+14	2.713902e+13	6.424897e+03	3.895524e+03	2.781899e+03	0	5.554738e-04
1.280000e+09	7.274211e+12	0.000000e+00	8.048780e-01	1.234553e+14	1.780438e+14	2.702511e+13	6.414935e+03	3.890665e+03	2.778429e+03	0	5.538048e-04
1.290000e+09	7.209119e+12	0.000000e+00	8.048780e-01	1.224901e+14	1.767667e+14	2.691195e+13	6.405052e+03	3.885840e+03	2.774983e+03	0	5.521480e-04
1.300000e+09	7.144885e+12	0.000000e+00	8.048780e-01	1.215374e+14	1.755054e+14	2.679953e+13	6.395245e+03	3.881049e+03	2.771562e+03	0	5.505032e-04
1.310000e+09	7.081491e+12	0.000000e+00	8.048780e-01	1.205970e+14	1.742596e+14	2.668785e+13	6.385514e+03	3.876293e+03	2.768165e+03	0	5.488702e-04
1.320000e+09	7.018924e+12	0.000000e+00	8.048780e-01	1.196687e+14	1.730290e+14	2.657690e+13	6.375859e+03	3.871569e+03	2.764792e+03	0	5.472490e-04
1.330000e+09	6.957168e+12	0.000000e+00	8.048780e-01	1.187523e+14	1.718132e+14	2.646667e+13	6.366278e+03	3.866879e+03	2.761443e+03	0	5.456392e-04
1.340000e+09	6.896209e+12	0.000000e+00	8.048780e-01	1.178476e+14	1.706121e+14	2.635717e+13	6.356770e+03	3.862221e+03	2.758116e+03	0	5.440409e-04
1.350000e+09	6.836033e+12	0.000000e+00	8.048780e-01	1.169544e+14	1.694255e+14	2.624837e+13	6.347334e+03	3.857595e+03	2.754813e+03	0	5.424539e-04
1.360000e+09	6.776626e+12	0.000000e+00	8.048780e-01	1.160724e+14	1.682530e+14	2.614029e+13	6.337969e+03	3.853001e+03	2.751532e+03	0	5.408779e-04
