#t		Qconv[W]	Ri[Rp]		R*[Rp]		Qc[W]		Qm[W]		Qr[W]		Tcmb[K]		Tl[K]		Tup[K]		RiFlag		Bs[T]
0.000000e+00	1.792123e+14	0.000000e+00	7.886178e-01	2.164978e+15	5.810369e+13	8.232683e+13	1.361759e+04	3.802545e+03	2.467543e+03	0	1.602907e-03
1.000000e+07	1.773354e+14	0.000000e+00	7.886178e-01	2.142551e+15	8.852723e+13	8.187067e+13	1.351031e+04	4.053156e+03	2.630170e+03	0	1.597291e-03
2.000000e+07	1.749033e+14	0.000000e+00	7.886178e-01	2.113718e+15	1.284124e+14	8.141794e+13	1.340412e+04	4.297090e+03	2.788463e+03	0	1.589955e-03
3.000000e+07	1.719611e+14	0.000000e+00	7.886178e-01	2.079004e+15	1.783824e+14	8.096858e+13	1.329935e+04	4.532476e+03	2.941210e+03	0	1.580990e-03
4.000000e+07	1.685688e+14	0.000000e+00	7.886178e-01	2.039101e+15	2.384385e+14	8.052258e+13	1.319629e+04	4.757471e+03	3.087213e+03	0	1.570524e-03
5.000000e+07	1.647980e+14	0.000000e+00	7.886178e-01	1.994840e+15	3.078889e+14	8.007990e+13	1.309519e+04	4.970347e+03	3.225352e+03	0	1.558725e-03
6.000000e+07	1.607288e+14	0.000000e+00	7.886178e-01	1.947149e+15	3.853653e+14	7.964053e+13	1.299626e+04	5.169593e+03	3.354647e+03	0	1.545789e-03
7.000000e+07	1.564452e+14	0.000000e+00	7.886178e-01	1.896998e+15	4.689286e+14	7.920442e+13	1.289969e+04	5.353996e+03	3.474309e+03	0	1.531933e-03
8.000000e+07	1.520300e+14	0.000000e+00	7.886178e-01	1.845343e+15	5.562475e+14	7.877157e+13	1.280558e+04	5.522704e+03	3.583787e+03	0	1.517384e-03
9.000000e+07	1.475603e+14	0.000000e+00	7.886178e-01	1.793076e+15	6.448177e+14	7.834192e+13	1.271403e+04	5.675253e+03	3.682779e+03	0	1.502365e-03
1.000000e+08	1.431043e+14	0.000000e+00	7.886178e-01	1.740986e+15	7.321848e+14	7.791547e+13	1.262504e+04	5.811572e+03	3.771239e+03	0	1.487088e-03
1.100000e+08	1.387187e+14	0.000000e+00	7.886178e-01	1.689727e+15	8.161348e+14	7.749219e+13	1.253863e+04	5.931950e+03	3.849354e+03	0	1.471739e-03
1.200000e+08	1.344480e+14	0.000000e+00	7.886178e-01	1.639812e+15	8.948340e+14	7.707204e+13	1.245475e+04	6.036986e+03	3.917514e+03	0	1.456477e-03
1.300000e+08	1.303244e+14	0.000000e+00	7.886178e-01	1.591614e+15	9.669005e+14	7.665500e+13	1.237332e+04	6.127523e+03	3.976266e+03	0	1.441432e-03
1.400000e+08	1.263692e+14	0.000000e+00	7.886178e-01	1.545378e+15	1.031422e+15	7.624105e+13	1.229428e+04	6.204581e+03	4.026270e+03	0	1.426700e-03
1.500000e+08	1.225945e+14	0.000000e+00	7.886178e-01	1.501242e+15	1.087922e+15	7.583016e+13	1.221752e+04	6.269287e+03	4.068258e+03	0	1.412351e-03
1.600000e+08	1.190045e+14	0.000000e+00	7.886178e-01	1.459255e+15	1.136298e+15	7.542230e+13	1.214293e+04	6.322815e+03	4.102994e+03	0	1.398428e-03
1.700000e+08	1.155978e+14	0.000000e+00	7.886178e-01	1.419400e+15	1.176746e+15	7.501745e+13	1.207042e+04	6.366341e+03	4.131239e+03	0	1.384955e-03
1.800000e+08	1.123691e+14	0.000000e+00	7.886178e-01	1.381615e+15	1.209680e+15	7.461559e+13	1.199988e+04	6.401002e+03	4.153731e+03	0	1.371938e-03
1.900000e+08	1.093102e+14	0.000000e+00	7.886178e-01	1.345803e+15	1.235656e+15	7.421669e+13	1.193120e+04	6.427872e+03	4.171168e+03	0	1.359375e-03
2.000000e+08	1.064112e+14	0.000000e+00	7.886178e-01	1.311852e+15	1.255317e+15	7.382072e+13	1.186430e+04	6.447944e+03	4.184193e+03	0	1.347250e-03
2.100000e+08	1.036618e+14	0.000000e+00	7.886178e-01	1.279639e+15	1.269338e+15	7.342766e+13	1.179907e+04	6.462122e+03	4.193393e+03	0	1.335545e-03
2.200000e+08	1.010511e+14	0.000000e+00	7.886178e-01	1.249040e+15	1.278390e+15	7.303750e+13	1.173543e+04	6.471218e+03	4.199295e+03	0	1.324238e-03
2.300000e+08	9.856891e+13	0.000000e+00	7.886178e-01	1.219936e+15	1.283121e+15	7.265019e+13	1.167330e+04	6.475952e+03	4.202368e+03	0	1.313305e-03
2.400000e+08	9.620517e+13	0.000000e+00	7.886178e-01	1.192210e+15	1.284130e+15	7.226572e+13	1.161261e+04	6.476961e+03	4.203022e+03	0	1.302722e-03
2.500000e+08	9.395069e+13	0.000000e+00	7.886178e-01	1.165755e+15	1.281969e+15	7.188407e+13	1.155330e+04	6.474800e+03	4.201620e+03	0	1.292465e-03
2.600000e+08	9.179697e+13	0.000000e+00	7.886178e-01	1.140474e+15	1.277130e+15	7.150522e+13	1.149529e+04	6.469953e+03	4.198475e+03	0	1.282513e-03
2.700000e+08	8.973624e+13	0.000000e+00	7.886178e-01	1.116275e+15	1.270050e+15	7.112913e+13	1.143853e+04	6.462839e+03	4.193858e+03	0	1.272843e-03
2.800000e+08	8.776149e+13	0.000000e+00	7.886178e-01	1.093078e+15	1.261112e+15	7.075579e+13	1.138297e+04	6.453817e+03	4.188004e+03	0	1.263437e-03
2.900000e+08	8.586636e+13	0.000000e+00	7.886178e-01	1.070809e+15	1.250650e+15	7.038518e+13	1.132855e+04	6.443199e+03	4.181114e+03	0	1.254277e-03
3.000000e+08	8.404517e+13	0.000000e+00	7.886178e-01	1.049401e+15	1.238950e+15	7.001726e+13	1.127524e+04	6.431251e+03	4.173360e+03	0	1.245345e-03
3.100000e+08	8.229277e+13	0.000000e+00	7.886178e-01	1.028795e+15	1.226260e+15	6.965203e+13	1.122299e+04	6.418199e+03	4.164891e+03	0	1.236629e-03
3.200000e+08	8.060457e+13	0.000000e+00	7.886178e-01	1.008938e+15	1.212789e+15	6.928945e+13	1.117175e+04	6.404239e+03	4.155832e+03	0	1.228114e-03
3.300000e+08	7.897641e+13	0.000000e+00	7.886178e-01	9.897814e+14	1.198715e+15	6.892951e+13	1.112150e+04	6.389537e+03	4.146291e+03	0	1.219789e-03
3.400000e+08	7.740456e+13	0.000000e+00	7.886178e-01	9.712817e+14	1.184190e+15	6.857219e+13	1.107220e+04	6.374235e+03	4.136361e+03	0	1.211642e-03
3.500000e+08	7.588565e+13	0.000000e+00	7.886178e-01	9.533998e+14	1.169340e+15	6.821745e+13	1.102381e+04	6.358452e+03	4.126119e+03	0	1.203665e-03
3.600000e+08	7.441662e+13	0.000000e+00	7.886178e-01	9.361003e+14	1.154273e+15	6.786529e+13	1.097631e+04	6.342291e+03	4.115633e+03	0	1.195847e-03
3.700000e+08	7.299470e+13	0.000000e+00	7.886178e-01	9.193509e+14	1.139077e+15	6.751568e+13	1.092966e+04	6.325841e+03	4.104957e+03	0	1.188181e-03
3.800000e+08	7.161736e+13	0.000000e+00	7.886178e-01	9.031223e+14	1.123828e+15	6.716860e+13	1.088385e+04	6.309174e+03	4.094142e+03	0	1.180661e-03
3.900000e+08	7.028231e+13	0.000000e+00	7.886178e-01	8.873877e+14	1.108585e+15	6.682403e+13	1.083884e+04	6.292354e+03	4.083227e+03	0	1.173278e-03
4.000000e+08	6.898743e+13	0.000000e+00	7.886178e-01	8.721225e+14	1.093401e+15	6.648194e+13	1.079460e+04	6.275434e+03	4.072248e+03	0	1.166028e-03
4.100000e+08	6.773077e+13	0.000000e+00	7.886178e-01	8.573041e+14	1.078318e+15	6.614233e+13	1.075113e+04	6.258459e+03	4.061232e+03	0	1.158904e-03
4.200000e+08	6.651056e+13	0.000000e+00	7.886178e-01	8.429117e+14	1.063368e+15	6.580516e+13	1.070839e+04	6.241468e+03	4.050207e+03	0	1.151903e-03
4.300000e+08	6.532512e+13	0.000000e+00	7.886178e-01	8.289261e+14	1.048581e+15	6.547042e+13	1.066636e+04	6.224493e+03	4.039191e+03	0	1.145018e-03
4.400000e+08	6.417294e+13	0.000000e+00	7.886178e-01	8.153294e+14	1.033977e+15	6.513809e+13	1.062503e+04	6.207561e+03	4.028204e+03	0	1.138246e-03
4.500000e+08	6.305257e+13	0.000000e+00	7.886178e-01	8.021048e+14	1.019575e+15	6.480814e+13	1.058436e+04	6.190695e+03	4.017259e+03	0	1.131583e-03
4.600000e+08	6.196269e+13	0.000000e+00	7.886178e-01	7.892370e+14	1.005388e+15	6.448057e+13	1.054436e+04	6.173914e+03	4.006369e+03	0	1.125025e-03
4.700000e+08	6.090205e+13	0.000000e+00	7.886178e-01	7.767114e+14	9.914258e+14	6.415534e+13	1.050499e+04	6.157234e+03	3.995545e+03	0	1.118569e-03
4.800000e+08	5.986949e+13	0.000000e+00	7.886178e-01	7.645145e+14	9.776974e+14	6.383244e+13	1.046625e+04	6.140668e+03	3.984796e+03	0	1.112212e-03
4.900000e+08	5.886390e+13	0.000000e+00	7.886178e-01	7.526333e+14	9.642072e+14	6.351186e+13	1.042811e+04	6.124228e+03	3.974127e+03	0	1.105949e-03
5.000000e+08	5.788426e+13	0.000000e+00	7.886178e-01	7.410560e+14	9.509592e+14	6.319357e+13	1.039056e+04	6.107922e+03	3.963546e+03	0	1.099780e-03
5.100000e+08	5.692960e+13	0.000000e+00	7.886178e-01	7.297711e+14	9.379546e+14	6.287755e+13	1.035358e+04	6.091758e+03	3.953057e+03	0	1.093700e-03
5.200000e+08	5.599898e+13	0.000000e+00	7.886178e-01	7.187680e+14	9.251946e+14	6.256379e+13	1.031717e+04	6.075741e+03	3.942663e+03	0	1.087708e-03
5.300000e+08	5.509155e+13	0.000000e+00	7.886178e-01	7.080365e+14	9.126784e+14	6.225226e+13	1.028130e+04	6.059876e+03	3.932368e+03	0	1.081801e-03
5.400000e+08	5.420648e+13	0.000000e+00	7.886178e-01	6.975669e+14	9.004047e+14	6.194296e+13	1.024596e+04	6.044167e+03	3.922174e+03	0	1.075976e-03
5.500000e+08	5.334299e+13	0.000000e+00	7.886178e-01	6.873502e+14	8.883714e+14	6.163585e+13	1.021114e+04	6.028616e+03	3.912082e+03	0	1.070232e-03
5.600000e+08	5.250033e+13	0.000000e+00	7.886178e-01	6.773776e+14	8.765753e+14	6.133093e+13	1.017683e+04	6.013225e+03	3.902095e+03	0	1.064567e-03
5.700000e+08	5.167779e+13	0.000000e+00	7.886178e-01	6.676409e+14	8.650136e+14	6.102817e+13	1.014302e+04	5.997995e+03	3.892212e+03	0	1.058978e-03
5.800000e+08	5.087470e+13	0.000000e+00	7.886178e-01	6.581323e+14	8.536827e+14	6.072756e+13	1.010969e+04	5.982927e+03	3.882434e+03	0	1.053464e-03
5.900000e+08	5.009041e+13	0.000000e+00	7.886178e-01	6.488441e+14	8.425786e+14	6.042909e+13	1.007683e+04	5.968022e+03	3.872762e+03	0	1.048022e-03
6.000000e+08	4.932432e+13	0.000000e+00	7.886178e-01	6.397693e+14	8.316972e+14	6.013272e+13	1.004443e+04	5.953278e+03	3.863195e+03	0	1.042652e-03
6.100000e+08	4.857583e+13	0.000000e+00	7.886178e-01	6.309010e+14	8.210342e+14	5.983845e+13	1.001248e+04	5.938696e+03	3.853732e+03	0	1.037351e-03
6.200000e+08	4.784438e+13	0.000000e+00	7.886178e-01	6.222326e+14	8.105850e+14	5.954626e+13	9.980979e+03	5.924274e+03	3.844373e+03	0	1.032118e-03
6.300000e+08	4.712943e+13	0.000000e+00	7.886178e-01	6.137578e+14	8.003457e+14	5.925614e+13	9.949904e+03	5.910011e+03	3.835118e+03	0	1.026951e-03
6.400000e+08	4.643048e+13	0.000000e+00	7.886178e-01	6.054707e+14	7.903111e+14	5.896806e+13	9.919249e+03	5.895907e+03	3.825965e+03	0	1.021849e-03
6.500000e+08	4.574703e+13	0.000000e+00	7.886178e-01	5.973654e+14	7.804768e+14	5.868201e+13	9.889007e+03	5.881958e+03	3.816914e+03	0	1.016810e-03
6.600000e+08	4.507859e+13	0.000000e+00	7.886178e-01	5.894365e+14	7.708383e+14	5.839797e+13	9.859168e+03	5.868165e+03	3.807963e+03	0	1.011833e-03
6.700000e+08	4.442473e+13	0.000000e+00	7.886178e-01	5.816786e+14	7.613913e+14	5.811593e+13	9.829723e+03	5.854525e+03	3.799112e+03	0	1.006917e-03
6.800000e+08	4.378500e+13	0.000000e+00	7.886178e-01	5.740867e+14	7.521308e+14	5.783587e+13	9.800664e+03	5.841036e+03	3.790359e+03	0	1.002061e-03
6.900000e+08	4.315898e+13	0.000000e+00	7.886178e-01	5.666558e+14	7.430529e+14	5.755777e+13	9.771982e+03	5.827697e+03	3.781703e+03	0	9.972621e-04
7.000000e+08	4.254628e+13	0.000000e+00	7.886178e-01	5.593812e+14	7.341530e+14	5.728162e+13	9.743670e+03	5.814505e+03	3.773142e+03	0	9.925204e-04
7.100000e+08	4.194649e+13	0.000000e+00	7.886178e-01	5.522584e+14	7.254267e+14	5.700741e+13	9.715719e+03	5.801459e+03	3.764676e+03	0	9.878344e-04
7.200000e+08	4.135926e+13	0.000000e+00	7.886178e-01	5.452830e+14	7.168696e+14	5.673512e+13	9.688123e+03	5.788555e+03	3.756303e+03	0	9.832030e-04
7.300000e+08	4.078422e+13	0.000000e+00	7.886178e-01	5.384509e+14	7.084781e+14	5.646472e+13	9.660874e+03	5.775793e+03	3.748021e+03	0	9.786250e-04
7.400000e+08	4.022102e+13	0.000000e+00	7.886178e-01	5.317580e+14	7.002478e+14	5.619622e+13	9.633964e+03	5.763171e+03	3.739830e+03	0	9.740995e-04
7.500000e+08	3.966934e+13	0.000000e+00	7.886178e-01	5.252003e+14	6.921745e+14	5.592959e+13	9.607388e+03	5.750685e+03	3.731728e+03	0	9.696253e-04
7.600000e+08	3.912885e+13	0.000000e+00	7.886178e-01	5.187742e+14	6.842550e+14	5.566481e+13	9.581137e+03	5.738335e+03	3.723714e+03	0	9.652014e-04
7.700000e+08	3.859924e+13	0.000000e+00	7.886178e-01	5.124761e+14	6.764846e+14	5.540188e+13	9.555207e+03	5.726117e+03	3.715785e+03	0	9.608270e-04
7.800000e+08	3.808021e+13	0.000000e+00	7.886178e-01	5.063023e+14	6.688605e+14	5.514077e+13	9.529590e+03	5.714030e+03	3.707942e+03	0	9.565009e-04
7.900000e+08	3.757148e+13	0.000000e+00	7.886178e-01	5.002496e+14	6.613785e+14	5.488148e+13	9.504280e+03	5.702072e+03	3.700182e+03	0	9.522223e-04
8.000000e+08	3.707276e+13	0.000000e+00	7.886178e-01	4.943147e+14	6.540356e+14	5.462398e+13	9.479272e+03	5.690241e+03	3.692505e+03	0	9.479903e-04
8.100000e+08	3.658379e+13	0.000000e+00	7.886178e-01	4.884944e+14	6.468280e+14	5.436827e+13	9.454559e+03	5.678535e+03	3.684908e+03	0	9.438040e-04
8.200000e+08	3.610431e+13	0.000000e+00	7.886178e-01	4.827858e+14	6.397524e+14	5.411433e+13	9.430136e+03	5.666951e+03	3.677392e+03	0	9.396626e-04
8.300000e+08	3.563406e+13	0.000000e+00	7.886178e-01	4.771859e+14	6.328058e+14	5.386215e+13	9.405997e+03	5.655488e+03	3.669953e+03	0	9.355652e-04
8.400000e+08	3.517281e+13	0.000000e+00	7.886178e-01	4.716917e+14	6.259848e+14	5.361171e+13	9.382136e+03	5.644145e+03	3.662592e+03	0	9.315110e-04
8.500000e+08	3.472033e+13	0.000000e+00	7.886178e-01	4.663007e+14	6.192866e+14	5.336299e+13	9.358550e+03	5.632918e+03	3.655307e+03	0	9.274992e-04
8.600000e+08	3.427637e+13	0.000000e+00	7.886178e-01	4.610102e+14	6.127081e+14	5.311599e+13	9.335231e+03	5.621806e+03	3.648096e+03	0	9.235290e-04
8.700000e+08	3.384074e+13	0.000000e+00	7.886178e-01	4.558175e+14	6.062464e+14	5.287069e+13	9.312176e+03	5.610807e+03	3.640959e+03	0	9.195998e-04
8.800000e+08	3.341320e+13	0.000000e+00	7.886178e-01	4.507202e+14	5.998987e+14	5.262708e+13	9.289380e+03	5.599920e+03	3.633894e+03	0	9.157107e-04
8.900000e+08	3.299357e+13	0.000000e+00	7.886178e-01	4.457160e+14	5.936623e+14	5.238514e+13	9.266838e+03	5.589142e+03	3.626900e+03	0	9.118611e-04
9.000000e+08	3.258163e+13	0.000000e+00	7.886178e-01	4.408024e+14	5.875345e+14	5.214486e+13	9.244545e+03	5.578472e+03	3.619976e+03	0	9.080502e-04
9.100000e+08	3.217720e+13	0.000000e+00	7.886178e-01	4.359773e+14	5.815129e+14	5.190623e+13	9.222497e+03	5.567908e+03	3.613121e+03	0	9.042775e-04
9.200000e+08	3.178010e+13	0.000000e+00	7.886178e-01	4.312384e+14	5.755948e+14	5.166923e+13	9.200689e+03	5.557449e+03	3.606334e+03	0	9.005421e-04
9.300000e+08	3.139014e+13	0.000000e+00	7.886178e-01	4.265836e+14	5.697778e+14	5.143386e+13	9.179117e+03	5.547093e+03	3.599613e+03	0	8.968435e-04
9.400000e+08	3.100714e+13	0.000000e+00	7.886178e-01	4.220109e+14	5.640596e+14	5.120009e+13	9.157777e+03	5.536837e+03	3.592958e+03	0	8.931810e-04
9.500000e+08	3.063094e+13	0.000000e+00	7.886178e-01	4.175184e+14	5.584379e+14	5.096792e+13	9.136665e+03	5.526681e+03	3.586368e+03	0	8.895541e-04
9.600000e+08	3.026137e+13	0.000000e+00	7.886178e-01	4.131040e+14	5.529106e+14	5.073733e+13	9.115777e+03	5.516623e+03	3.579841e+03	0	8.859621e-04
9.700000e+08	2.989828e+13	0.000000e+00	7.886178e-01	4.087659e+14	5.474752e+14	5.050831e+13	9.095109e+03	5.506662e+03	3.573377e+03	0	8.824044e-04
9.800000e+08	2.954151e+13	0.000000e+00	7.886178e-01	4.045023e+14	5.421299e+14	5.028085e+13	9.074657e+03	5.496795e+03	3.566974e+03	0	8.788805e-04
9.900000e+08	2.919091e+13	0.000000e+00	7.886178e-01	4.003115e+14	5.368723e+14	5.005494e+13	9.054418e+03	5.487022e+03	3.560632e+03	0	8.753898e-04
1.000000e+09	2.884633e+13	0.000000e+00	7.886178e-01	3.961918e+14	5.317010e+14	4.983056e+13	9.034387e+03	5.477340e+03	3.554350e+03	0	8.719317e-04
1.010000e+09	2.850764e+13	0.000000e+00	7.886178e-01	3.921414e+14	5.266134e+14	4.960770e+13	9.014562e+03	5.467749e+03	3.548126e+03	0	8.685058e-04
1.020000e+09	2.817470e+13	0.000000e+00	7.886178e-01	3.881589e+14	5.216081e+14	4.938635e+13	8.994939e+03	5.458248e+03	3.541960e+03	0	8.651114e-04
1.030000e+09	2.784737e+13	0.000000e+00	7.886178e-01	3.842426e+14	5.166830e+14	4.916650e+13	8.975514e+03	5.448834e+03	3.535851e+03	0	8.617481e-04
1.040000e+09	2.752553e+13	0.000000e+00	7.886178e-01	3.803910e+14	5.118365e+14	4.894813e+13	8.956285e+03	5.439506e+03	3.529798e+03	0	8.584154e-04
1.050000e+09	2.720905e+13	0.000000e+00	7.886178e-01	3.766027e+14	5.070667e+14	4.873124e+13	8.937248e+03	5.430264e+03	3.523801e+03	0	8.551128e-04
1.060000e+09	2.689781e+13	0.000000e+00	7.886178e-01	3.728762e+14	5.023722e+14	4.851582e+13	8.918399e+03	5.421105e+03	3.517858e+03	0	8.518397e-04
1.070000e+09	2.659169e+13	0.000000e+00	7.886178e-01	3.692102e+14	4.977510e+14	4.830184e+13	8.899736e+03	5.412029e+03	3.511968e+03	0	8.485959e-04
1.080000e+09	2.629058e+13	0.000000e+00	7.886178e-01	3.656033e+14	4.932017e+14	4.808930e+13	8.881257e+03	5.403034e+03	3.506131e+03	0	8.453806e-04
1.090000e+09	2.599436e+13	0.000000e+00	7.886178e-01	3.620542e+14	4.887227e+14	4.787820e+13	8.862957e+03	5.394120e+03	3.500346e+03	0	8.421937e-04
1.100000e+09	2.570293e+13	0.000000e+00	7.886178e-01	3.585616e+14	4.843126e+14	4.766851e+13	8.844834e+03	5.385284e+03	3.494612e+03	0	8.390345e-04
1.110000e+09	2.541618e+13	0.000000e+00	7.886178e-01	3.551243e+14	4.799698e+14	4.746022e+13	8.826885e+03	5.376526e+03	3.488929e+03	0	8.359027e-04
1.120000e+09	2.513401e+13	0.000000e+00	7.886178e-01	3.517411e+14	4.756931e+14	4.725333e+13	8.809108e+03	5.367844e+03	3.483295e+03	0	8.327978e-04
1.130000e+09	2.485633e+13	0.000000e+00	7.886178e-01	3.484108e+14	4.714807e+14	4.704783e+13	8.791499e+03	5.359238e+03	3.477711e+03	0	8.297194e-04
1.140000e+09	2.458302e+13	0.000000e+00	7.886178e-01	3.451324e+14	4.673316e+14	4.684370e+13	8.774057e+03	5.350706e+03	3.472174e+03	0	8.266672e-04
1.150000e+09	2.431401e+13	0.000000e+00	7.886178e-01	3.419046e+14	4.632445e+14	4.664093e+13	8.756778e+03	5.342248e+03	3.466685e+03	0	8.236406e-04
1.160000e+09	2.404919e+13	0.000000e+00	7.886178e-01	3.387264e+14	4.592178e+14	4.643952e+13	8.739660e+03	5.333862e+03	3.461243e+03	0	8.206395e-04
1.170000e+09	2.378848e+13	0.000000e+00	7.886178e-01	3.355967e+14	4.552505e+14	4.623944e+13	8.722701e+03	5.325547e+03	3.455848e+03	0	8.176633e-04
1.180000e+09	2.353179e+13	0.000000e+00	7.886178e-01	3.325146e+14	4.513414e+14	4.604070e+13	8.705898e+03	5.317302e+03	3.450497e+03	0	8.147116e-04
1.190000e+09	2.327904e+13	0.000000e+00	7.886178e-01	3.294791e+14	4.474891e+14	4.584328e+13	8.689249e+03	5.309126e+03	3.445192e+03	0	8.117842e-04
1.200000e+09	2.303014e+13	0.000000e+00	7.886178e-01	3.264891e+14	4.436927e+14	4.564717e+13	8.672751e+03	5.301018e+03	3.439931e+03	0	8.088807e-04
1.210000e+09	2.278502e+13	0.000000e+00	7.886178e-01	3.235438e+14	4.399509e+14	4.545236e+13	8.656403e+03	5.292978e+03	3.434713e+03	0	8.060007e-04
1.220000e+09	2.254359e+13	0.000000e+00	7.886178e-01	3.206422e+14	4.362627e+14	4.525884e+13	8.640201e+03	5.285004e+03	3.429539e+03	0	8.031438e-04
1.230000e+09	2.230579e+13	0.000000e+00	7.886178e-01	3.177835e+14	4.326269e+14	4.506661e+13	8.624144e+03	5.277095e+03	3.424407e+03	0	8.003098e-04
1.240000e+09	2.207153e+13	0.000000e+00	7.886178e-01	3.149667e+14	4.290427e+14	4.487564e+13	8.608230e+03	5.269251e+03	3.419316e+03	0	7.974983e-04
1.250000e+09	2.184075e+13	0.000000e+00	7.886178e-01	3.121910e+14	4.255090e+14	4.468593e+13	8.592457e+03	5.261470e+03	3.414267e+03	0	7.947090e-04
1.260000e+09	2.161337e+13	0.000000e+00	7.886178e-01	3.094556e+14	4.220245e+14	4.449747e+13	8.576822e+03	5.253752e+03	3.409259e+03	0	7.919415e-04
1.270000e+09	2.138933e+13	0.000000e+00	7.886178e-01	3.067597e+14	4.185887e+14	4.431026e+13	8.561324e+03	5.246096e+03	3.404291e+03	0	7.891956e-04
1.280000e+09	2.116856e+13	0.000000e+00	7.886178e-01	3.041025e+14	4.152004e+14	4.412428e+13	8.545960e+03	5.238501e+03	3.399362e+03	0	7.864710e-04
1.290000e+09	2.095099e+13	0.000000e+00	7.886178e-01	3.014832e+14	4.118586e+14	4.393951e+13	8.530729e+03	5.230966e+03	3.394473e+03	0	7.837673e-04
1.300000e+09	2.073656e+13	0.000000e+00	7.886178e-01	2.989012e+14	4.085626e+14	4.375597e+13	8.515629e+03	5.223491e+03	3.389622e+03	0	7.810842e-04
1.310000e+09	2.052522e+13	0.000000e+00	7.886178e-01	2.963556e+14	4.053116e+14	4.357362e+13	8.500657e+03	5.216074e+03	3.384809e+03	0	7.784216e-04
1.320000e+09	2.031689e+13	0.000000e+00	7.886178e-01	2.938457e+14	4.021045e+14	4.339247e+13	8.485813e+03	5.208714e+03	3.380033e+03	0	7.757790e-04
1.330000e+09	2.011152e+13	0.000000e+00	7.886178e-01	2.913709e+14	3.989406e+14	4.321250e+13	8.471094e+03	5.201412e+03	3.375295e+03	0	7.731562e-04
1.340000e+09	1.990906e+13	0.000000e+00	7.886178e-01	2.889306e+14	3.958190e+14	4.303371e+13	8.456499e+03	5.194166e+03	3.370593e+03	0	7.705530e-04
1.350000e+09	1.970944e+13	0.000000e+00	7.886178e-01	2.865239e+14	3.927390e+14	4.285609e+13	8.442025e+03	5.186976e+03	3.365927e+03	0	7.679690e-04
1.360000e+09	1.951261e+13	0.000000e+00	7.886178e-01	2.841504e+14	3.896997e+14	4.267962e+13	8.427672e+03	5.179840e+03	3.361296e+03	0	7.654040e-04
