#t		Qconv[W]	Ri[Rp]		R*[Rp]		Qc[W]		Qm[W]		Qr[W]		Tcmb[K]		Tl[K]		Tup[K]		RiFlag		Bs[T]
0.000000e+00	7.855696e+11	0.000000e+00	7.950820e-01	7.270551e+13	5.949623e+13	8.963586e+13	7.043339e+03	3.171779e+03	2.526543e+03	0	2.604122e-04
1.000000e+07	7.928449e+11	0.000000e+00	7.950820e-01	7.275544e+13	6.076703e+13	8.913921e+13	7.040231e+03	3.181627e+03	2.534387e+03	0	2.612136e-04
2.000000e+07	7.995888e+11	0.000000e+00	7.950820e-01	7.279964e+13	6.203657e+13	8.864627e+13	7.037121e+03	3.191309e+03	2.542100e+03	0	2.619521e-04
3.000000e+07	8.058091e+11	0.000000e+00	7.950820e-01	7.283818e+13	6.330402e+13	8.815702e+13	7.034009e+03	3.200825e+03	2.549680e+03	0	2.626297e-04
4.000000e+07	8.115141e+11	0.000000e+00	7.950820e-01	7.287117e+13	6.456858e+13	8.767143e+13	7.030895e+03	3.210176e+03	2.557129e+03	0	2.632480e-04
5.000000e+07	8.167117e+11	0.000000e+00	7.950820e-01	7.289868e+13	6.582941e+13	8.718945e+13	7.027780e+03	3.219361e+03	2.564445e+03	0	2.638088e-04
6.000000e+07	8.214106e+11	0.000000e+00	7.950820e-01	7.292081e+13	6.708574e+13	8.671107e+13	7.024664e+03	3.228381e+03	2.571631e+03	0	2.643138e-04
7.000000e+07	8.256190e+11	0.000000e+00	7.950820e-01	7.293766e+13	6.833679e+13	8.623625e+13	7.021546e+03	3.237236e+03	2.578684e+03	0	2.647644e-04
8.000000e+07	8.293458e+11	0.000000e+00	7.950820e-01	7.294932e+13	6.958180e+13	8.576496e+13	7.018428e+03	3.245927e+03	2.585607e+03	0	2.651622e-04
9.000000e+07	8.325995e+11	0.000000e+00	7.950820e-01	7.295588e+13	7.082000e+13	8.529717e+13	7.015310e+03	3.254453e+03	2.592399e+03	0	2.655085e-04
1.000000e+08	8.353891e+11	0.000000e+00	7.950820e-01	7.295745e+13	7.205068e+13	8.483286e+13	7.012191e+03	3.262816e+03	2.599060e+03	0	2.658047e-04
1.100000e+08	8.377234e+11	0.000000e+00	7.950820e-01	7.295412e+13	7.327310e+13	8.437199e+13	7.009072e+03	3.271015e+03	2.605592e+03	0	2.660520e-04
1.200000e+08	8.396114e+11	0.000000e+00	7.950820e-01	7.294599e+13	7.448657e+13	8.391454e+13	7.005954e+03	3.279053e+03	2.611994e+03	0	2.662518e-04
1.300000e+08	8.410622e+11	0.000000e+00	7.950820e-01	7.293315e+13	7.569043e+13	8.346048e+13	7.002835e+03	3.286929e+03	2.618268e+03	0	2.664050e-04
1.400000e+08	8.420848e+11	0.000000e+00	7.950820e-01	7.291571e+13	7.688400e+13	8.300978e+13	6.999718e+03	3.294644e+03	2.624413e+03	0	2.665130e-04
1.500000e+08	8.426883e+11	0.000000e+00	7.950820e-01	7.289377e+13	7.806666e+13	8.256241e+13	6.996601e+03	3.302199e+03	2.630432e+03	0	2.665766e-04
1.600000e+08	8.428818e+11	0.000000e+00	7.950820e-01	7.286743e+13	7.923782e+13	8.211834e+13	6.993485e+03	3.309596e+03	2.636323e+03	0	2.665970e-04
1.700000e+08	8.426744e+11	0.000000e+00	7.950820e-01	7.283678e+13	8.039683e+13	8.167755e+13	6.990370e+03	3.316834e+03	2.642089e+03	0	2.665751e-04
1.800000e+08	8.420753e+11	0.000000e+00	7.950820e-01	7.280193e+13	8.154318e+13	8.124001e+13	6.987256e+03	3.323916e+03	2.647731e+03	0	2.665120e-04
1.900000e+08	8.410936e+11	0.000000e+00	7.950820e-01	7.276298e+13	8.267631e+13	8.080569e+13	6.984144e+03	3.330843e+03	2.653248e+03	0	2.664083e-04
2.000000e+08	8.397382e+11	0.000000e+00	7.950820e-01	7.272002e+13	8.379572e+13	8.037457e+13	6.981034e+03	3.337615e+03	2.658642e+03	0	2.662652e-04
2.100000e+08	8.380183e+11	0.000000e+00	7.950820e-01	7.267315e+13	8.490088e+13	7.994662e+13	6.977925e+03	3.344234e+03	2.663915e+03	0	2.660833e-04
2.200000e+08	8.359429e+11	0.000000e+00	7.950820e-01	7.262248e+13	8.599135e+13	7.952181e+13	6.974818e+03	3.350701e+03	2.669066e+03	0	2.658634e-04
2.300000e+08	8.335209e+11	0.000000e+00	7.950820e-01	7.256810e+13	8.706669e+13	7.910012e+13	6.971714e+03	3.357018e+03	2.674098e+03	0	2.656064e-04
2.400000e+08	8.307611e+11	0.000000e+00	7.950820e-01	7.251010e+13	8.812649e+13	7.868152e+13	6.968612e+03	3.363186e+03	2.679012e+03	0	2.653129e-04
2.500000e+08	8.276723e+11	0.000000e+00	7.950820e-01	7.244859e+13	8.917033e+13	7.826599e+13	6.965512e+03	3.369206e+03	2.683807e+03	0	2.649837e-04
2.600000e+08	8.242633e+11	0.000000e+00	7.950820e-01	7.238365e+13	9.019789e+13	7.785350e+13	6.962415e+03	3.375081e+03	2.688487e+03	0	2.646194e-04
2.700000e+08	8.205427e+11	0.000000e+00	7.950820e-01	7.231539e+13	9.120879e+13	7.744402e+13	6.959321e+03	3.380811e+03	2.693051e+03	0	2.642207e-04
2.800000e+08	8.165191e+11	0.000000e+00	7.950820e-01	7.224389e+13	9.220274e+13	7.703754e+13	6.956230e+03	3.386398e+03	2.697502e+03	0	2.637881e-04
2.900000e+08	8.122009e+11	0.000000e+00	7.950820e-01	7.216926e+13	9.317944e+13	7.663402e+13	6.953141e+03	3.391844e+03	2.701840e+03	0	2.633222e-04
3.000000e+08	8.075964e+11	0.000000e+00	7.950820e-01	7.209157e+13	9.413863e+13	7.623344e+13	6.950056e+03	3.397150e+03	2.706067e+03	0	2.628237e-04
3.100000e+08	8.027139e+11	0.000000e+00	7.950820e-01	7.201091e+13	9.508007e+13	7.583578e+13	6.946974e+03	3.402319e+03	2.710184e+03	0	2.622930e-04
3.200000e+08	7.975616e+11	0.000000e+00	7.950820e-01	7.192739e+13	9.600356e+13	7.544102e+13	6.943896e+03	3.407352e+03	2.714193e+03	0	2.617306e-04
3.300000e+08	7.921473e+11	0.000000e+00	7.950820e-01	7.184108e+13	9.690888e+13	7.504912e+13	6.940821e+03	3.412250e+03	2.718095e+03	0	2.611370e-04
3.400000e+08	7.864791e+11	0.000000e+00	7.950820e-01	7.175207e+13	9.779586e+13	7.466007e+13	6.937750e+03	3.417016e+03	2.721891e+03	0	2.605126e-04
3.500000e+08	7.805646e+11	0.000000e+00	7.950820e-01	7.166045e+13	9.866440e+13	7.427385e+13	6.934683e+03	3.421650e+03	2.725583e+03	0	2.598579e-04
3.600000e+08	7.744115e+11	0.000000e+00	7.950820e-01	7.156629e+13	9.951431e+13	7.389042e+13	6.931620e+03	3.426156e+03	2.729172e+03	0	2.591733e-04
3.700000e+08	7.680273e+11	0.000000e+00	7.950820e-01	7.146969e+13	1.003455e+14	7.350977e+13	6.928560e+03	3.430535e+03	2.732660e+03	0	2.584592e-04
3.800000e+08	7.614194e+11	0.000000e+00	7.950820e-01	7.137071e+13	1.011580e+14	7.313188e+13	6.925505e+03	3.434788e+03	2.736048e+03	0	2.577158e-04
3.900000e+08	7.545951e+11	0.000000e+00	7.950820e-01	7.126945e+13	1.019516e+14	7.275671e+13	6.922454e+03	3.438918e+03	2.739338e+03	0	2.569435e-04
4.000000e+08	7.475613e+11	0.000000e+00	7.950820e-01	7.116597e+13	1.027263e+14	7.238426e+13	6.919408e+03	3.442926e+03	2.742530e+03	0	2.561427e-04
4.100000e+08	7.403252e+11	0.000000e+00	7.950820e-01	7.106035e+13	1.034821e+14	7.201449e+13	6.916365e+03	3.446814e+03	2.745628e+03	0	2.553136e-04
4.200000e+08	7.328934e+11	0.000000e+00	7.950820e-01	7.095267e+13	1.042190e+14	7.164739e+13	6.913328e+03	3.450585e+03	2.748631e+03	0	2.544564e-04
4.300000e+08	7.252727e+11	0.000000e+00	7.950820e-01	7.084300e+13	1.049370e+14	7.128293e+13	6.910294e+03	3.454240e+03	2.751542e+03	0	2.535713e-04
4.400000e+08	7.174697e+11	0.000000e+00	7.950820e-01	7.073141e+13	1.056362e+14	7.092109e+13	6.907266e+03	3.457780e+03	2.754363e+03	0	2.526587e-04
4.500000e+08	7.094908e+11	0.000000e+00	7.950820e-01	7.061797e+13	1.063165e+14	7.056185e+13	6.904242e+03	3.461208e+03	2.757093e+03	0	2.517186e-04
4.600000e+08	7.013422e+11	0.000000e+00	7.950820e-01	7.050274e+13	1.069781e+14	7.020519e+13	6.901224e+03	3.464526e+03	2.759736e+03	0	2.507512e-04
4.700000e+08	6.930300e+11	0.000000e+00	7.950820e-01	7.038581e+13	1.076210e+14	6.985109e+13	6.898210e+03	3.467736e+03	2.762293e+03	0	2.497567e-04
4.800000e+08	6.845603e+11	0.000000e+00	7.950820e-01	7.026722e+13	1.082454e+14	6.949953e+13	6.895201e+03	3.470838e+03	2.764765e+03	0	2.487350e-04
4.900000e+08	6.759389e+11	0.000000e+00	7.950820e-01	7.014705e+13	1.088512e+14	6.915049e+13	6.892197e+03	3.473837e+03	2.767153e+03	0	2.476864e-04
5.000000e+08	6.671716e+11	0.000000e+00	7.950820e-01	7.002535e+13	1.094387e+14	6.880394e+13	6.889198e+03	3.476732e+03	2.769459e+03	0	2.466109e-04
5.100000e+08	6.582638e+11	0.000000e+00	7.950820e-01	6.990219e+13	1.100080e+14	6.845986e+13	6.886205e+03	3.479526e+03	2.771685e+03	0	2.455084e-04
5.200000e+08	6.492210e+11	0.000000e+00	7.950820e-01	6.977763e+13	1.105592e+14	6.811824e+13	6.883217e+03	3.482222e+03	2.773832e+03	0	2.443790e-04
5.300000e+08	6.400487e+11	0.000000e+00	7.950820e-01	6.965172e+13	1.110925e+14	6.777906e+13	6.880234e+03	3.484820e+03	2.775902e+03	0	2.432227e-04
5.400000e+08	6.307518e+11	0.000000e+00	7.950820e-01	6.952451e+13	1.116080e+14	6.744229e+13	6.877256e+03	3.487322e+03	2.777895e+03	0	2.420393e-04
5.500000e+08	6.213355e+11	0.000000e+00	7.950820e-01	6.939608e+13	1.121059e+14	6.710792e+13	6.874284e+03	3.489731e+03	2.779814e+03	0	2.408288e-04
5.600000e+08	6.118048e+11	0.000000e+00	7.950820e-01	6.926646e+13	1.125865e+14	6.677593e+13	6.871317e+03	3.492048e+03	2.781660e+03	0	2.395911e-04
5.700000e+08	6.021643e+11	0.000000e+00	7.950820e-01	6.913571e+13	1.130498e+14	6.644630e+13	6.868356e+03	3.494275e+03	2.783434e+03	0	2.383260e-04
5.800000e+08	5.924187e+11	0.000000e+00	7.950820e-01	6.900388e+13	1.134961e+14	6.611900e+13	6.865401e+03	3.496414e+03	2.785137e+03	0	2.370333e-04
5.900000e+08	5.825727e+11	0.000000e+00	7.950820e-01	6.887102e+13	1.139256e+14	6.579402e+13	6.862451e+03	3.498466e+03	2.786772e+03	0	2.357128e-04
6.000000e+08	5.726305e+11	0.000000e+00	7.950820e-01	6.873718e+13	1.143385e+14	6.547135e+13	6.859507e+03	3.500434e+03	2.788339e+03	0	2.343642e-04
6.100000e+08	5.625965e+11	0.000000e+00	7.950820e-01	6.860241e+13	1.147350e+14	6.515095e+13	6.856568e+03	3.502318e+03	2.789840e+03	0	2.329872e-04
6.200000e+08	5.524750e+11	0.000000e+00	7.950820e-01	6.846674e+13	1.151153e+14	6.483282e+13	6.853636e+03	3.504121e+03	2.791276e+03	0	2.315815e-04
6.300000e+08	5.422699e+11	0.000000e+00	7.950820e-01	6.833023e+13	1.154798e+14	6.451694e+13	6.850709e+03	3.505844e+03	2.792649e+03	0	2.301468e-04
6.400000e+08	5.319851e+11	0.000000e+00	7.950820e-01	6.819291e+13	1.158286e+14	6.420328e+13	6.847788e+03	3.507490e+03	2.793960e+03	0	2.286825e-04
6.500000e+08	5.216247e+11	0.000000e+00	7.950820e-01	6.805483e+13	1.161619e+14	6.389183e+13	6.844872e+03	3.509059e+03	2.795210e+03	0	2.271882e-04
6.600000e+08	5.111922e+11	0.000000e+00	7.950820e-01	6.791603e+13	1.164799e+14	6.358258e+13	6.841963e+03	3.510553e+03	2.796400e+03	0	2.256634e-04
6.700000e+08	5.006913e+11	0.000000e+00	7.950820e-01	6.777655e+13	1.167831e+14	6.327550e+13	6.839060e+03	3.511974e+03	2.797532e+03	0	2.241075e-04
6.800000e+08	4.901255e+11	0.000000e+00	7.950820e-01	6.763643e+13	1.170715e+14	6.297057e+13	6.836162e+03	3.513323e+03	2.798607e+03	0	2.225199e-04
6.900000e+08	4.794982e+11	0.000000e+00	7.950820e-01	6.749570e+13	1.173454e+14	6.266779e+13	6.833271e+03	3.514603e+03	2.799626e+03	0	2.208998e-04
7.000000e+08	4.688128e+11	0.000000e+00	7.950820e-01	6.735439e+13	1.176051e+14	6.236713e+13	6.830385e+03	3.515813e+03	2.800590e+03	0	2.192466e-04
7.100000e+08	4.580725e+11	0.000000e+00	7.950820e-01	6.721255e+13	1.178508e+14	6.206857e+13	6.827506e+03	3.516957e+03	2.801501e+03	0	2.175594e-04
7.200000e+08	4.472803e+11	0.000000e+00	7.950820e-01	6.707021e+13	1.180828e+14	6.177210e+13	6.824633e+03	3.518036e+03	2.802360e+03	0	2.158372e-04
7.300000e+08	4.364394e+11	0.000000e+00	7.950820e-01	6.692740e+13	1.183014e+14	6.147770e+13	6.821765e+03	3.519050e+03	2.803168e+03	0	2.140792e-04
7.400000e+08	4.255526e+11	0.000000e+00	7.950820e-01	6.678416e+13	1.185067e+14	6.118536e+13	6.818904e+03	3.520002e+03	2.803926e+03	0	2.122841e-04
7.500000e+08	4.146229e+11	0.000000e+00	7.950820e-01	6.664050e+13	1.186991e+14	6.089505e+13	6.816049e+03	3.520892e+03	2.804636e+03	0	2.104509e-04
7.600000e+08	4.036529e+11	0.000000e+00	7.950820e-01	6.649647e+13	1.188788e+14	6.060677e+13	6.813200e+03	3.521723e+03	2.805298e+03	0	2.085783e-04
7.700000e+08	3.926454e+11	0.000000e+00	7.950820e-01	6.635209e+13	1.190460e+14	6.032049e+13	6.810357e+03	3.522495e+03	2.805913e+03	0	2.066648e-04
7.800000e+08	3.816029e+11	0.000000e+00	7.950820e-01	6.620739e+13	1.192010e+14	6.003621e+13	6.807521e+03	3.523211e+03	2.806483e+03	0	2.047090e-04
7.900000e+08	3.705280e+11	0.000000e+00	7.950820e-01	6.606240e+13	1.193441e+14	5.975389e+13	6.804690e+03	3.523870e+03	2.807008e+03	0	2.027092e-04
8.000000e+08	3.594231e+11	0.000000e+00	7.950820e-01	6.591714e+13	1.194755e+14	5.947354e+13	6.801866e+03	3.524475e+03	2.807490e+03	0	2.006635e-04
8.100000e+08	3.482906e+11	0.000000e+00	7.950820e-01	6.577164e+13	1.195955e+14	5.919513e+13	6.799048e+03	3.525027e+03	2.807930e+03	0	1.985700e-04
8.200000e+08	3.371327e+11	0.000000e+00	7.950820e-01	6.562593e+13	1.197042e+14	5.891864e+13	6.796236e+03	3.525527e+03	2.808328e+03	0	1.964265e-04
8.300000e+08	3.259517e+11	0.000000e+00	7.950820e-01	6.548002e+13	1.198020e+14	5.864407e+13	6.793431e+03	3.525977e+03	2.808686e+03	0	1.942305e-04
8.400000e+08	3.147496e+11	0.000000e+00	7.950820e-01	6.533394e+13	1.198891e+14	5.837139e+13	6.790632e+03	3.526377e+03	2.809005e+03	0	1.919795e-04
8.500000e+08	3.035287e+11	0.000000e+00	7.950820e-01	6.518772e+13	1.199657e+14	5.810059e+13	6.787838e+03	3.526729e+03	2.809285e+03	0	1.896704e-04
8.600000e+08	2.922908e+11	0.000000e+00	7.950820e-01	6.504137e+13	1.200321e+14	5.783166e+13	6.785052e+03	3.527033e+03	2.809528e+03	0	1.873002e-04
8.700000e+08	2.810380e+11	0.000000e+00	7.950820e-01	6.489492e+13	1.200885e+14	5.756459e+13	6.782271e+03	3.527292e+03	2.809734e+03	0	1.848650e-04
8.800000e+08	2.697721e+11	0.000000e+00	7.950820e-01	6.474839e+13	1.201352e+14	5.729935e+13	6.779497e+03	3.527506e+03	2.809904e+03	0	1.823610e-04
8.900000e+08	2.584949e+11	0.000000e+00	7.950820e-01	6.460179e+13	1.201723e+14	5.703593e+13	6.776729e+03	3.527676e+03	2.810040e+03	0	1.797837e-04
9.000000e+08	2.472083e+11	0.000000e+00	7.950820e-01	6.445514e+13	1.202001e+14	5.677432e+13	6.773967e+03	3.527803e+03	2.810141e+03	0	1.771281e-04
9.100000e+08	2.359138e+11	0.000000e+00	7.950820e-01	6.430847e+13	1.202188e+14	5.651450e+13	6.771211e+03	3.527889e+03	2.810210e+03	0	1.743884e-04
9.200000e+08	2.246131e+11	0.000000e+00	7.950820e-01	6.416179e+13	1.202288e+14	5.625646e+13	6.768462e+03	3.527935e+03	2.810246e+03	0	1.715582e-04
9.300000e+08	2.133079e+11	0.000000e+00	7.950820e-01	6.401511e+13	1.202300e+14	5.600019e+13	6.765719e+03	3.527940e+03	2.810250e+03	0	1.686302e-04
9.400000e+08	2.019996e+11	0.000000e+00	7.950820e-01	6.386847e+13	1.202229e+14	5.574567e+13	6.762982e+03	3.527908e+03	2.810224e+03	0	1.655960e-04
9.500000e+08	1.906898e+11	0.000000e+00	7.950820e-01	6.372186e+13	1.202075e+14	5.549288e+13	6.760252e+03	3.527837e+03	2.810168e+03	0	1.624460e-04
9.600000e+08	1.793799e+11	0.000000e+00	7.950820e-01	6.357531e+13	1.201842e+14	5.524182e+13	6.757527e+03	3.527730e+03	2.810083e+03	0	1.591687e-04
9.700000e+08	1.680713e+11	0.000000e+00	7.950820e-01	6.342882e+13	1.201531e+14	5.499247e+13	6.754809e+03	3.527588e+03	2.809969e+03	0	1.557510e-04
9.800000e+08	1.567652e+11	0.000000e+00	7.950820e-01	6.328243e+13	1.201144e+14	5.474482e+13	6.752098e+03	3.527410e+03	2.809828e+03	0	1.521772e-04
9.900000e+08	1.454631e+11	0.000000e+00	7.950820e-01	6.313613e+13	1.200683e+14	5.449885e+13	6.749392e+03	3.527199e+03	2.809660e+03	0	1.484285e-04
1.000000e+09	1.341661e+11	0.000000e+00	7.950820e-01	6.298995e+13	1.200151e+14	5.425455e+13	6.746693e+03	3.526955e+03	2.809465e+03	0	1.444821e-04
1.010000e+09	1.228755e+11	0.000000e+00	7.950820e-01	6.284389e+13	1.199548e+14	5.401190e+13	6.744000e+03	3.526678e+03	2.809245e+03	0	1.403098e-04
1.020000e+09	1.115924e+11	0.000000e+00	7.950820e-01	6.269797e+13	1.198878e+14	5.377090e+13	6.741313e+03	3.526371e+03	2.809000e+03	0	1.358766e-04
1.030000e+09	1.003180e+11	0.000000e+00	7.950820e-01	6.255220e+13	1.198141e+14	5.353153e+13	6.738633e+03	3.526032e+03	2.808730e+03	0	1.311372e-04
1.040000e+09	8.905327e+10	0.000000e+00	7.950820e-01	6.240659e+13	1.197341e+14	5.329378e+13	6.735959e+03	3.525664e+03	2.808437e+03	0	1.260326e-04
1.050000e+09	7.779935e+10	0.000000e+00	7.950820e-01	6.226115e+13	1.196477e+14	5.305764e+13	6.733291e+03	3.525268e+03	2.808121e+03	0	1.204828e-04
1.060000e+09	6.655722e+10	0.000000e+00	7.950820e-01	6.211590e+13	1.195553e+14	5.282308e+13	6.730629e+03	3.524843e+03	2.807783e+03	0	1.143751e-04
1.070000e+09	5.532785e+10	0.000000e+00	7.950820e-01	6.197084e+13	1.194570e+14	5.259011e+13	6.727973e+03	3.524390e+03	2.807422e+03	0	1.075427e-04
1.080000e+09	4.411218e+10	0.000000e+00	7.950820e-01	6.182598e+13	1.193530e+14	5.235870e+13	6.725324e+03	3.523911e+03	2.807041e+03	0	9.972083e-05
1.090000e+09	3.291111e+10	0.000000e+00	7.950820e-01	6.168134e+13	1.192434e+14	5.212885e+13	6.722680e+03	3.523406e+03	2.806638e+03	0	9.044417e-05
1.100000e+09	2.172552e+10	0.000000e+00	7.950820e-01	6.153692e+13	1.191285e+14	5.190055e+13	6.720043e+03	3.522876e+03	2.806216e+03	0	7.875106e-05
1.110000e+09	1.055624e+10	0.000000e+00	7.950820e-01	6.139273e+13	1.190082e+14	5.167377e+13	6.717412e+03	3.522321e+03	2.805774e+03	0	6.191123e-05
1.120000e+09	-5.959196e+08	0.000000e+00	7.950820e-01	6.124878e+13	1.188829e+14	5.144852e+13	6.714788e+03	3.521742e+03	2.805313e+03	0	nan
