#t		Qconv[W]	Ri[Rp]		R*[Rp]		Qc[W]		Qm[W]		Qr[W]		Tcmb[K]		Tl[K]		Tup[K]		RiFlag		Bs[T]
0.000000e+00	2.440365e+12	0.000000e+00	7.933887e-01	1.537721e+14	5.953862e+13	1.143310e+14	8.604722e+03	3.420503e+03	2.616330e+03	0	3.753955e-04
1.000000e+07	2.473535e+12	0.000000e+00	7.933887e-01	1.540122e+14	6.150081e+13	1.136975e+14	8.599895e+03	3.436426e+03	2.628510e+03	0	3.770887e-04
2.000000e+07	2.505169e+12	0.000000e+00	7.933887e-01	1.542376e+14	6.348905e+13	1.130688e+14	8.595060e+03	3.452168e+03	2.640551e+03	0	3.786894e-04
3.000000e+07	2.535274e+12	0.000000e+00	7.933887e-01	1.544484e+14	6.550208e+13	1.124447e+14	8.590217e+03	3.467725e+03	2.652450e+03	0	3.802003e-04
4.000000e+07	2.563855e+12	0.000000e+00	7.933887e-01	1.546448e+14	6.753863e+13	1.118253e+14	8.585368e+03	3.483095e+03	2.664206e+03	0	3.816237e-04
5.000000e+07	2.590922e+12	0.000000e+00	7.933887e-01	1.548267e+14	6.959733e+13	1.112106e+14	8.580513e+03	3.498275e+03	2.675818e+03	0	3.829619e-04
6.000000e+07	2.616483e+12	0.000000e+00	7.933887e-01	1.549943e+14	7.167682e+13	1.106004e+14	8.575653e+03	3.513263e+03	2.687282e+03	0	3.842172e-04
7.000000e+07	2.640549e+12	0.000000e+00	7.933887e-01	1.551478e+14	7.377567e+13	1.099948e+14	8.570787e+03	3.528057e+03	2.698598e+03	0	3.853916e-04
8.000000e+07	2.663131e+12	0.000000e+00	7.933887e-01	1.552871e+14	7.589243e+13	1.093936e+14	8.565916e+03	3.542654e+03	2.709763e+03	0	3.864871e-04
9.000000e+07	2.684241e+12	0.000000e+00	7.933887e-01	1.554125e+14	7.802556e+13	1.087970e+14	8.561041e+03	3.557053e+03	2.720777e+03	0	3.875056e-04
1.000000e+08	2.703892e+12	0.000000e+00	7.933887e-01	1.555240e+14	8.017356e+13	1.082047e+14	8.556161e+03	3.571251e+03	2.731637e+03	0	3.884490e-04
1.100000e+08	2.722099e+12	0.000000e+00	7.933887e-01	1.556218e+14	8.233489e+13	1.076169e+14	8.551279e+03	3.585247e+03	2.742343e+03	0	3.893189e-04
1.200000e+08	2.738876e+12	0.000000e+00	7.933887e-01	1.557061e+14	8.450793e+13	1.070334e+14	8.546393e+03	3.599039e+03	2.752892e+03	0	3.901171e-04
1.300000e+08	2.754240e+12	0.000000e+00	7.933887e-01	1.557770e+14	8.669112e+13	1.064543e+14	8.541505e+03	3.612626e+03	2.763284e+03	0	3.908452e-04
1.400000e+08	2.768207e+12	0.000000e+00	7.933887e-01	1.558347e+14	8.888283e+13	1.058794e+14	8.536614e+03	3.626005e+03	2.773518e+03	0	3.915047e-04
1.500000e+08	2.780794e+12	0.000000e+00	7.933887e-01	1.558793e+14	9.108143e+13	1.053088e+14	8.531722e+03	3.639176e+03	2.783593e+03	0	3.920972e-04
1.600000e+08	2.792021e+12	0.000000e+00	7.933887e-01	1.559110e+14	9.328527e+13	1.047424e+14	8.526828e+03	3.652138e+03	2.793507e+03	0	3.926242e-04
1.700000e+08	2.801905e+12	0.000000e+00	7.933887e-01	1.559300e+14	9.549275e+13	1.041801e+14	8.521934e+03	3.664890e+03	2.803261e+03	0	3.930869e-04
1.800000e+08	2.810466e+12	0.000000e+00	7.933887e-01	1.559365e+14	9.770220e+13	1.036220e+14	8.517038e+03	3.677430e+03	2.812853e+03	0	3.934869e-04
1.900000e+08	2.817726e+12	0.000000e+00	7.933887e-01	1.559307e+14	9.991199e+13	1.030681e+14	8.512143e+03	3.689759e+03	2.822283e+03	0	3.938254e-04
2.000000e+08	2.823704e+12	0.000000e+00	7.933887e-01	1.559128e+14	1.021205e+14	1.025182e+14	8.507247e+03	3.701874e+03	2.831550e+03	0	3.941037e-04
2.100000e+08	2.828422e+12	0.000000e+00	7.933887e-01	1.558830e+14	1.043261e+14	1.019723e+14	8.502353e+03	3.713777e+03	2.840655e+03	0	3.943231e-04
2.200000e+08	2.831902e+12	0.000000e+00	7.933887e-01	1.558416e+14	1.065272e+14	1.014305e+14	8.497459e+03	3.725466e+03	2.849596e+03	0	3.944848e-04
2.300000e+08	2.834166e+12	0.000000e+00	7.933887e-01	1.557886e+14	1.087222e+14	1.008926e+14	8.492566e+03	3.736942e+03	2.858374e+03	0	3.945899e-04
2.400000e+08	2.835237e+12	0.000000e+00	7.933887e-01	1.557245e+14	1.109096e+14	1.003587e+14	8.487675e+03	3.748205e+03	2.866988e+03	0	3.946396e-04
2.500000e+08	2.835139e+12	0.000000e+00	7.933887e-01	1.556493e+14	1.130878e+14	9.982866e+13	8.482787e+03	3.759253e+03	2.875439e+03	0	3.946350e-04
2.600000e+08	2.833894e+12	0.000000e+00	7.933887e-01	1.555633e+14	1.152553e+14	9.930253e+13	8.477900e+03	3.770089e+03	2.883727e+03	0	3.945772e-04
2.700000e+08	2.831526e+12	0.000000e+00	7.933887e-01	1.554667e+14	1.174106e+14	9.878024e+13	8.473016e+03	3.780711e+03	2.891853e+03	0	3.944673e-04
2.800000e+08	2.828060e+12	0.000000e+00	7.933887e-01	1.553598e+14	1.195523e+14	9.826177e+13	8.468136e+03	3.791122e+03	2.899815e+03	0	3.943063e-04
2.900000e+08	2.823519e+12	0.000000e+00	7.933887e-01	1.552428e+14	1.216790e+14	9.774708e+13	8.463258e+03	3.801320e+03	2.907616e+03	0	3.940951e-04
3.000000e+08	2.817928e+12	0.000000e+00	7.933887e-01	1.551160e+14	1.237893e+14	9.723614e+13	8.458385e+03	3.811307e+03	2.915255e+03	0	3.938348e-04
3.100000e+08	2.811311e+12	0.000000e+00	7.933887e-01	1.549795e+14	1.258818e+14	9.672892e+13	8.453515e+03	3.821084e+03	2.922733e+03	0	3.935264e-04
3.200000e+08	2.803694e+12	0.000000e+00	7.933887e-01	1.548336e+14	1.279554e+14	9.622540e+13	8.448649e+03	3.830651e+03	2.930051e+03	0	3.931706e-04
3.300000e+08	2.795100e+12	0.000000e+00	7.933887e-01	1.546786e+14	1.300087e+14	9.572553e+13	8.443788e+03	3.840010e+03	2.937210e+03	0	3.927685e-04
3.400000e+08	2.785554e+12	0.000000e+00	7.933887e-01	1.545146e+14	1.320406e+14	9.522930e+13	8.438932e+03	3.849162e+03	2.944210e+03	0	3.923208e-04
3.500000e+08	2.775081e+12	0.000000e+00	7.933887e-01	1.543420e+14	1.340498e+14	9.473666e+13	8.434082e+03	3.858109e+03	2.951053e+03	0	3.918285e-04
3.600000e+08	2.763705e+12	0.000000e+00	7.933887e-01	1.541609e+14	1.360354e+14	9.424760e+13	8.429236e+03	3.866850e+03	2.957740e+03	0	3.912924e-04
3.700000e+08	2.751452e+12	0.000000e+00	7.933887e-01	1.539716e+14	1.379962e+14	9.376208e+13	8.424396e+03	3.875389e+03	2.964271e+03	0	3.907132e-04
3.800000e+08	2.738344e+12	0.000000e+00	7.933887e-01	1.537744e+14	1.399314e+14	9.328007e+13	8.419563e+03	3.883727e+03	2.970649e+03	0	3.900918e-04
3.900000e+08	2.724406e+12	0.000000e+00	7.933887e-01	1.535694e+14	1.418398e+14	9.280155e+13	8.414735e+03	3.891865e+03	2.976873e+03	0	3.894289e-04
4.000000e+08	2.709663e+12	0.000000e+00	7.933887e-01	1.533568e+14	1.437207e+14	9.232648e+13	8.409914e+03	3.899804e+03	2.982946e+03	0	3.887251e-04
4.100000e+08	2.694139e+12	0.000000e+00	7.933887e-01	1.531370e+14	1.455733e+14	9.185484e+13	8.405099e+03	3.907548e+03	2.988869e+03	0	3.879813e-04
4.200000e+08	2.677856e+12	0.000000e+00	7.933887e-01	1.529102e+14	1.473966e+14	9.138660e+13	8.400291e+03	3.915098e+03	2.994644e+03	0	3.871981e-04
4.300000e+08	2.660838e+12	0.000000e+00	7.933887e-01	1.526765e+14	1.491900e+14	9.092173e+13	8.395491e+03	3.922455e+03	3.000272e+03	0	3.863762e-04
4.400000e+08	2.643109e+12	0.000000e+00	7.933887e-01	1.524362e+14	1.509529e+14	9.046020e+13	8.390698e+03	3.929622e+03	3.005754e+03	0	3.855161e-04
4.500000e+08	2.624691e+12	0.000000e+00	7.933887e-01	1.521895e+14	1.526845e+14	9.000200e+13	8.385912e+03	3.936602e+03	3.011092e+03	0	3.846185e-04
4.600000e+08	2.605606e+12	0.000000e+00	7.933887e-01	1.519366e+14	1.543844e+14	8.954708e+13	8.381134e+03	3.943395e+03	3.016289e+03	0	3.836841e-04
4.700000e+08	2.585878e+12	0.000000e+00	7.933887e-01	1.516777e+14	1.560519e+14	8.909542e+13	8.376364e+03	3.950005e+03	3.021344e+03	0	3.827132e-04
4.800000e+08	2.565527e+12	0.000000e+00	7.933887e-01	1.514131e+14	1.576867e+14	8.864700e+13	8.371602e+03	3.956433e+03	3.026261e+03	0	3.817066e-04
4.900000e+08	2.544575e+12	0.000000e+00	7.933887e-01	1.511430e+14	1.592883e+14	8.820179e+13	8.366849e+03	3.962683e+03	3.031042e+03	0	3.806647e-04
5.000000e+08	2.523045e+12	0.000000e+00	7.933887e-01	1.508675e+14	1.608564e+14	8.775976e+13	8.362104e+03	3.968755e+03	3.035687e+03	0	3.795880e-04
5.100000e+08	2.500955e+12	0.000000e+00	7.933887e-01	1.505869e+14	1.623905e+14	8.732090e+13	8.357367e+03	3.974654e+03	3.040199e+03	0	3.784770e-04
5.200000e+08	2.478327e+12	0.000000e+00	7.933887e-01	1.503013e+14	1.638906e+14	8.688516e+13	8.352640e+03	3.980381e+03	3.044579e+03	0	3.773321e-04
5.300000e+08	2.455181e+12	0.000000e+00	7.933887e-01	1.500109e+14	1.653562e+14	8.645253e+13	8.347921e+03	3.985939e+03	3.048830e+03	0	3.761537e-04
5.400000e+08	2.431537e+12	0.000000e+00	7.933887e-01	1.497160e+14	1.667873e+14	8.602298e+13	8.343211e+03	3.991330e+03	3.052954e+03	0	3.749423e-04
5.500000e+08	2.407414e+12	0.000000e+00	7.933887e-01	1.494167e+14	1.681836e+14	8.559649e+13	8.338511e+03	3.996557e+03	3.056952e+03	0	3.736983e-04
5.600000e+08	2.382830e+12	0.000000e+00	7.933887e-01	1.491132e+14	1.695452e+14	8.517303e+13	8.333820e+03	4.001622e+03	3.060827e+03	0	3.724219e-04
5.700000e+08	2.357804e+12	0.000000e+00	7.933887e-01	1.488057e+14	1.708719e+14	8.475258e+13	8.329139e+03	4.006529e+03	3.064579e+03	0	3.711135e-04
5.800000e+08	2.332354e+12	0.000000e+00	7.933887e-01	1.484943e+14	1.721638e+14	8.433511e+13	8.324467e+03	4.011279e+03	3.068213e+03	0	3.697734e-04
5.900000e+08	2.306498e+12	0.000000e+00	7.933887e-01	1.481792e+14	1.734207e+14	8.392060e+13	8.319805e+03	4.015875e+03	3.071728e+03	0	3.684019e-04
6.000000e+08	2.280254e+12	0.000000e+00	7.933887e-01	1.478606e+14	1.746430e+14	8.350903e+13	8.315153e+03	4.020320e+03	3.075128e+03	0	3.669993e-04
6.100000e+08	2.253637e+12	0.000000e+00	7.933887e-01	1.475386e+14	1.758304e+14	8.310036e+13	8.310511e+03	4.024617e+03	3.078415e+03	0	3.655657e-04
6.200000e+08	2.226664e+12	0.000000e+00	7.933887e-01	1.472134e+14	1.769833e+14	8.269459e+13	8.305879e+03	4.028767e+03	3.081589e+03	0	3.641014e-04
6.300000e+08	2.199352e+12	0.000000e+00	7.933887e-01	1.468852e+14	1.781018e+14	8.229168e+13	8.301257e+03	4.032774e+03	3.084655e+03	0	3.626066e-04
6.400000e+08	2.171715e+12	0.000000e+00	7.933887e-01	1.465540e+14	1.791861e+14	8.189161e+13	8.296645e+03	4.036641e+03	3.087612e+03	0	3.610814e-04
6.500000e+08	2.143770e+12	0.000000e+00	7.933887e-01	1.462201e+14	1.802363e+14	8.149435e+13	8.292044e+03	4.040370e+03	3.090464e+03	0	3.595259e-04
6.600000e+08	2.115530e+12	0.000000e+00	7.933887e-01	1.458836e+14	1.812527e+14	8.109990e+13	8.287453e+03	4.043963e+03	3.093212e+03	0	3.579403e-04
6.700000e+08	2.087011e+12	0.000000e+00	7.933887e-01	1.455446e+14	1.822356e+14	8.070821e+13	8.282873e+03	4.047423e+03	3.095859e+03	0	3.563245e-04
6.800000e+08	2.058226e+12	0.000000e+00	7.933887e-01	1.452033e+14	1.831853e+14	8.031928e+13	8.278304e+03	4.050753e+03	3.098406e+03	0	3.546787e-04
6.900000e+08	2.029188e+12	0.000000e+00	7.933887e-01	1.448597e+14	1.841020e+14	7.993308e+13	8.273745e+03	4.053955e+03	3.100856e+03	0	3.530029e-04
7.000000e+08	1.999912e+12	0.000000e+00	7.933887e-01	1.445140e+14	1.849862e+14	7.954958e+13	8.269197e+03	4.057032e+03	3.103209e+03	0	3.512970e-04
7.100000e+08	1.970410e+12	0.000000e+00	7.933887e-01	1.441664e+14	1.858381e+14	7.916877e+13	8.264660e+03	4.059987e+03	3.105469e+03	0	3.495611e-04
7.200000e+08	1.940694e+12	0.000000e+00	7.933887e-01	1.438169e+14	1.866582e+14	7.879062e+13	8.260134e+03	4.062821e+03	3.107637e+03	0	3.477949e-04
7.300000e+08	1.910777e+12	0.000000e+00	7.933887e-01	1.434657e+14	1.874468e+14	7.841512e+13	8.255618e+03	4.065538e+03	3.109716e+03	0	3.459985e-04
7.400000e+08	1.880670e+12	0.000000e+00	7.933887e-01	1.431128e+14	1.882044e+14	7.804223e+13	8.251114e+03	4.068140e+03	3.111706e+03	0	3.441716e-04
7.500000e+08	1.850385e+12	0.000000e+00	7.933887e-01	1.427585e+14	1.889312e+14	7.767194e+13	8.246621e+03	4.070629e+03	3.113610e+03	0	3.423141e-04
7.600000e+08	1.819932e+12	0.000000e+00	7.933887e-01	1.424027e+14	1.896278e+14	7.730424e+13	8.242139e+03	4.073008e+03	3.115429e+03	0	3.404259e-04
7.700000e+08	1.789323e+12	0.000000e+00	7.933887e-01	1.420456e+14	1.902947e+14	7.693909e+13	8.237668e+03	4.075279e+03	3.117166e+03	0	3.385066e-04
7.800000e+08	1.758568e+12	0.000000e+00	7.933887e-01	1.416873e+14	1.909322e+14	7.657648e+13	8.233208e+03	4.077445e+03	3.118823e+03	0	3.365559e-04
7.900000e+08	1.727676e+12	0.000000e+00	7.933887e-01	1.413279e+14	1.915408e+14	7.621639e+13	8.228760e+03	4.079507e+03	3.120400e+03	0	3.345736e-04
8.000000e+08	1.696658e+12	0.000000e+00	7.933887e-01	1.409674e+14	1.921211e+14	7.585880e+13	8.224322e+03	4.081469e+03	3.121901e+03	0	3.325592e-04
8.100000e+08	1.665523e+12	0.000000e+00	7.933887e-01	1.406061e+14	1.926734e+14	7.550368e+13	8.219896e+03	4.083332e+03	3.123326e+03	0	3.305124e-04
8.200000e+08	1.634280e+12	0.000000e+00	7.933887e-01	1.402438e+14	1.931982e+14	7.515102e+13	8.215482e+03	4.085098e+03	3.124677e+03	0	3.284327e-04
8.300000e+08	1.602939e+12	0.000000e+00	7.933887e-01	1.398809e+14	1.936960e+14	7.480080e+13	8.211079e+03	4.086771e+03	3.125956e+03	0	3.263196e-04
8.400000e+08	1.571506e+12	0.000000e+00	7.933887e-01	1.395172e+14	1.941674e+14	7.445300e+13	8.206687e+03	4.088351e+03	3.127165e+03	0	3.241725e-04
8.500000e+08	1.539991e+12	0.000000e+00	7.933887e-01	1.391529e+14	1.946128e+14	7.410760e+13	8.202306e+03	4.089842e+03	3.128306e+03	0	3.219909e-04
8.600000e+08	1.508402e+12	0.000000e+00	7.933887e-01	1.387881e+14	1.950327e+14	7.376458e+13	8.197937e+03	4.091245e+03	3.129379e+03	0	3.197741e-04
8.700000e+08	1.476747e+12	0.000000e+00	7.933887e-01	1.384229e+14	1.954276e+14	7.342392e+13	8.193580e+03	4.092563e+03	3.130387e+03	0	3.175213e-04
8.800000e+08	1.445032e+12	0.000000e+00	7.933887e-01	1.380572e+14	1.957980e+14	7.308560e+13	8.189234e+03	4.093797e+03	3.131331e+03	0	3.152318e-04
8.900000e+08	1.413265e+12	0.000000e+00	7.933887e-01	1.376913e+14	1.961444e+14	7.274961e+13	8.184899e+03	4.094950e+03	3.132212e+03	0	3.129046e-04
9.000000e+08	1.381453e+12	0.000000e+00	7.933887e-01	1.373251e+14	1.964674e+14	7.241592e+13	8.180576e+03	4.096023e+03	3.133033e+03	0	3.105390e-04
9.100000e+08	1.349602e+12	0.000000e+00	7.933887e-01	1.369587e+14	1.967673e+14	7.208453e+13	8.176264e+03	4.097018e+03	3.133794e+03	0	3.081338e-04
9.200000e+08	1.317719e+12	0.000000e+00	7.933887e-01	1.365922e+14	1.970447e+14	7.175540e+13	8.171964e+03	4.097938e+03	3.134498e+03	0	3.056881e-04
9.300000e+08	1.285811e+12	0.000000e+00	7.933887e-01	1.362256e+14	1.973001e+14	7.142852e+13	8.167675e+03	4.098783e+03	3.135145e+03	0	3.032005e-04
9.400000e+08	1.253883e+12	0.000000e+00	7.933887e-01	1.358590e+14	1.975340e+14	7.110388e+13	8.163398e+03	4.099557e+03	3.135737e+03	0	3.006698e-04
9.500000e+08	1.221941e+12	0.000000e+00	7.933887e-01	1.354924e+14	1.977468e+14	7.078145e+13	8.159133e+03	4.100261e+03	3.136275e+03	0	2.980947e-04
9.600000e+08	1.189990e+12	0.000000e+00	7.933887e-01	1.351259e+14	1.979392e+14	7.046122e+13	8.154878e+03	4.100896e+03	3.136761e+03	0	2.954736e-04
9.700000e+08	1.158037e+12	0.000000e+00	7.933887e-01	1.347596e+14	1.981114e+14	7.014317e+13	8.150636e+03	4.101465e+03	3.137196e+03	0	2.928049e-04
9.800000e+08	1.126085e+12	0.000000e+00	7.933887e-01	1.343935e+14	1.982641e+14	6.982729e+13	8.146405e+03	4.101969e+03	3.137581e+03	0	2.900868e-04
9.900000e+08	1.094141e+12	0.000000e+00	7.933887e-01	1.340276e+14	1.983976e+14	6.951355e+13	8.142185e+03	4.102409e+03	3.137918e+03	0	2.873174e-04
1.000000e+09	1.062209e+12	0.000000e+00	7.933887e-01	1.336620e+14	1.985125e+14	6.920195e+13	8.137977e+03	4.102788e+03	3.138207e+03	0	2.844946e-04
1.010000e+09	1.030293e+12	0.000000e+00	7.933887e-01	1.332967e+14	1.986093e+14	6.889245e+13	8.133780e+03	4.103106e+03	3.138451e+03	0	2.816162e-04
1.020000e+09	9.983975e+11	0.000000e+00	7.933887e-01	1.329318e+14	1.986882e+14	6.858506e+13	8.129595e+03	4.103366e+03	3.138650e+03	0	2.786797e-04
1.030000e+09	9.665277e+11	0.000000e+00	7.933887e-01	1.325673e+14	1.987499e+14	6.827974e+13	8.125421e+03	4.103570e+03	3.138806e+03	0	2.756823e-04
1.040000e+09	9.346871e+11	0.000000e+00	7.933887e-01	1.322033e+14	1.987948e+14	6.797649e+13	8.121258e+03	4.103717e+03	3.138918e+03	0	2.726212e-04
1.050000e+09	9.028799e+11	0.000000e+00	7.933887e-01	1.318397e+14	1.988233e+14	6.767528e+13	8.117107e+03	4.103811e+03	3.138990e+03	0	2.694930e-04
1.060000e+09	8.711097e+11	0.000000e+00	7.933887e-01	1.314767e+14	1.988358e+14	6.737611e+13	8.112968e+03	4.103852e+03	3.139022e+03	0	2.662942e-04
1.070000e+09	8.393801e+11	0.000000e+00	7.933887e-01	1.311143e+14	1.988327e+14	6.707895e+13	8.108839e+03	4.103842e+03	3.139014e+03	0	2.630210e-04
1.080000e+09	8.076948e+11	0.000000e+00	7.933887e-01	1.307524e+14	1.988145e+14	6.678379e+13	8.104723e+03	4.103782e+03	3.138968e+03	0	2.596689e-04
1.090000e+09	7.760570e+11	0.000000e+00	7.933887e-01	1.303911e+14	1.987816e+14	6.649061e+13	8.100617e+03	4.103674e+03	3.138885e+03	0	2.562332e-04
1.100000e+09	7.444700e+11	0.000000e+00	7.933887e-01	1.300305e+14	1.987344e+14	6.619941e+13	8.096523e+03	4.103519e+03	3.138766e+03	0	2.527085e-04
1.110000e+09	7.129369e+11	0.000000e+00	7.933887e-01	1.296706e+14	1.986733e+14	6.591015e+13	8.092440e+03	4.103317e+03	3.138613e+03	0	2.490890e-04
1.120000e+09	6.814606e+11	0.000000e+00	7.933887e-01	1.293114e+14	1.985987e+14	6.562284e+13	8.088368e+03	4.103071e+03	3.138425e+03	0	2.453679e-04
1.130000e+09	6.500440e+11	0.000000e+00	7.933887e-01	1.289529e+14	1.985109e+14	6.533745e+13	8.084308e+03	4.102782e+03	3.138203e+03	0	2.415378e-04
1.140000e+09	6.186898e+11	0.000000e+00	7.933887e-01	1.285952e+14	1.984104e+14	6.505396e+13	8.080259e+03	4.102451e+03	3.137950e+03	0	2.375902e-04
1.150000e+09	5.874006e+11	0.000000e+00	7.933887e-01	1.282383e+14	1.982975e+14	6.477237e+13	8.076221e+03	4.102079e+03	3.137665e+03	0	2.335155e-04
1.160000e+09	5.561789e+11	0.000000e+00	7.933887e-01	1.278821e+14	1.981725e+14	6.449266e+13	8.072195e+03	4.101667e+03	3.137350e+03	0	2.293026e-04
1.170000e+09	5.250272e+11	0.000000e+00	7.933887e-01	1.275268e+14	1.980359e+14	6.421481e+13	8.068179e+03	4.101216e+03	3.137005e+03	0	2.249390e-04
1.180000e+09	4.939476e+11	0.000000e+00	7.933887e-01	1.271724e+14	1.978879e+14	6.393880e+13	8.064175e+03	4.100727e+03	3.136631e+03	0	2.204099e-04
1.190000e+09	4.629424e+11	0.000000e+00	7.933887e-01	1.268188e+14	1.977290e+14	6.366464e+13	8.060182e+03	4.100202e+03	3.136230e+03	0	2.156982e-04
1.200000e+09	4.320138e+11	0.000000e+00	7.933887e-01	1.264661e+14	1.975594e+14	6.339229e+13	8.056200e+03	4.099642e+03	3.135801e+03	0	2.107835e-04
1.210000e+09	4.011636e+11	0.000000e+00	7.933887e-01	1.261144e+14	1.973795e+14	6.312175e+13	8.052229e+03	4.099046e+03	3.135346e+03	0	2.056418e-04
1.220000e+09	3.703938e+11	0.000000e+00	7.933887e-01	1.257635e+14	1.971896e+14	6.285300e+13	8.048269e+03	4.098418e+03	3.134865e+03	0	2.002436e-04
1.230000e+09	3.397062e+11	0.000000e+00	7.933887e-01	1.254136e+14	1.969901e+14	6.258603e+13	8.044320e+03	4.097757e+03	3.134359e+03	0	1.945533e-04
1.240000e+09	3.091026e+11	0.000000e+00	7.933887e-01	1.250647e+14	1.967811e+14	6.232083e+13	8.040382e+03	4.097064e+03	3.133829e+03	0	1.885262e-04
1.250000e+09	2.785846e+11	0.000000e+00	7.933887e-01	1.247167e+14	1.965630e+14	6.205737e+13	8.036455e+03	4.096340e+03	3.133276e+03	0	1.821056e-04
1.260000e+09	2.481538e+11	0.000000e+00	7.933887e-01	1.243697e+14	1.963362e+14	6.179565e+13	8.032538e+03	4.095587e+03	3.132699e+03	0	1.752176e-04
1.270000e+09	2.178117e+11	0.000000e+00	7.933887e-01	1.240238e+14	1.961008e+14	6.153566e+13	8.028633e+03	4.094804e+03	3.132101e+03	0	1.677637e-04
1.280000e+09	1.875597e+11	0.000000e+00	7.933887e-01	1.236788e+14	1.958572e+14	6.127738e+13	8.024739e+03	4.093994e+03	3.131481e+03	0	1.596065e-04
1.290000e+09	1.573992e+11	0.000000e+00	7.933887e-01	1.233349e+14	1.956057e+14	6.102079e+13	8.020855e+03	4.093156e+03	3.130840e+03	0	1.505468e-04
1.300000e+09	1.273314e+11	0.000000e+00	7.933887e-01	1.229920e+14	1.953464e+14	6.076589e+13	8.016982e+03	4.092292e+03	3.130180e+03	0	1.402758e-04
1.310000e+09	9.735770e+10	0.000000e+00	7.933887e-01	1.226502e+14	1.950797e+14	6.051266e+13	8.013120e+03	4.091402e+03	3.129499e+03	0	1.282707e-04
1.320000e+09	6.747913e+10	0.000000e+00	7.933887e-01	1.223094e+14	1.948059e+14	6.026108e+13	8.009269e+03	4.090488e+03	3.128799e+03	0	1.135169e-04
1.330000e+09	3.769681e+10	0.000000e+00	7.933887e-01	1.219697e+14	1.945252e+14	6.001116e+13	8.005428e+03	4.089549e+03	3.128081e+03	0	9.349155e-05
1.340000e+09	8.011788e+09	0.000000e+00	7.933887e-01	1.216311e+14	1.942377e+14	5.976286e+13	8.001598e+03	4.088587e+03	3.127345e+03	0	5.579312e-05
1.350000e+09	-2.157496e+10	0.000000e+00	7.933887e-01	1.212935e+14	1.939438e+14	5.951619e+13	7.997779e+03	4.087602e+03	3.126592e+03	0	nan
