#t		Qconv[W]	Ri[Rp]		R*[Rp]		Qc[W]		Qm[W]		Qr[W]		Tcmb[K]		Tl[K]		Tup[K]		RiFlag		Bs[T]
0.000000e+00	3.836992e+14	0.000000e+00	7.851238e-01	4.011928e+15	4.272159e+13	2.074013e+14	2.044136e+04	4.755354e+03	2.898702e+03	0	2.001955e-03
1.000000e+07	3.881296e+14	0.000000e+00	7.851238e-01	4.041744e+15	5.788021e+13	2.062521e+14	2.038579e+04	4.950191e+03	3.017468e+03	0	2.009631e-03
2.000000e+07	3.921015e+14	0.000000e+00	7.851238e-01	4.068126e+15	7.699877e+13	2.051116e+14	2.032982e+04	5.145569e+03	3.136564e+03	0	2.016463e-03
3.000000e+07	3.955908e+14	0.000000e+00	7.851238e-01	4.090896e+15	1.007123e+14	2.039795e+14	2.027347e+04	5.341129e+03	3.255770e+03	0	2.022427e-03
4.000000e+07	3.985754e+14	0.000000e+00	7.851238e-01	4.109894e+15	1.296655e+14	2.028560e+14	2.021682e+04	5.536472e+03	3.374845e+03	0	2.027500e-03
5.000000e+07	4.010367e+14	0.000000e+00	7.851238e-01	4.124983e+15	1.644911e+14	2.017407e+14	2.015990e+04	5.731163e+03	3.493521e+03	0	2.031665e-03
6.000000e+07	4.029593e+14	0.000000e+00	7.851238e-01	4.136053e+15	2.057855e+14	2.006339e+14	2.010278e+04	5.924730e+03	3.611513e+03	0	2.034906e-03
7.000000e+07	4.043326e+14	0.000000e+00	7.851238e-01	4.143028e+15	2.540818e+14	1.995352e+14	2.004550e+04	6.116672e+03	3.728514e+03	0	2.037215e-03
8.000000e+07	4.051505e+14	0.000000e+00	7.851238e-01	4.145865e+15	3.098222e+14	1.984447e+14	1.998812e+04	6.306459e+03	3.844202e+03	0	2.038588e-03
9.000000e+07	4.054125e+14	0.000000e+00	7.851238e-01	4.144564e+15	3.733306e+14	1.973624e+14	1.993071e+04	6.493542e+03	3.958242e+03	0	2.039028e-03
1.000000e+08	4.051237e+14	0.000000e+00	7.851238e-01	4.139166e+15	4.447875e+14	1.962880e+14	1.987331e+04	6.677361e+03	4.070291e+03	0	2.038543e-03
1.100000e+08	4.042950e+14	0.000000e+00	7.851238e-01	4.129755e+15	5.242096e+14	1.952217e+14	1.981599e+04	6.857351e+03	4.180007e+03	0	2.037152e-03
1.200000e+08	4.029434e+14	0.000000e+00	7.851238e-01	4.116462e+15	6.114337e+14	1.941632e+14	1.975880e+04	7.032958e+03	4.287051e+03	0	2.034880e-03
1.300000e+08	4.010913e+14	0.000000e+00	7.851238e-01	4.099455e+15	7.061103e+14	1.931126e+14	1.970179e+04	7.203641e+03	4.391094e+03	0	2.031757e-03
1.400000e+08	3.987663e+14	0.000000e+00	7.851238e-01	4.078943e+15	8.077037e+14	1.920697e+14	1.964502e+04	7.368893e+03	4.491826e+03	0	2.027824e-03
1.500000e+08	3.960009e+14	0.000000e+00	7.851238e-01	4.055170e+15	9.155012e+14	1.910346e+14	1.958853e+04	7.528241e+03	4.588959e+03	0	2.023125e-03
1.600000e+08	3.928310e+14	0.000000e+00	7.851238e-01	4.028408e+15	1.028633e+15	1.900071e+14	1.953237e+04	7.681265e+03	4.682237e+03	0	2.017713e-03
1.700000e+08	3.892958e+14	0.000000e+00	7.851238e-01	3.998947e+15	1.146096e+15	1.889872e+14	1.947658e+04	7.827597e+03	4.771436e+03	0	2.011642e-03
1.800000e+08	3.854361e+14	0.000000e+00	7.851238e-01	3.967096e+15	1.266786e+15	1.879748e+14	1.942120e+04	7.966936e+03	4.856373e+03	0	2.004971e-03
1.900000e+08	3.812939e+14	0.000000e+00	7.851238e-01	3.933168e+15	1.389537e+15	1.869699e+14	1.936625e+04	8.099047e+03	4.936903e+03	0	1.997763e-03
2.000000e+08	3.769111e+14	0.000000e+00	7.851238e-01	3.897476e+15	1.513154e+15	1.859723e+14	1.931178e+04	8.223764e+03	5.012926e+03	0	1.990079e-03
2.100000e+08	3.723286e+14	0.000000e+00	7.851238e-01	3.860327e+15	1.636456e+15	1.849821e+14	1.925780e+04	8.340992e+03	5.084384e+03	0	1.981981e-03
2.200000e+08	3.675857e+14	0.000000e+00	7.851238e-01	3.822013e+15	1.758305e+15	1.839992e+14	1.920433e+04	8.450705e+03	5.151262e+03	0	1.973529e-03
2.300000e+08	3.627193e+14	0.000000e+00	7.851238e-01	3.782811e+15	1.877638e+15	1.830235e+14	1.915139e+04	8.552942e+03	5.213582e+03	0	1.964782e-03
2.400000e+08	3.577636e+14	0.000000e+00	7.851238e-01	3.742974e+15	1.993497e+15	1.820549e+14	1.909899e+04	8.647803e+03	5.271406e+03	0	1.955793e-03
2.500000e+08	3.527495e+14	0.000000e+00	7.851238e-01	3.702734e+15	2.105036e+15	1.810935e+14	1.904714e+04	8.735440e+03	5.324826e+03	0	1.946613e-03
2.600000e+08	3.477046e+14	0.000000e+00	7.851238e-01	3.662297e+15	2.211546e+15	1.801390e+14	1.899585e+04	8.816054e+03	5.373966e+03	0	1.937288e-03
2.700000e+08	3.426531e+14	0.000000e+00	7.851238e-01	3.621842e+15	2.312447e+15	1.791916e+14	1.894512e+04	8.889885e+03	5.418971e+03	0	1.927860e-03
2.800000e+08	3.376157e+14	0.000000e+00	7.851238e-01	3.581524e+15	2.407297e+15	1.782510e+14	1.889495e+04	8.957205e+03	5.460007e+03	0	1.918367e-03
2.900000e+08	3.326103e+14	0.000000e+00	7.851238e-01	3.541475e+15	2.495783e+15	1.773174e+14	1.884533e+04	9.018312e+03	5.497256e+03	0	1.908839e-03
3.000000e+08	3.276512e+14	0.000000e+00	7.851238e-01	3.501802e+15	2.577714e+15	1.763905e+14	1.879627e+04	9.073522e+03	5.530909e+03	0	1.899305e-03
3.100000e+08	3.227505e+14	0.000000e+00	7.851238e-01	3.462595e+15	2.653008e+15	1.754704e+14	1.874775e+04	9.123159e+03	5.561167e+03	0	1.889788e-03
3.200000e+08	3.179174e+14	0.000000e+00	7.851238e-01	3.423921e+15	2.721678e+15	1.745570e+14	1.869978e+04	9.167557e+03	5.588230e+03	0	1.880307e-03
3.300000e+08	3.131592e+14	0.000000e+00	7.851238e-01	3.385835e+15	2.783822e+15	1.736502e+14	1.865234e+04	9.207049e+03	5.612303e+03	0	1.870879e-03
3.400000e+08	3.084812e+14	0.000000e+00	7.851238e-01	3.348375e+15	2.839601e+15	1.727500e+14	1.860543e+04	9.241964e+03	5.633586e+03	0	1.861517e-03
3.500000e+08	3.038871e+14	0.000000e+00	7.851238e-01	3.311569e+15	2.889239e+15	1.718564e+14	1.855903e+04	9.272623e+03	5.652275e+03	0	1.852229e-03
3.600000e+08	2.993792e+14	0.000000e+00	7.851238e-01	3.275432e+15	2.932995e+15	1.709692e+14	1.851314e+04	9.299339e+03	5.668560e+03	0	1.843025e-03
3.700000e+08	2.949587e+14	0.000000e+00	7.851238e-01	3.239975e+15	2.971162e+15	1.700884e+14	1.846776e+04	9.322412e+03	5.682624e+03	0	1.833909e-03
3.800000e+08	2.906259e+14	0.000000e+00	7.851238e-01	3.205197e+15	3.004057e+15	1.692140e+14	1.842286e+04	9.342126e+03	5.694642e+03	0	1.824885e-03
3.900000e+08	2.863803e+14	0.000000e+00	7.851238e-01	3.171096e+15	3.032002e+15	1.683460e+14	1.837844e+04	9.358755e+03	5.704777e+03	0	1.815955e-03
4.000000e+08	2.822211e+14	0.000000e+00	7.851238e-01	3.137664e+15	3.055329e+15	1.674842e+14	1.833450e+04	9.372551e+03	5.713188e+03	0	1.807121e-03
4.100000e+08	2.781466e+14	0.000000e+00	7.851238e-01	3.104888e+15	3.074368e+15	1.666286e+14	1.829101e+04	9.383756e+03	5.720018e+03	0	1.798382e-03
4.200000e+08	2.741551e+14	0.000000e+00	7.851238e-01	3.072756e+15	3.089445e+15	1.657792e+14	1.824798e+04	9.392594e+03	5.725405e+03	0	1.789738e-03
4.300000e+08	2.702447e+14	0.000000e+00	7.851238e-01	3.041252e+15	3.100872e+15	1.649359e+14	1.820540e+04	9.399271e+03	5.729475e+03	0	1.781188e-03
4.400000e+08	2.664131e+14	0.000000e+00	7.851238e-01	3.010358e+15	3.108951e+15	1.640987e+14	1.816324e+04	9.403983e+03	5.732347e+03	0	1.772730e-03
4.500000e+08	2.626580e+14	0.000000e+00	7.851238e-01	2.980059e+15	3.113971e+15	1.632675e+14	1.812152e+04	9.406906e+03	5.734129e+03	0	1.764362e-03
4.600000e+08	2.589772e+14	0.000000e+00	7.851238e-01	2.950336e+15	3.116204e+15	1.624422e+14	1.808021e+04	9.408205e+03	5.734921e+03	0	1.756081e-03
4.700000e+08	2.553683e+14	0.000000e+00	7.851238e-01	2.921171e+15	3.115908e+15	1.616229e+14	1.803932e+04	9.408033e+03	5.734816e+03	0	1.747886e-03
4.800000e+08	2.518291e+14	0.000000e+00	7.851238e-01	2.892547e+15	3.113320e+15	1.608094e+14	1.799883e+04	9.406527e+03	5.733898e+03	0	1.739773e-03
4.900000e+08	2.483572e+14	0.000000e+00	7.851238e-01	2.864446e+15	3.108663e+15	1.600018e+14	1.795873e+04	9.403815e+03	5.732245e+03	0	1.731741e-03
5.000000e+08	2.449505e+14	0.000000e+00	7.851238e-01	2.836853e+15	3.102145e+15	1.592000e+14	1.791902e+04	9.400015e+03	5.729928e+03	0	1.723787e-03
5.100000e+08	2.416069e+14	0.000000e+00	7.851238e-01	2.809750e+15	3.093955e+15	1.584038e+14	1.787969e+04	9.395232e+03	5.727013e+03	0	1.715907e-03
5.200000e+08	2.383242e+14	0.000000e+00	7.851238e-01	2.783122e+15	3.084267e+15	1.576134e+14	1.784074e+04	9.389563e+03	5.723557e+03	0	1.708101e-03
5.300000e+08	2.351006e+14	0.000000e+00	7.851238e-01	2.756955e+15	3.073244e+15	1.568286e+14	1.780216e+04	9.383097e+03	5.719616e+03	0	1.700364e-03
5.400000e+08	2.319342e+14	0.000000e+00	7.851238e-01	2.731233e+15	3.061035e+15	1.560494e+14	1.776394e+04	9.375915e+03	5.715238e+03	0	1.692696e-03
5.500000e+08	2.288231e+14	0.000000e+00	7.851238e-01	2.705943e+15	3.047772e+15	1.552757e+14	1.772607e+04	9.368090e+03	5.710468e+03	0	1.685094e-03
5.600000e+08	2.257657e+14	0.000000e+00	7.851238e-01	2.681072e+15	3.033578e+15	1.545075e+14	1.768855e+04	9.359689e+03	5.705347e+03	0	1.677555e-03
5.700000e+08	2.227603e+14	0.000000e+00	7.851238e-01	2.656607e+15	3.018563e+15	1.537448e+14	1.765138e+04	9.350772e+03	5.699912e+03	0	1.670078e-03
5.800000e+08	2.198053e+14	0.000000e+00	7.851238e-01	2.632537e+15	3.002834e+15	1.529875e+14	1.761454e+04	9.341396e+03	5.694196e+03	0	1.662660e-03
5.900000e+08	2.168994e+14	0.000000e+00	7.851238e-01	2.608851e+15	2.986476e+15	1.522356e+14	1.757804e+04	9.331609e+03	5.688231e+03	0	1.655300e-03
6.000000e+08	2.140410e+14	0.000000e+00	7.851238e-01	2.585537e+15	2.969577e+15	1.514889e+14	1.754187e+04	9.321458e+03	5.682042e+03	0	1.647997e-03
6.100000e+08	2.112289e+14	0.000000e+00	7.851238e-01	2.562586e+15	2.952212e+15	1.507476e+14	1.750601e+04	9.310982e+03	5.675657e+03	0	1.640748e-03
6.200000e+08	2.084618e+14	0.000000e+00	7.851238e-01	2.539987e+15	2.934447e+15	1.500115e+14	1.747048e+04	9.300221e+03	5.669098e+03	0	1.633552e-03
6.300000e+08	2.057385e+14	0.000000e+00	7.851238e-01	2.517731e+15	2.916346e+15	1.492806e+14	1.743526e+04	9.289208e+03	5.662384e+03	0	1.626407e-03
6.400000e+08	2.030577e+14	0.000000e+00	7.851238e-01	2.495810e+15	2.897963e+15	1.485549e+14	1.740034e+04	9.277973e+03	5.655536e+03	0	1.619312e-03
6.500000e+08	2.004185e+14	0.000000e+00	7.851238e-01	2.474215e+15	2.879347e+15	1.478342e+14	1.736573e+04	9.266544e+03	5.648569e+03	0	1.612266e-03
6.600000e+08	1.978197e+14	0.000000e+00	7.851238e-01	2.452938e+15	2.860546e+15	1.471187e+14	1.733142e+04	9.254947e+03	5.641500e+03	0	1.605267e-03
6.700000e+08	1.952604e+14	0.000000e+00	7.851238e-01	2.431971e+15	2.841598e+15	1.464082e+14	1.729740e+04	9.243204e+03	5.634342e+03	0	1.598314e-03
6.800000e+08	1.927396e+14	0.000000e+00	7.851238e-01	2.411307e+15	2.822539e+15	1.457026e+14	1.726367e+04	9.231336e+03	5.627108e+03	0	1.591406e-03
6.900000e+08	1.902564e+14	0.000000e+00	7.851238e-01	2.390938e+15	2.803402e+15	1.450020e+14	1.723022e+04	9.219363e+03	5.619809e+03	0	1.584542e-03
7.000000e+08	1.878099e+14	0.000000e+00	7.851238e-01	2.370859e+15	2.784219e+15	1.443063e+14	1.719706e+04	9.207300e+03	5.612456e+03	0	1.577721e-03
7.100000e+08	1.853992e+14	0.000000e+00	7.851238e-01	2.351062e+15	2.765012e+15	1.436155e+14	1.716418e+04	9.195163e+03	5.605058e+03	0	1.570941e-03
7.200000e+08	1.830236e+14	0.000000e+00	7.851238e-01	2.331542e+15	2.745807e+15	1.429296e+14	1.713157e+04	9.182967e+03	5.597623e+03	0	1.564203e-03
7.300000e+08	1.806822e+14	0.000000e+00	7.851238e-01	2.312291e+15	2.726624e+15	1.422484e+14	1.709923e+04	9.170724e+03	5.590160e+03	0	1.557504e-03
7.400000e+08	1.783744e+14	0.000000e+00	7.851238e-01	2.293305e+15	2.707481e+15	1.415719e+14	1.706716e+04	9.158444e+03	5.582675e+03	0	1.550844e-03
7.500000e+08	1.760993e+14	0.000000e+00	7.851238e-01	2.274578e+15	2.688395e+15	1.409002e+14	1.703534e+04	9.146139e+03	5.575174e+03	0	1.544223e-03
7.600000e+08	1.738564e+14	0.000000e+00	7.851238e-01	2.256104e+15	2.669380e+15	1.402332e+14	1.700379e+04	9.133818e+03	5.567664e+03	0	1.537638e-03
7.700000e+08	1.716448e+14	0.000000e+00	7.851238e-01	2.237879e+15	2.650450e+15	1.395708e+14	1.697250e+04	9.121489e+03	5.560149e+03	0	1.531091e-03
7.800000e+08	1.694641e+14	0.000000e+00	7.851238e-01	2.219897e+15	2.631616e+15	1.389130e+14	1.694145e+04	9.109160e+03	5.552633e+03	0	1.524579e-03
7.900000e+08	1.673134e+14	0.000000e+00	7.851238e-01	2.202153e+15	2.612888e+15	1.382598e+14	1.691066e+04	9.096837e+03	5.545122e+03	0	1.518102e-03
8.000000e+08	1.651924e+14	0.000000e+00	7.851238e-01	2.184643e+15	2.594276e+15	1.376111e+14	1.688011e+04	9.084528e+03	5.537618e+03	0	1.511660e-03
8.100000e+08	1.631003e+14	0.000000e+00	7.851238e-01	2.167362e+15	2.575786e+15	1.369669e+14	1.684980e+04	9.072236e+03	5.530126e+03	0	1.505251e-03
8.200000e+08	1.610365e+14	0.000000e+00	7.851238e-01	2.150306e+15	2.557426e+15	1.363272e+14	1.681973e+04	9.059968e+03	5.522648e+03	0	1.498875e-03
8.300000e+08	1.590006e+14	0.000000e+00	7.851238e-01	2.133470e+15	2.539200e+15	1.356918e+14	1.678990e+04	9.047728e+03	5.515186e+03	0	1.492532e-03
8.400000e+08	1.569920e+14	0.000000e+00	7.851238e-01	2.116850e+15	2.521117e+15	1.350609e+14	1.676030e+04	9.035520e+03	5.507745e+03	0	1.486221e-03
8.500000e+08	1.550102e+14	0.000000e+00	7.851238e-01	2.100443e+15	2.503177e+15	1.344343e+14	1.673093e+04	9.023348e+03	5.500325e+03	0	1.479940e-03
8.600000e+08	1.530547e+14	0.000000e+00	7.851238e-01	2.084244e+15	2.485387e+15	1.338121e+14	1.670178e+04	9.011214e+03	5.492929e+03	0	1.473690e-03
8.700000e+08	1.511249e+14	0.000000e+00	7.851238e-01	2.068250e+15	2.467748e+15	1.331941e+14	1.667286e+04	8.999123e+03	5.485558e+03	0	1.467471e-03
8.800000e+08	1.492205e+14	0.000000e+00	7.851238e-01	2.052457e+15	2.450263e+15	1.325804e+14	1.664417e+04	8.987075e+03	5.478214e+03	0	1.461280e-03
8.900000e+08	1.473409e+14	0.000000e+00	7.851238e-01	2.036860e+15	2.432936e+15	1.319709e+14	1.661569e+04	8.975075e+03	5.470899e+03	0	1.455119e-03
9.000000e+08	1.454857e+14	0.000000e+00	7.851238e-01	2.021458e+15	2.415765e+15	1.313656e+14	1.658743e+04	8.963123e+03	5.463614e+03	0	1.448986e-03
9.100000e+08	1.436545e+14	0.000000e+00	7.851238e-01	2.006246e+15	2.398756e+15	1.307644e+14	1.655938e+04	8.951222e+03	5.456359e+03	0	1.442881e-03
9.200000e+08	1.418468e+14	0.000000e+00	7.851238e-01	1.991220e+15	2.381905e+15	1.301674e+14	1.653154e+04	8.939373e+03	5.449137e+03	0	1.436803e-03
9.300000e+08	1.400622e+14	0.000000e+00	7.851238e-01	1.976379e+15	2.365216e+15	1.295744e+14	1.650391e+04	8.927577e+03	5.441947e+03	0	1.430752e-03
9.400000e+08	1.383003e+14	0.000000e+00	7.851238e-01	1.961718e+15	2.348687e+15	1.289855e+14	1.647648e+04	8.915837e+03	5.434790e+03	0	1.424727e-03
9.500000e+08	1.365608e+14	0.000000e+00	7.851238e-01	1.947235e+15	2.332321e+15	1.284006e+14	1.644926e+04	8.904153e+03	5.427668e+03	0	1.418729e-03
9.600000e+08	1.348431e+14	0.000000e+00	7.851238e-01	1.932926e+15	2.316114e+15	1.278197e+14	1.642223e+04	8.892525e+03	5.420580e+03	0	1.412755e-03
9.700000e+08	1.331470e+14	0.000000e+00	7.851238e-01	1.918788e+15	2.300070e+15	1.272427e+14	1.639541e+04	8.880955e+03	5.413527e+03	0	1.406807e-03
9.800000e+08	1.314721e+14	0.000000e+00	7.851238e-01	1.904819e+15	2.284187e+15	1.266697e+14	1.636878e+04	8.869444e+03	5.406511e+03	0	1.400883e-03
9.900000e+08	1.298180e+14	0.000000e+00	7.851238e-01	1.891016e+15	2.268463e+15	1.261006e+14	1.634235e+04	8.857992e+03	5.399530e+03	0	1.394983e-03
1.000000e+09	1.281843e+14	0.000000e+00	7.851238e-01	1.877376e+15	2.252898e+15	1.255353e+14	1.631610e+04	8.846599e+03	5.392585e+03	0	1.389107e-03
1.010000e+09	1.265708e+14	0.000000e+00	7.851238e-01	1.863897e+15	2.237491e+15	1.249739e+14	1.629005e+04	8.835266e+03	5.385677e+03	0	1.383254e-03
1.020000e+09	1.249771e+14	0.000000e+00	7.851238e-01	1.850575e+15	2.222242e+15	1.244162e+14	1.626418e+04	8.823994e+03	5.378805e+03	0	1.377424e-03
1.030000e+09	1.234028e+14	0.000000e+00	7.851238e-01	1.837409e+15	2.207148e+15	1.238624e+14	1.623849e+04	8.812781e+03	5.371971e+03	0	1.371615e-03
1.040000e+09	1.218476e+14	0.000000e+00	7.851238e-01	1.824395e+15	2.192209e+15	1.233123e+14	1.621299e+04	8.801630e+03	5.365173e+03	0	1.365829e-03
1.050000e+09	1.203113e+14	0.000000e+00	7.851238e-01	1.811531e+15	2.177425e+15	1.227659e+14	1.618767e+04	8.790539e+03	5.358413e+03	0	1.360065e-03
1.060000e+09	1.187935e+14	0.000000e+00	7.851238e-01	1.798815e+15	2.162792e+15	1.222231e+14	1.616253e+04	8.779508e+03	5.351689e+03	0	1.354321e-03
1.070000e+09	1.172939e+14	0.000000e+00	7.851238e-01	1.786245e+15	2.148310e+15	1.216841e+14	1.613756e+04	8.768539e+03	5.345002e+03	0	1.348598e-03
1.080000e+09	1.158122e+14	0.000000e+00	7.851238e-01	1.773818e+15	2.133978e+15	1.211486e+14	1.611276e+04	8.757630e+03	5.338353e+03	0	1.342895e-03
1.090000e+09	1.143482e+14	0.000000e+00	7.851238e-01	1.761531e+15	2.119793e+15	1.206168e+14	1.608814e+04	8.746782e+03	5.331740e+03	0	1.337213e-03
1.100000e+09	1.129015e+14	0.000000e+00	7.851238e-01	1.749384e+15	2.105755e+15	1.200886e+14	1.606369e+04	8.735994e+03	5.325164e+03	0	1.331549e-03
1.110000e+09	1.114719e+14	0.000000e+00	7.851238e-01	1.737373e+15	2.091863e+15	1.195638e+14	1.603941e+04	8.725267e+03	5.318625e+03	0	1.325905e-03
1.120000e+09	1.100590e+14	0.000000e+00	7.851238e-01	1.725496e+15	2.078114e+15	1.190426e+14	1.601529e+04	8.714599e+03	5.312122e+03	0	1.320280e-03
1.130000e+09	1.086627e+14	0.000000e+00	7.851238e-01	1.713752e+15	2.064506e+15	1.185249e+14	1.599134e+04	8.703992e+03	5.305656e+03	0	1.314673e-03
1.140000e+09	1.072827e+14	0.000000e+00	7.851238e-01	1.702138e+15	2.051039e+15	1.180107e+14	1.596755e+04	8.693444e+03	5.299227e+03	0	1.309083e-03
1.150000e+09	1.059187e+14	0.000000e+00	7.851238e-01	1.690652e+15	2.037711e+15	1.174998e+14	1.594392e+04	8.682955e+03	5.292833e+03	0	1.303512e-03
1.160000e+09	1.045705e+14	0.000000e+00	7.851238e-01	1.679293e+15	2.024519e+15	1.169924e+14	1.592045e+04	8.672526e+03	5.286476e+03	0	1.297958e-03
1.170000e+09	1.032379e+14	0.000000e+00	7.851238e-01	1.668058e+15	2.011464e+15	1.164884e+14	1.589714e+04	8.662155e+03	5.280154e+03	0	1.292420e-03
1.180000e+09	1.019205e+14	0.000000e+00	7.851238e-01	1.656946e+15	1.998542e+15	1.159877e+14	1.587398e+04	8.651843e+03	5.273868e+03	0	1.286899e-03
1.190000e+09	1.006181e+14	0.000000e+00	7.851238e-01	1.645954e+15	1.985753e+15	1.154904e+14	1.585098e+04	8.641589e+03	5.267618e+03	0	1.281394e-03
1.200000e+09	9.933064e+13	0.000000e+00	7.851238e-01	1.635082e+15	1.973094e+15	1.149963e+14	1.582813e+04	8.631392e+03	5.261402e+03	0	1.275905e-03
1.210000e+09	9.805774e+13	0.000000e+00	7.851238e-01	1.624326e+15	1.960564e+15	1.145056e+14	1.580543e+04	8.621253e+03	5.255222e+03	0	1.270432e-03
1.220000e+09	9.679922e+13	0.000000e+00	7.851238e-01	1.613686e+15	1.948162e+15	1.140180e+14	1.578288e+04	8.611171e+03	5.249076e+03	0	1.264973e-03
1.230000e+09	9.555486e+13	0.000000e+00	7.851238e-01	1.603160e+15	1.935887e+15	1.135337e+14	1.576047e+04	8.601146e+03	5.242965e+03	0	1.259529e-03
1.240000e+09	9.432445e+13	0.000000e+00	7.851238e-01	1.592746e+15	1.923735e+15	1.130526e+14	1.573821e+04	8.591177e+03	5.236888e+03	0	1.254100e-03
1.250000e+09	9.310779e+13	0.000000e+00	7.851238e-01	1.582442e+15	1.911706e+15	1.125747e+14	1.571610e+04	8.581264e+03	5.230846e+03	0	1.248684e-03
1.260000e+09	9.190466e+13	0.000000e+00	7.851238e-01	1.572247e+15	1.899798e+15	1.121000e+14	1.569413e+04	8.571406e+03	5.224837e+03	0	1.243283e-03
1.270000e+09	9.071487e+13	0.000000e+00	7.851238e-01	1.562159e+15	1.888010e+15	1.116283e+14	1.567230e+04	8.561604e+03	5.218862e+03	0	1.237894e-03
1.280000e+09	8.953822e+13	0.000000e+00	7.851238e-01	1.552177e+15	1.876340e+15	1.111598e+14	1.565061e+04	8.551856e+03	5.212920e+03	0	1.232519e-03
1.290000e+09	8.837452e+13	0.000000e+00	7.851238e-01	1.542299e+15	1.864788e+15	1.106943e+14	1.562906e+04	8.542163e+03	5.207011e+03	0	1.227156e-03
1.300000e+09	8.722357e+13	0.000000e+00	7.851238e-01	1.532524e+15	1.853350e+15	1.102319e+14	1.560764e+04	8.532523e+03	5.201135e+03	0	1.221805e-03
1.310000e+09	8.608520e+13	0.000000e+00	7.851238e-01	1.522850e+15	1.842026e+15	1.097725e+14	1.558636e+04	8.522937e+03	5.195291e+03	0	1.216467e-03
1.320000e+09	8.495921e+13	0.000000e+00	7.851238e-01	1.513276e+15	1.830815e+15	1.093162e+14	1.556522e+04	8.513403e+03	5.189480e+03	0	1.211140e-03
1.330000e+09	8.384543e+13	0.000000e+00	7.851238e-01	1.503800e+15	1.819715e+15	1.088628e+14	1.554421e+04	8.503923e+03	5.183701e+03	0	1.205824e-03
1.340000e+09	8.274368e+13	0.000000e+00	7.851238e-01	1.494421e+15	1.808723e+15	1.084124e+14	1.552333e+04	8.494494e+03	5.177954e+03	0	1.200519e-03
1.350000e+09	8.165379e+13	0.000000e+00	7.851238e-01	1.485137e+15	1.797841e+15	1.079649e+14	1.550257e+04	8.485118e+03	5.172238e+03	0	1.195225e-03
1.360000e+09	8.057560e+13	0.000000e+00	7.851238e-01	1.475948e+15	1.787064e+15	1.075203e+14	1.548195e+04	8.475793e+03	5.166554e+03	0	1.189940e-03
