#t		Qconv[W]	Ri[Rp]		R*[Rp]		Qc[W]		Qm[W]		Qr[W]		Tcmb[K]		Tl[K]		Tup[K]		RiFlag		Bs[T]
0.000000e+00	1.154869e+13	0.000000e+00	4.469697e-01	3.608011e+14	1.490329e+15	1.533890e+14	9.340650e+03	3.506398e+03	2.414973e+03	0	9.106492e-04
1.000000e+07	1.071606e+13	0.000000e+00	4.469697e-01	3.352869e+14	1.337604e+15	1.525391e+14	9.224575e+03	3.450470e+03	2.376453e+03	0	8.882159e-04
2.000000e+07	9.984358e+12	0.000000e+00	4.469697e-01	3.128602e+14	1.212909e+15	1.516956e+14	9.116541e+03	3.401532e+03	2.342747e+03	0	8.675216e-04
3.000000e+07	9.336633e+12	0.000000e+00	4.469697e-01	2.930026e+14	1.109385e+15	1.508584e+14	9.015594e+03	3.358245e+03	2.312935e+03	0	8.483407e-04
4.000000e+07	8.759508e+12	0.000000e+00	4.469697e-01	2.753052e+14	1.022203e+15	1.500274e+14	8.920934e+03	3.319605e+03	2.286322e+03	0	8.304882e-04
5.000000e+07	8.242294e+12	0.000000e+00	4.469697e-01	2.594412e+14	9.478742e+14	1.492026e+14	8.831890e+03	3.284836e+03	2.262375e+03	0	8.138098e-04
6.000000e+07	7.776347e+12	0.000000e+00	4.469697e-01	2.451463e+14	8.838195e+14	1.483840e+14	8.747889e+03	3.253335e+03	2.240679e+03	0	7.981762e-04
7.000000e+07	7.354599e+12	0.000000e+00	4.469697e-01	2.322043e+14	8.280955e+14	1.475714e+14	8.668440e+03	3.224619e+03	2.220902e+03	0	7.834776e-04
8.000000e+07	6.971216e+12	0.000000e+00	4.469697e-01	2.204368e+14	7.792119e+14	1.467650e+14	8.593118e+03	3.198301e+03	2.202776e+03	0	7.696201e-04
9.000000e+07	6.621337e+12	0.000000e+00	4.469697e-01	2.096952e+14	7.360083e+14	1.459645e+14	8.521554e+03	3.174065e+03	2.186084e+03	0	7.565230e-04
1.000000e+08	6.300885e+12	0.000000e+00	4.469697e-01	1.998546e+14	6.975688e+14	1.451699e+14	8.453426e+03	3.151650e+03	2.170646e+03	0	7.441162e-04
1.100000e+08	6.006409e+12	0.000000e+00	4.469697e-01	1.908097e+14	6.631612e+14	1.443812e+14	8.388449e+03	3.130838e+03	2.156312e+03	0	7.323385e-04
1.200000e+08	5.734974e+12	0.000000e+00	4.469697e-01	1.824705e+14	6.321941e+14	1.435984e+14	8.326371e+03	3.111448e+03	2.142957e+03	0	7.211363e-04
1.300000e+08	5.484064e+12	0.000000e+00	4.469697e-01	1.747601e+14	6.041843e+14	1.428214e+14	8.266970e+03	3.093323e+03	2.130474e+03	0	7.104624e-04
1.400000e+08	5.251514e+12	0.000000e+00	4.469697e-01	1.676122e+14	5.787342e+14	1.420502e+14	8.210045e+03	3.076332e+03	2.118771e+03	0	7.002747e-04
1.500000e+08	5.035449e+12	0.000000e+00	4.469697e-01	1.609694e+14	5.555132e+14	1.412846e+14	8.155419e+03	3.060361e+03	2.107772e+03	0	6.905359e-04
1.600000e+08	4.834235e+12	0.000000e+00	4.469697e-01	1.547818e+14	5.342445e+14	1.405247e+14	8.102932e+03	3.045311e+03	2.097407e+03	0	6.812128e-04
1.700000e+08	4.646446e+12	0.000000e+00	4.469697e-01	1.490057e+14	5.146947e+14	1.397704e+14	8.052437e+03	3.031098e+03	2.087618e+03	0	6.722754e-04
1.800000e+08	4.470831e+12	0.000000e+00	4.469697e-01	1.436027e+14	4.966657e+14	1.390217e+14	8.003804e+03	3.017647e+03	2.078353e+03	0	6.636967e-04
1.900000e+08	4.306285e+12	0.000000e+00	4.469697e-01	1.385392e+14	4.799883e+14	1.382784e+14	7.956914e+03	3.004890e+03	2.069567e+03	0	6.554524e-04
2.000000e+08	4.151833e+12	0.000000e+00	4.469697e-01	1.337851e+14	4.645173e+14	1.375407e+14	7.911660e+03	2.992772e+03	2.061221e+03	0	6.475205e-04
2.100000e+08	4.006608e+12	0.000000e+00	4.469697e-01	1.293140e+14	4.501273e+14	1.368083e+14	7.867941e+03	2.981239e+03	2.053278e+03	0	6.398810e-04
2.200000e+08	3.869838e+12	0.000000e+00	4.469697e-01	1.251022e+14	4.367092e+14	1.360814e+14	7.825667e+03	2.970246e+03	2.045707e+03	0	6.325155e-04
2.300000e+08	3.740834e+12	0.000000e+00	4.469697e-01	1.211287e+14	4.241683e+14	1.353598e+14	7.784756e+03	2.959753e+03	2.038480e+03	0	6.254075e-04
2.400000e+08	3.618978e+12	0.000000e+00	4.469697e-01	1.173744e+14	4.124215e+14	1.346435e+14	7.745131e+03	2.949721e+03	2.031571e+03	0	6.185416e-04
2.500000e+08	3.503715e+12	0.000000e+00	4.469697e-01	1.138225e+14	4.013957e+14	1.339324e+14	7.706722e+03	2.940119e+03	2.024957e+03	0	6.119038e-04
2.600000e+08	3.394545e+12	0.000000e+00	4.469697e-01	1.104575e+14	3.910264e+14	1.332265e+14	7.669464e+03	2.930916e+03	2.018619e+03	0	6.054813e-04
2.700000e+08	3.291015e+12	0.000000e+00	4.469697e-01	1.072656e+14	3.812567e+14	1.325258e+14	7.633297e+03	2.922085e+03	2.012537e+03	0	5.992622e-04
2.800000e+08	3.192718e+12	0.000000e+00	4.469697e-01	1.042343e+14	3.720358e+14	1.318302e+14	7.598165e+03	2.913601e+03	2.006694e+03	0	5.932354e-04
2.900000e+08	3.099282e+12	0.000000e+00	4.469697e-01	1.013523e+14	3.633185e+14	1.311397e+14	7.564017e+03	2.905443e+03	2.001075e+03	0	5.873910e-04
3.000000e+08	3.010369e+12	0.000000e+00	4.469697e-01	9.860910e+13	3.550643e+14	1.304542e+14	7.530804e+03	2.897589e+03	1.995666e+03	0	5.817193e-04
3.100000e+08	2.925672e+12	0.000000e+00	4.469697e-01	9.599540e+13	3.472369e+14	1.297737e+14	7.498482e+03	2.890022e+03	1.990454e+03	0	5.762117e-04
3.200000e+08	2.844910e+12	0.000000e+00	4.469697e-01	9.350254e+13	3.398038e+14	1.290981e+14	7.467010e+03	2.882723e+03	1.985427e+03	0	5.708602e-04
3.300000e+08	2.767826e+12	0.000000e+00	4.469697e-01	9.112266e+13	3.327355e+14	1.284275e+14	7.436348e+03	2.875677e+03	1.980574e+03	0	5.656570e-04
3.400000e+08	2.694185e+12	0.000000e+00	4.469697e-01	8.884853e+13	3.260055e+14	1.277618e+14	7.406459e+03	2.868870e+03	1.975886e+03	0	5.605952e-04
3.500000e+08	2.623770e+12	0.000000e+00	4.469697e-01	8.667352e+13	3.195896e+14	1.271008e+14	7.377311e+03	2.862288e+03	1.971352e+03	0	5.556681e-04
3.600000e+08	2.556383e+12	0.000000e+00	4.469697e-01	8.459155e+13	3.134661e+14	1.264447e+14	7.348870e+03	2.855919e+03	1.966966e+03	0	5.508696e-04
3.700000e+08	2.491840e+12	0.000000e+00	4.469697e-01	8.259699e+13	3.076148e+14	1.257933e+14	7.321107e+03	2.849751e+03	1.962718e+03	0	5.461940e-04
3.800000e+08	2.429972e+12	0.000000e+00	4.469697e-01	8.068465e+13	3.020178e+14	1.251466e+14	7.293994e+03	2.843774e+03	1.958601e+03	0	5.416358e-04
3.900000e+08	2.370624e+12	0.000000e+00	4.469697e-01	7.884976e+13	2.966584e+14	1.245046e+14	7.267503e+03	2.837978e+03	1.954609e+03	0	5.371898e-04
4.000000e+08	2.313651e+12	0.000000e+00	4.469697e-01	7.708788e+13	2.915214e+14	1.238673e+14	7.241611e+03	2.832353e+03	1.950735e+03	0	5.328515e-04
4.100000e+08	2.258918e+12	0.000000e+00	4.469697e-01	7.539490e+13	2.865929e+14	1.232345e+14	7.216292e+03	2.826892e+03	1.946974e+03	0	5.286161e-04
4.200000e+08	2.206303e+12	0.000000e+00	4.469697e-01	7.376702e+13	2.818601e+14	1.226063e+14	7.191526e+03	2.821586e+03	1.943320e+03	0	5.244796e-04
4.300000e+08	2.155688e+12	0.000000e+00	4.469697e-01	7.220068e+13	2.773112e+14	1.219826e+14	7.167290e+03	2.816428e+03	1.939767e+03	0	5.204379e-04
4.400000e+08	2.106968e+12	0.000000e+00	4.469697e-01	7.069261e+13	2.729353e+14	1.213634e+14	7.143566e+03	2.811410e+03	1.936311e+03	0	5.164872e-04
4.500000e+08	2.060042e+12	0.000000e+00	4.469697e-01	6.923973e+13	2.687224e+14	1.207487e+14	7.120333e+03	2.806527e+03	1.932948e+03	0	5.126240e-04
4.600000e+08	2.014817e+12	0.000000e+00	4.469697e-01	6.783918e+13	2.646632e+14	1.201384e+14	7.097575e+03	2.801772e+03	1.929673e+03	0	5.088449e-04
4.700000e+08	1.971206e+12	0.000000e+00	4.469697e-01	6.648830e+13	2.607491e+14	1.195324e+14	7.075274e+03	2.797139e+03	1.926482e+03	0	5.051467e-04
4.800000e+08	1.929127e+12	0.000000e+00	4.469697e-01	6.518459e+13	2.569722e+14	1.189308e+14	7.053414e+03	2.792624e+03	1.923372e+03	0	5.015264e-04
4.900000e+08	1.888505e+12	0.000000e+00	4.469697e-01	6.392571e+13	2.533250e+14	1.183335e+14	7.031980e+03	2.788220e+03	1.920339e+03	0	4.979812e-04
5.000000e+08	1.849269e+12	0.000000e+00	4.469697e-01	6.270948e+13	2.498007e+14	1.177405e+14	7.010957e+03	2.783923e+03	1.917380e+03	0	4.945083e-04
5.100000e+08	1.811351e+12	0.000000e+00	4.469697e-01	6.153385e+13	2.463930e+14	1.171517e+14	6.990331e+03	2.779729e+03	1.914491e+03	0	4.911051e-04
5.200000e+08	1.774689e+12	0.000000e+00	4.469697e-01	6.039690e+13	2.430957e+14	1.165671e+14	6.970090e+03	2.775634e+03	1.911671e+03	0	4.877692e-04
5.300000e+08	1.739225e+12	0.000000e+00	4.469697e-01	5.929682e+13	2.399034e+14	1.159867e+14	6.950220e+03	2.771632e+03	1.908915e+03	0	4.844982e-04
5.400000e+08	1.704903e+12	0.000000e+00	4.469697e-01	5.823192e+13	2.368108e+14	1.154104e+14	6.930710e+03	2.767722e+03	1.906221e+03	0	4.812900e-04
5.500000e+08	1.671671e+12	0.000000e+00	4.469697e-01	5.720061e+13	2.338131e+14	1.148382e+14	6.911548e+03	2.763898e+03	1.903588e+03	0	4.781423e-04
5.600000e+08	1.639480e+12	0.000000e+00	4.469697e-01	5.620136e+13	2.309057e+14	1.142701e+14	6.892724e+03	2.760158e+03	1.901012e+03	0	4.750533e-04
5.700000e+08	1.608285e+12	0.000000e+00	4.469697e-01	5.523278e+13	2.280844e+14	1.137060e+14	6.874226e+03	2.756498e+03	1.898491e+03	0	4.720209e-04
5.800000e+08	1.578040e+12	0.000000e+00	4.469697e-01	5.429352e+13	2.253451e+14	1.131459e+14	6.856046e+03	2.752915e+03	1.896024e+03	0	4.690433e-04
5.900000e+08	1.548707e+12	0.000000e+00	4.469697e-01	5.338233e+13	2.226842e+14	1.125898e+14	6.838172e+03	2.749407e+03	1.893607e+03	0	4.661188e-04
6.000000e+08	1.520245e+12	0.000000e+00	4.469697e-01	5.249800e+13	2.200980e+14	1.120376e+14	6.820597e+03	2.745970e+03	1.891240e+03	0	4.632457e-04
6.100000e+08	1.492618e+12	0.000000e+00	4.469697e-01	5.163942e+13	2.175832e+14	1.114893e+14	6.803312e+03	2.742602e+03	1.888921e+03	0	4.604224e-04
6.200000e+08	1.465792e+12	0.000000e+00	4.469697e-01	5.080552e+13	2.151368e+14	1.109449e+14	6.786308e+03	2.739301e+03	1.886647e+03	0	4.576474e-04
6.300000e+08	1.439733e+12	0.000000e+00	4.469697e-01	4.999529e+13	2.127557e+14	1.104044e+14	6.769576e+03	2.736064e+03	1.884418e+03	0	4.549192e-04
6.400000e+08	1.414411e+12	0.000000e+00	4.469697e-01	4.920777e+13	2.104372e+14	1.098676e+14	6.753110e+03	2.732889e+03	1.882231e+03	0	4.522363e-04
6.500000e+08	1.389796e+12	0.000000e+00	4.469697e-01	4.844207e+13	2.081787e+14	1.093347e+14	6.736903e+03	2.729774e+03	1.880085e+03	0	4.495975e-04
6.600000e+08	1.365860e+12	0.000000e+00	4.469697e-01	4.769731e+13	2.059776e+14	1.088054e+14	6.720945e+03	2.726716e+03	1.877979e+03	0	4.470015e-04
6.700000e+08	1.342577e+12	0.000000e+00	4.469697e-01	4.697269e+13	2.038317e+14	1.082800e+14	6.705232e+03	2.723714e+03	1.875912e+03	0	4.444470e-04
6.800000e+08	1.319921e+12	0.000000e+00	4.469697e-01	4.626743e+13	2.017387e+14	1.077582e+14	6.689757e+03	2.720765e+03	1.873881e+03	0	4.419327e-04
6.900000e+08	1.297868e+12	0.000000e+00	4.469697e-01	4.558079e+13	1.996965e+14	1.072400e+14	6.674512e+03	2.717869e+03	1.871886e+03	0	4.394577e-04
7.000000e+08	1.276396e+12	0.000000e+00	4.469697e-01	4.491207e+13	1.977031e+14	1.067255e+14	6.659493e+03	2.715024e+03	1.869926e+03	0	4.370208e-04
7.100000e+08	1.255483e+12	0.000000e+00	4.469697e-01	4.426061e+13	1.957567e+14	1.062146e+14	6.644693e+03	2.712226e+03	1.868000e+03	0	4.346209e-04
7.200000e+08	1.235109e+12	0.000000e+00	4.469697e-01	4.362577e+13	1.938554e+14	1.057073e+14	6.630107e+03	2.709477e+03	1.866106e+03	0	4.322570e-04
7.300000e+08	1.215253e+12	0.000000e+00	4.469697e-01	4.300694e+13	1.919976e+14	1.052035e+14	6.615728e+03	2.706772e+03	1.864244e+03	0	4.299281e-04
7.400000e+08	1.195898e+12	0.000000e+00	4.469697e-01	4.240356e+13	1.901817e+14	1.047032e+14	6.601553e+03	2.704112e+03	1.862412e+03	0	4.276334e-04
7.500000e+08	1.177024e+12	0.000000e+00	4.469697e-01	4.181508e+13	1.884060e+14	1.042064e+14	6.587576e+03	2.701495e+03	1.860609e+03	0	4.253718e-04
7.600000e+08	1.158616e+12	0.000000e+00	4.469697e-01	4.124096e+13	1.866692e+14	1.037131e+14	6.573791e+03	2.698920e+03	1.858835e+03	0	4.231426e-04
7.700000e+08	1.140657e+12	0.000000e+00	4.469697e-01	4.068071e+13	1.849698e+14	1.032232e+14	6.560195e+03	2.696384e+03	1.857089e+03	0	4.209449e-04
7.800000e+08	1.123131e+12	0.000000e+00	4.469697e-01	4.013385e+13	1.833066e+14	1.027367e+14	6.546783e+03	2.693888e+03	1.855370e+03	0	4.187778e-04
7.900000e+08	1.106023e+12	0.000000e+00	4.469697e-01	3.959993e+13	1.816783e+14	1.022536e+14	6.533550e+03	2.691430e+03	1.853677e+03	0	4.166407e-04
8.000000e+08	1.089320e+12	0.000000e+00	4.469697e-01	3.907850e+13	1.800836e+14	1.017739e+14	6.520493e+03	2.689009e+03	1.852009e+03	0	4.145327e-04
8.100000e+08	1.073008e+12	0.000000e+00	4.469697e-01	3.856916e+13	1.785215e+14	1.012974e+14	6.507607e+03	2.686623e+03	1.850366e+03	0	4.124531e-04
8.200000e+08	1.057074e+12	0.000000e+00	4.469697e-01	3.807150e+13	1.769908e+14	1.008243e+14	6.494887e+03	2.684272e+03	1.848747e+03	0	4.104013e-04
8.300000e+08	1.041505e+12	0.000000e+00	4.469697e-01	3.758514e+13	1.754905e+14	1.003544e+14	6.482332e+03	2.681955e+03	1.847151e+03	0	4.083765e-04
8.400000e+08	1.026290e+12	0.000000e+00	4.469697e-01	3.710971e+13	1.740197e+14	9.988781e+13	6.469936e+03	2.679671e+03	1.845578e+03	0	4.063781e-04
8.500000e+08	1.011417e+12	0.000000e+00	4.469697e-01	3.664486e+13	1.725772e+14	9.942442e+13	6.457696e+03	2.677418e+03	1.844027e+03	0	4.044054e-04
8.600000e+08	9.968754e+11	0.000000e+00	4.469697e-01	3.619026e+13	1.711623e+14	9.896421e+13	6.445608e+03	2.675197e+03	1.842497e+03	0	4.024580e-04
8.700000e+08	9.826545e+11	0.000000e+00	4.469697e-01	3.574558e+13	1.697741e+14	9.850718e+13	6.433670e+03	2.673006e+03	1.840987e+03	0	4.005350e-04
8.800000e+08	9.687443e+11	0.000000e+00	4.469697e-01	3.531052e+13	1.684117e+14	9.805328e+13	6.421879e+03	2.670844e+03	1.839498e+03	0	3.986361e-04
8.900000e+08	9.551353e+11	0.000000e+00	4.469697e-01	3.488478e+13	1.670743e+14	9.760251e+13	6.410230e+03	2.668710e+03	1.838029e+03	0	3.967606e-04
9.000000e+08	9.418182e+11	0.000000e+00	4.469697e-01	3.446807e+13	1.657612e+14	9.715483e+13	6.398720e+03	2.666605e+03	1.836579e+03	0	3.949080e-04
9.100000e+08	9.287841e+11	0.000000e+00	4.469697e-01	3.406012e+13	1.644717e+14	9.671022e+13	6.387348e+03	2.664526e+03	1.835147e+03	0	3.930778e-04
9.200000e+08	9.160244e+11	0.000000e+00	4.469697e-01	3.366066e+13	1.632049e+14	9.626865e+13	6.376110e+03	2.662474e+03	1.833734e+03	0	3.912694e-04
9.300000e+08	9.035311e+11	0.000000e+00	4.469697e-01	3.326945e+13	1.619603e+14	9.583011e+13	6.365003e+03	2.660448e+03	1.832338e+03	0	3.894825e-04
9.400000e+08	8.912961e+11	0.000000e+00	4.469697e-01	3.288624e+13	1.607373e+14	9.539456e+13	6.354025e+03	2.658446e+03	1.830960e+03	0	3.877165e-04
9.500000e+08	8.793120e+11	0.000000e+00	4.469697e-01	3.251080e+13	1.595351e+14	9.496198e+13	6.343172e+03	2.656470e+03	1.829598e+03	0	3.859709e-04
9.600000e+08	8.675713e+11	0.000000e+00	4.469697e-01	3.214290e+13	1.583531e+14	9.453236e+13	6.332443e+03	2.654516e+03	1.828253e+03	0	3.842454e-04
9.700000e+08	8.560672e+11	0.000000e+00	4.469697e-01	3.178232e+13	1.571910e+14	9.410566e+13	6.321835e+03	2.652586e+03	1.826924e+03	0	3.825394e-04
9.800000e+08	8.447928e+11	0.000000e+00	4.469697e-01	3.142886e+13	1.560479e+14	9.368186e+13	6.311346e+03	2.650679e+03	1.825610e+03	0	3.808526e-04
9.900000e+08	8.337416e+11	0.000000e+00	4.469697e-01	3.108232e+13	1.549235e+14	9.326094e+13	6.300973e+03	2.648794e+03	1.824312e+03	0	3.791846e-04
1.000000e+09	8.229074e+11	0.000000e+00	4.469697e-01	3.074250e+13	1.538172e+14	9.284288e+13	6.290713e+03	2.646930e+03	1.823029e+03	0	3.775350e-04
1.010000e+09	8.122841e+11	0.000000e+00	4.469697e-01	3.040922e+13	1.527286e+14	9.242766e+13	6.280566e+03	2.645088e+03	1.821760e+03	0	3.759034e-04
1.020000e+09	8.018659e+11	0.000000e+00	4.469697e-01	3.008230e+13	1.516571e+14	9.201525e+13	6.270527e+03	2.643266e+03	1.820505e+03	0	3.742894e-04
1.030000e+09	7.916472e+11	0.000000e+00	4.469697e-01	2.976155e+13	1.506023e+14	9.160563e+13	6.260597e+03	2.641464e+03	1.819264e+03	0	3.726926e-04
1.040000e+09	7.816225e+11	0.000000e+00	4.469697e-01	2.944683e+13	1.495638e+14	9.119878e+13	6.250772e+03	2.639682e+03	1.818036e+03	0	3.711128e-04
1.050000e+09	7.717866e+11	0.000000e+00	4.469697e-01	2.913796e+13	1.485411e+14	9.079467e+13	6.241050e+03	2.637919e+03	1.816822e+03	0	3.695495e-04
1.060000e+09	7.621345e+11	0.000000e+00	4.469697e-01	2.883479e+13	1.475338e+14	9.039330e+13	6.231430e+03	2.636174e+03	1.815620e+03	0	3.680025e-04
1.070000e+09	7.526613e+11	0.000000e+00	4.469697e-01	2.853717e+13	1.465416e+14	8.999462e+13	6.221910e+03	2.634448e+03	1.814432e+03	0	3.664714e-04
1.080000e+09	7.433624e+11	0.000000e+00	4.469697e-01	2.824495e+13	1.455641e+14	8.959863e+13	6.212488e+03	2.632740e+03	1.813255e+03	0	3.649559e-04
1.090000e+09	7.342330e+11	0.000000e+00	4.469697e-01	2.795800e+13	1.446008e+14	8.920530e+13	6.203162e+03	2.631049e+03	1.812091e+03	0	3.634557e-04
1.100000e+09	7.252690e+11	0.000000e+00	4.469697e-01	2.767617e+13	1.436515e+14	8.881461e+13	6.193930e+03	2.629376e+03	1.810938e+03	0	3.619706e-04
1.110000e+09	7.164659e+11	0.000000e+00	4.469697e-01	2.739934e+13	1.427158e+14	8.842654e+13	6.184791e+03	2.627719e+03	1.809797e+03	0	3.605001e-04
1.120000e+09	7.078198e+11	0.000000e+00	4.469697e-01	2.712738e+13	1.417934e+14	8.804107e+13	6.175743e+03	2.626078e+03	1.808667e+03	0	3.590441e-04
1.130000e+09	6.993267e+11	0.000000e+00	4.469697e-01	2.686017e+13	1.408839e+14	8.765818e+13	6.166785e+03	2.624454e+03	1.807548e+03	0	3.576023e-04
1.140000e+09	6.909826e+11	0.000000e+00	4.469697e-01	2.659759e+13	1.399870e+14	8.727786e+13	6.157914e+03	2.622845e+03	1.806440e+03	0	3.561743e-04
1.150000e+09	6.827840e+11	0.000000e+00	4.469697e-01	2.633953e+13	1.391025e+14	8.690007e+13	6.149130e+03	2.621252e+03	1.805343e+03	0	3.547600e-04
1.160000e+09	6.747271e+11	0.000000e+00	4.469697e-01	2.608586e+13	1.382301e+14	8.652479e+13	6.140431e+03	2.619674e+03	1.804256e+03	0	3.533591e-04
1.170000e+09	6.668086e+11	0.000000e+00	4.469697e-01	2.583650e+13	1.373695e+14	8.615202e+13	6.131815e+03	2.618110e+03	1.803179e+03	0	3.519713e-04
1.180000e+09	6.590250e+11	0.000000e+00	4.469697e-01	2.559132e+13	1.365204e+14	8.578173e+13	6.123282e+03	2.616561e+03	1.802112e+03	0	3.505965e-04
1.190000e+09	6.513732e+11	0.000000e+00	4.469697e-01	2.535024e+13	1.356825e+14	8.541391e+13	6.114829e+03	2.615026e+03	1.801055e+03	0	3.492343e-04
1.200000e+09	6.438498e+11	0.000000e+00	4.469697e-01	2.511315e+13	1.348556e+14	8.504852e+13	6.106456e+03	2.613505e+03	1.800007e+03	0	3.478845e-04
1.210000e+09	6.364520e+11	0.000000e+00	4.469697e-01	2.487996e+13	1.340395e+14	8.468556e+13	6.098160e+03	2.611998e+03	1.798969e+03	0	3.465470e-04
1.220000e+09	6.291766e+11	0.000000e+00	4.469697e-01	2.465057e+13	1.332339e+14	8.432500e+13	6.089941e+03	2.610504e+03	1.797940e+03	0	3.452214e-04
1.230000e+09	6.220209e+11	0.000000e+00	4.469697e-01	2.442491e+13	1.324386e+14	8.396682e+13	6.081798e+03	2.609022e+03	1.796920e+03	0	3.439077e-04
1.240000e+09	6.149820e+11	0.000000e+00	4.469697e-01	2.420288e+13	1.316534e+14	8.361102e+13	6.073730e+03	2.607554e+03	1.795909e+03	0	3.426055e-04
1.250000e+09	6.080573e+11	0.000000e+00	4.469697e-01	2.398439e+13	1.308780e+14	8.325756e+13	6.065734e+03	2.606098e+03	1.794906e+03	0	3.413148e-04
1.260000e+09	6.012441e+11	0.000000e+00	4.469697e-01	2.376938e+13	1.301123e+14	8.290644e+13	6.057810e+03	2.604655e+03	1.793912e+03	0	3.400352e-04
1.270000e+09	5.945398e+11	0.000000e+00	4.469697e-01	2.355775e+13	1.293560e+14	8.255762e+13	6.049957e+03	2.603224e+03	1.792926e+03	0	3.387666e-04
1.280000e+09	5.879420e+11	0.000000e+00	4.469697e-01	2.334943e+13	1.286090e+14	8.221110e+13	6.042174e+03	2.601804e+03	1.791949e+03	0	3.375088e-04
1.290000e+09	5.814484e+11	0.000000e+00	4.469697e-01	2.314436e+13	1.278710e+14	8.186686e+13	6.034459e+03	2.600397e+03	1.790979e+03	0	3.362616e-04
1.300000e+09	5.750565e+11	0.000000e+00	4.469697e-01	2.294245e+13	1.271419e+14	8.152488e+13	6.026812e+03	2.599000e+03	1.790017e+03	0	3.350249e-04
1.310000e+09	5.687641e+11	0.000000e+00	4.469697e-01	2.274363e+13	1.264215e+14	8.118514e+13	6.019232e+03	2.597615e+03	1.789064e+03	0	3.337984e-04
1.320000e+09	5.625690e+11	0.000000e+00	4.469697e-01	2.254785e+13	1.257096e+14	8.084762e+13	6.011717e+03	2.596241e+03	1.788117e+03	0	3.325821e-04
1.330000e+09	5.564691e+11	0.000000e+00	4.469697e-01	2.235502e+13	1.250061e+14	8.051232e+13	6.004266e+03	2.594878e+03	1.787178e+03	0	3.313756e-04
1.340000e+09	5.504623e+11	0.000000e+00	4.469697e-01	2.216510e+13	1.243108e+14	8.017920e+13	5.996879e+03	2.593525e+03	1.786247e+03	0	3.301790e-04
1.350000e+09	5.445466e+11	0.000000e+00	4.469697e-01	2.197801e+13	1.236234e+14	7.984825e+13	5.989555e+03	2.592183e+03	1.785322e+03	0	3.289919e-04
1.360000e+09	5.387201e+11	0.000000e+00	4.469697e-01	2.179369e+13	1.229440e+14	7.951947e+13	5.982292e+03	2.590851e+03	1.784405e+03	0	3.278143e-04
