#t		Qconv[W]	Ri[Rp]		R*[Rp]		Qc[W]		Qm[W]		Qr[W]		Tcmb[K]		Tl[K]		Tup[K]		RiFlag		Bs[T]
0.000000e+00	2.529512e+13	0.000000e+00	4.469699e-01	6.314138e+14	1.852931e+15	2.094547e+14	1.133308e+04	3.859913e+03	2.525777e+03	0	1.159252e-03
1.000000e+07	2.352818e+13	0.000000e+00	4.469699e-01	5.883919e+14	1.703202e+15	2.082942e+14	1.118854e+04	3.816181e+03	2.497161e+03	0	1.131606e-03
2.000000e+07	2.196231e+13	0.000000e+00	4.469699e-01	5.502546e+14	1.575909e+15	2.071424e+14	1.105364e+04	3.776865e+03	2.471434e+03	0	1.105924e-03
3.000000e+07	2.056628e+13	0.000000e+00	4.469699e-01	5.162433e+14	1.466453e+15	2.059991e+14	1.092731e+04	3.741251e+03	2.448129e+03	0	1.081976e-03
4.000000e+07	1.931488e+13	0.000000e+00	4.469699e-01	4.857467e+14	1.371397e+15	2.048644e+14	1.080865e+04	3.708776e+03	2.426879e+03	0	1.059570e-03
5.000000e+07	1.818761e+13	0.000000e+00	4.469699e-01	4.582669e+14	1.288123e+15	2.037381e+14	1.069687e+04	3.678993e+03	2.407390e+03	0	1.038543e-03
6.000000e+07	1.716760e+13	0.000000e+00	4.469699e-01	4.333944e+14	1.214604e+15	2.026203e+14	1.059131e+04	3.651539e+03	2.389425e+03	0	1.018753e-03
7.000000e+07	1.624085e+13	0.000000e+00	4.469699e-01	4.107893e+14	1.149249e+15	2.015108e+14	1.049137e+04	3.626116e+03	2.372790e+03	0	1.000081e-03
8.000000e+07	1.539566e+13	0.000000e+00	4.469699e-01	3.901674e+14	1.090790e+15	2.004095e+14	1.039657e+04	3.602479e+03	2.357322e+03	0	9.824230e-04
9.000000e+07	1.462216e+13	0.000000e+00	4.469699e-01	3.712892e+14	1.038207e+15	1.993164e+14	1.030645e+04	3.580421e+03	2.342889e+03	0	9.656868e-04
1.000000e+08	1.391200e+13	0.000000e+00	4.469699e-01	3.539516e+14	9.906675e+14	1.982314e+14	1.022063e+04	3.559769e+03	2.329375e+03	0	9.497930e-04
1.100000e+08	1.325804e+13	0.000000e+00	4.469699e-01	3.379813e+14	9.474899e+14	1.971545e+14	1.013875e+04	3.540375e+03	2.316684e+03	0	9.346713e-04
1.200000e+08	1.265416e+13	0.000000e+00	4.469699e-01	3.232295e+14	9.081075e+14	1.960856e+14	1.006052e+04	3.522113e+03	2.304734e+03	0	9.202592e-04
1.300000e+08	1.209506e+13	0.000000e+00	4.469699e-01	3.095677e+14	8.720471e+14	1.950246e+14	9.985649e+03	3.504872e+03	2.293452e+03	0	9.065014e-04
1.400000e+08	1.157618e+13	0.000000e+00	4.469699e-01	2.968847e+14	8.389101e+14	1.939714e+14	9.913904e+03	3.488560e+03	2.282778e+03	0	8.933483e-04
1.500000e+08	1.109351e+13	0.000000e+00	4.469699e-01	2.850835e+14	8.083587e+14	1.929260e+14	9.845060e+03	3.473092e+03	2.272656e+03	0	8.807556e-04
1.600000e+08	1.064357e+13	0.000000e+00	4.469699e-01	2.740792e+14	7.801045e+14	1.918883e+14	9.778918e+03	3.458396e+03	2.263040e+03	0	8.686835e-04
1.700000e+08	1.022330e+13	0.000000e+00	4.469699e-01	2.637972e+14	7.539001e+14	1.908583e+14	9.715297e+03	3.444408e+03	2.253887e+03	0	8.570959e-04
1.800000e+08	9.829977e+12	0.000000e+00	4.469699e-01	2.541719e+14	7.295321e+14	1.898359e+14	9.654035e+03	3.431072e+03	2.245160e+03	0	8.459602e-04
1.900000e+08	9.461224e+12	0.000000e+00	4.469699e-01	2.451450e+14	7.068154e+14	1.888210e+14	9.594981e+03	3.418337e+03	2.236827e+03	0	8.352469e-04
2.000000e+08	9.114913e+12	0.000000e+00	4.469699e-01	2.366649e+14	6.855886e+14	1.878136e+14	9.538001e+03	3.406157e+03	2.228857e+03	0	8.249291e-04
2.100000e+08	8.789153e+12	0.000000e+00	4.469699e-01	2.286857e+14	6.657106e+14	1.868136e+14	9.482970e+03	3.394493e+03	2.221224e+03	0	8.149822e-04
2.200000e+08	8.482252e+12	0.000000e+00	4.469699e-01	2.211662e+14	6.470574e+14	1.858210e+14	9.429773e+03	3.383308e+03	2.213905e+03	0	8.053837e-04
2.300000e+08	8.192699e+12	0.000000e+00	4.469699e-01	2.140695e+14	6.295194e+14	1.848356e+14	9.378308e+03	3.372569e+03	2.206878e+03	0	7.961131e-04
2.400000e+08	7.919131e+12	0.000000e+00	4.469699e-01	2.073626e+14	6.129998e+14	1.838574e+14	9.328476e+03	3.362246e+03	2.200123e+03	0	7.871514e-04
2.500000e+08	7.660325e+12	0.000000e+00	4.469699e-01	2.010157e+14	5.974126e+14	1.828864e+14	9.280190e+03	3.352313e+03	2.193624e+03	0	7.784813e-04
2.600000e+08	7.415174e+12	0.000000e+00	4.469699e-01	1.950019e+14	5.826808e+14	1.819226e+14	9.233366e+03	3.342745e+03	2.187363e+03	0	7.700866e-04
2.700000e+08	7.182678e+12	0.000000e+00	4.469699e-01	1.892967e+14	5.687359e+14	1.809657e+14	9.187930e+03	3.333519e+03	2.181326e+03	0	7.619525e-04
2.800000e+08	6.961928e+12	0.000000e+00	4.469699e-01	1.838782e+14	5.555164e+14	1.800159e+14	9.143811e+03	3.324616e+03	2.175499e+03	0	7.540653e-04
2.900000e+08	6.752099e+12	0.000000e+00	4.469699e-01	1.787262e+14	5.429668e+14	1.790730e+14	9.100942e+03	3.316015e+03	2.169871e+03	0	7.464122e-04
3.000000e+08	6.552440e+12	0.000000e+00	4.469699e-01	1.738224e+14	5.310372e+14	1.781369e+14	9.059264e+03	3.307700e+03	2.164430e+03	0	7.389813e-04
3.100000e+08	6.362265e+12	0.000000e+00	4.469699e-01	1.691501e+14	5.196826e+14	1.772077e+14	9.018718e+03	3.299654e+03	2.159166e+03	0	7.317617e-04
3.200000e+08	6.180947e+12	0.000000e+00	4.469699e-01	1.646941e+14	5.088619e+14	1.762852e+14	8.979253e+03	3.291864e+03	2.154068e+03	0	7.247431e-04
3.300000e+08	6.007910e+12	0.000000e+00	4.469699e-01	1.604402e+14	4.985382e+14	1.753695e+14	8.940819e+03	3.284315e+03	2.149128e+03	0	7.179159e-04
3.400000e+08	5.842629e+12	0.000000e+00	4.469699e-01	1.563758e+14	4.886775e+14	1.744604e+14	8.903368e+03	3.276995e+03	2.144338e+03	0	7.112712e-04
3.500000e+08	5.684619e+12	0.000000e+00	4.469699e-01	1.524891e+14	4.792491e+14	1.735579e+14	8.866859e+03	3.269891e+03	2.139690e+03	0	7.048005e-04
3.600000e+08	5.533432e+12	0.000000e+00	4.469699e-01	1.487690e+14	4.702247e+14	1.726619e+14	8.831249e+03	3.262994e+03	2.135177e+03	0	6.984961e-04
3.700000e+08	5.388660e+12	0.000000e+00	4.469699e-01	1.452057e+14	4.615786e+14	1.717724e+14	8.796501e+03	3.256293e+03	2.130792e+03	0	6.923505e-04
3.800000e+08	5.249921e+12	0.000000e+00	4.469699e-01	1.417898e+14	4.532870e+14	1.708894e+14	8.762579e+03	3.249779e+03	2.126529e+03	0	6.863569e-04
3.900000e+08	5.116865e+12	0.000000e+00	4.469699e-01	1.385129e+14	4.453283e+14	1.700127e+14	8.729448e+03	3.243442e+03	2.122382e+03	0	6.805088e-04
4.000000e+08	4.989167e+12	0.000000e+00	4.469699e-01	1.353669e+14	4.376824e+14	1.691424e+14	8.697077e+03	3.237274e+03	2.118347e+03	0	6.748001e-04
4.100000e+08	4.866526e+12	0.000000e+00	4.469699e-01	1.323446e+14	4.303309e+14	1.682784e+14	8.665436e+03	3.231268e+03	2.114417e+03	0	6.692249e-04
4.200000e+08	4.748661e+12	0.000000e+00	4.469699e-01	1.294391e+14	4.232567e+14	1.674205e+14	8.634496e+03	3.225417e+03	2.110588e+03	0	6.637779e-04
4.300000e+08	4.635313e+12	0.000000e+00	4.469699e-01	1.266441e+14	4.164440e+14	1.665689e+14	8.604231e+03	3.219713e+03	2.106855e+03	0	6.584540e-04
4.400000e+08	4.526239e+12	0.000000e+00	4.469699e-01	1.239537e+14	4.098783e+14	1.657234e+14	8.574614e+03	3.214151e+03	2.103216e+03	0	6.532483e-04
4.500000e+08	4.421215e+12	0.000000e+00	4.469699e-01	1.213624e+14	4.035459e+14	1.648840e+14	8.545621e+03	3.208724e+03	2.099664e+03	0	6.481561e-04
4.600000e+08	4.320030e+12	0.000000e+00	4.469699e-01	1.188650e+14	3.974344e+14	1.640505e+14	8.517231e+03	3.203426e+03	2.096197e+03	0	6.431733e-04
4.700000e+08	4.222487e+12	0.000000e+00	4.469699e-01	1.164568e+14	3.915320e+14	1.632231e+14	8.489421e+03	3.198252e+03	2.092812e+03	0	6.382956e-04
4.800000e+08	4.128404e+12	0.000000e+00	4.469699e-01	1.141332e+14	3.858279e+14	1.624016e+14	8.462170e+03	3.193198e+03	2.089505e+03	0	6.335193e-04
4.900000e+08	4.037607e+12	0.000000e+00	4.469699e-01	1.118902e+14	3.803118e+14	1.615860e+14	8.435459e+03	3.188258e+03	2.086272e+03	0	6.288405e-04
5.000000e+08	3.949938e+12	0.000000e+00	4.469699e-01	1.097237e+14	3.749744e+14	1.607762e+14	8.409270e+03	3.183427e+03	2.083111e+03	0	6.242557e-04
5.100000e+08	3.865244e+12	0.000000e+00	4.469699e-01	1.076302e+14	3.698068e+14	1.599722e+14	8.383585e+03	3.178703e+03	2.080020e+03	0	6.197617e-04
5.200000e+08	3.783384e+12	0.000000e+00	4.469699e-01	1.056060e+14	3.648006e+14	1.591739e+14	8.358386e+03	3.174080e+03	2.076995e+03	0	6.153553e-04
5.300000e+08	3.704226e+12	0.000000e+00	4.469699e-01	1.036481e+14	3.599482e+14	1.583813e+14	8.333659e+03	3.169554e+03	2.074033e+03	0	6.110334e-04
5.400000e+08	3.627644e+12	0.000000e+00	4.469699e-01	1.017533e+14	3.552423e+14	1.575944e+14	8.309387e+03	3.165123e+03	2.071134e+03	0	6.067931e-04
5.500000e+08	3.553521e+12	0.000000e+00	4.469699e-01	9.991872e+13	3.506761e+14	1.568131e+14	8.285555e+03	3.160782e+03	2.068293e+03	0	6.026318e-04
5.600000e+08	3.481745e+12	0.000000e+00	4.469699e-01	9.814174e+13	3.462431e+14	1.560373e+14	8.262151e+03	3.156529e+03	2.065510e+03	0	5.985468e-04
5.700000e+08	3.412214e+12	0.000000e+00	4.469699e-01	9.641979e+13	3.419374e+14	1.552670e+14	8.239161e+03	3.152360e+03	2.062782e+03	0	5.945356e-04
5.800000e+08	3.344828e+12	0.000000e+00	4.469699e-01	9.475044e+13	3.377533e+14	1.545022e+14	8.216572e+03	3.148272e+03	2.060107e+03	0	5.905958e-04
5.900000e+08	3.279494e+12	0.000000e+00	4.469699e-01	9.313144e+13	3.336855e+14	1.537428e+14	8.194371e+03	3.144263e+03	2.057484e+03	0	5.867252e-04
6.000000e+08	3.216125e+12	0.000000e+00	4.469699e-01	9.156064e+13	3.297289e+14	1.529888e+14	8.172548e+03	3.140330e+03	2.054910e+03	0	5.829215e-04
6.100000e+08	3.154638e+12	0.000000e+00	4.469699e-01	9.003601e+13	3.258789e+14	1.522401e+14	8.151090e+03	3.136469e+03	2.052384e+03	0	5.791828e-04
6.200000e+08	3.094955e+12	0.000000e+00	4.469699e-01	8.855564e+13	3.221308e+14	1.514968e+14	8.129988e+03	3.132680e+03	2.049904e+03	0	5.755069e-04
6.300000e+08	3.037000e+12	0.000000e+00	4.469699e-01	8.711771e+13	3.184806e+14	1.507586e+14	8.109231e+03	3.128959e+03	2.047469e+03	0	5.718920e-04
6.400000e+08	2.980704e+12	0.000000e+00	4.469699e-01	8.572050e+13	3.149242e+14	1.500257e+14	8.088809e+03	3.125304e+03	2.045077e+03	0	5.683363e-04
6.500000e+08	2.926000e+12	0.000000e+00	4.469699e-01	8.436238e+13	3.114579e+14	1.492979e+14	8.068713e+03	3.121713e+03	2.042728e+03	0	5.648380e-04
6.600000e+08	2.872825e+12	0.000000e+00	4.469699e-01	8.304181e+13	3.080780e+14	1.485753e+14	8.048933e+03	3.118184e+03	2.040418e+03	0	5.613954e-04
6.700000e+08	2.821118e+12	0.000000e+00	4.469699e-01	8.175731e+13	3.047811e+14	1.478577e+14	8.029461e+03	3.114715e+03	2.038149e+03	0	5.580069e-04
6.800000e+08	2.770823e+12	0.000000e+00	4.469699e-01	8.050749e+13	3.015641e+14	1.471452e+14	8.010289e+03	3.111304e+03	2.035917e+03	0	5.546709e-04
6.900000e+08	2.721886e+12	0.000000e+00	4.469699e-01	7.929103e+13	2.984240e+14	1.464377e+14	7.991409e+03	3.107950e+03	2.033722e+03	0	5.513860e-04
7.000000e+08	2.674255e+12	0.000000e+00	4.469699e-01	7.810666e+13	2.953577e+14	1.457351e+14	7.972812e+03	3.104650e+03	2.031563e+03	0	5.481508e-04
7.100000e+08	2.627881e+12	0.000000e+00	4.469699e-01	7.695319e+13	2.923626e+14	1.450374e+14	7.954492e+03	3.101404e+03	2.029438e+03	0	5.449638e-04
7.200000e+08	2.582717e+12	0.000000e+00	4.469699e-01	7.582948e+13	2.894360e+14	1.443447e+14	7.936441e+03	3.098208e+03	2.027347e+03	0	5.418238e-04
7.300000e+08	2.538719e+12	0.000000e+00	4.469699e-01	7.473443e+13	2.865754e+14	1.436567e+14	7.918652e+03	3.095063e+03	2.025289e+03	0	5.387294e-04
7.400000e+08	2.495845e+12	0.000000e+00	4.469699e-01	7.366701e+13	2.837786e+14	1.429736e+14	7.901119e+03	3.091966e+03	2.023263e+03	0	5.356794e-04
7.500000e+08	2.454054e+12	0.000000e+00	4.469699e-01	7.262624e+13	2.810431e+14	1.422953e+14	7.883834e+03	3.088917e+03	2.021267e+03	0	5.326727e-04
7.600000e+08	2.413307e+12	0.000000e+00	4.469699e-01	7.161117e+13	2.783670e+14	1.416216e+14	7.866793e+03	3.085913e+03	2.019301e+03	0	5.297082e-04
7.700000e+08	2.373569e+12	0.000000e+00	4.469699e-01	7.062091e+13	2.757480e+14	1.409527e+14	7.849989e+03	3.082953e+03	2.017365e+03	0	5.267846e-04
7.800000e+08	2.334804e+12	0.000000e+00	4.469699e-01	6.965458e+13	2.731844e+14	1.402884e+14	7.833417e+03	3.080037e+03	2.015457e+03	0	5.239010e-04
7.900000e+08	2.296978e+12	0.000000e+00	4.469699e-01	6.871138e+13	2.706741e+14	1.396287e+14	7.817070e+03	3.077163e+03	2.013576e+03	0	5.210564e-04
8.000000e+08	2.260059e+12	0.000000e+00	4.469699e-01	6.779051e+13	2.682154e+14	1.389736e+14	7.800943e+03	3.074329e+03	2.011722e+03	0	5.182497e-04
8.100000e+08	2.224017e+12	0.000000e+00	4.469699e-01	6.689123e+13	2.658067e+14	1.383230e+14	7.785031e+03	3.071535e+03	2.009894e+03	0	5.154800e-04
8.200000e+08	2.188822e+12	0.000000e+00	4.469699e-01	6.601282e+13	2.634463e+14	1.376769e+14	7.769330e+03	3.068780e+03	2.008091e+03	0	5.127464e-04
8.300000e+08	2.154447e+12	0.000000e+00	4.469699e-01	6.515458e+13	2.611326e+14	1.370353e+14	7.753833e+03	3.066063e+03	2.006313e+03	0	5.100480e-04
8.400000e+08	2.120864e+12	0.000000e+00	4.469699e-01	6.431587e+13	2.588641e+14	1.363981e+14	7.738538e+03	3.063382e+03	2.004559e+03	0	5.073839e-04
8.500000e+08	2.088048e+12	0.000000e+00	4.469699e-01	6.349606e+13	2.566394e+14	1.357654e+14	7.723438e+03	3.060738e+03	2.002828e+03	0	5.047534e-04
8.600000e+08	2.055974e+12	0.000000e+00	4.469699e-01	6.269453e+13	2.544573e+14	1.351369e+14	7.708530e+03	3.058128e+03	2.001120e+03	0	5.021556e-04
8.700000e+08	2.024618e+12	0.000000e+00	4.469699e-01	6.191071e+13	2.523162e+14	1.345129e+14	7.693809e+03	3.055551e+03	1.999434e+03	0	4.995897e-04
8.800000e+08	1.993958e+12	0.000000e+00	4.469699e-01	6.114404e+13	2.502151e+14	1.338931e+14	7.679272e+03	3.053008e+03	1.997770e+03	0	4.970550e-04
8.900000e+08	1.963973e+12	0.000000e+00	4.469699e-01	6.039399e+13	2.481526e+14	1.332775e+14	7.664914e+03	3.050497e+03	1.996127e+03	0	4.945508e-04
9.000000e+08	1.934640e+12	0.000000e+00	4.469699e-01	5.966005e+13	2.461277e+14	1.326662e+14	7.650731e+03	3.048018e+03	1.994505e+03	0	4.920764e-04
9.100000e+08	1.905941e+12	0.000000e+00	4.469699e-01	5.894173e+13	2.441392e+14	1.320591e+14	7.636720e+03	3.045569e+03	1.992902e+03	0	4.896310e-04
9.200000e+08	1.877855e+12	0.000000e+00	4.469699e-01	5.823855e+13	2.421860e+14	1.314561e+14	7.622877e+03	3.043150e+03	1.991319e+03	0	4.872141e-04
9.300000e+08	1.850365e+12	0.000000e+00	4.469699e-01	5.755006e+13	2.402672e+14	1.308573e+14	7.609198e+03	3.040761e+03	1.989756e+03	0	4.848249e-04
9.400000e+08	1.823452e+12	0.000000e+00	4.469699e-01	5.687583e+13	2.383818e+14	1.302625e+14	7.595680e+03	3.038399e+03	1.988211e+03	0	4.824629e-04
9.500000e+08	1.797100e+12	0.000000e+00	4.469699e-01	5.621543e+13	2.365288e+14	1.296718e+14	7.582320e+03	3.036066e+03	1.986684e+03	0	4.801275e-04
9.600000e+08	1.771292e+12	0.000000e+00	4.469699e-01	5.556846e+13	2.347073e+14	1.290852e+14	7.569115e+03	3.033760e+03	1.985175e+03	0	4.778180e-04
9.700000e+08	1.746013e+12	0.000000e+00	4.469699e-01	5.493453e+13	2.329164e+14	1.285025e+14	7.556061e+03	3.031480e+03	1.983683e+03	0	4.755340e-04
9.800000e+08	1.721246e+12	0.000000e+00	4.469699e-01	5.431327e+13	2.311554e+14	1.279238e+14	7.543155e+03	3.029227e+03	1.982208e+03	0	4.732748e-04
9.900000e+08	1.696977e+12	0.000000e+00	4.469699e-01	5.370432e+13	2.294233e+14	1.273491e+14	7.530395e+03	3.026998e+03	1.980750e+03	0	4.710400e-04
1.000000e+09	1.673193e+12	0.000000e+00	4.469699e-01	5.310733e+13	2.277194e+14	1.267782e+14	7.517777e+03	3.024795e+03	1.979308e+03	0	4.688290e-04
1.010000e+09	1.649879e+12	0.000000e+00	4.469699e-01	5.252197e+13	2.260430e+14	1.262112e+14	7.505299e+03	3.022616e+03	1.977882e+03	0	4.666413e-04
1.020000e+09	1.627023e+12	0.000000e+00	4.469699e-01	5.194792e+13	2.243933e+14	1.256480e+14	7.492958e+03	3.020460e+03	1.976472e+03	0	4.644764e-04
1.030000e+09	1.604611e+12	0.000000e+00	4.469699e-01	5.138485e+13	2.227697e+14	1.250887e+14	7.480751e+03	3.018327e+03	1.975076e+03	0	4.623339e-04
1.040000e+09	1.582632e+12	0.000000e+00	4.469699e-01	5.083248e+13	2.211715e+14	1.245331e+14	7.468676e+03	3.016218e+03	1.973696e+03	0	4.602133e-04
1.050000e+09	1.561074e+12	0.000000e+00	4.469699e-01	5.029052e+13	2.195979e+14	1.239813e+14	7.456731e+03	3.014130e+03	1.972330e+03	0	4.581141e-04
1.060000e+09	1.539926e+12	0.000000e+00	4.469699e-01	4.975869e+13	2.180485e+14	1.234332e+14	7.444912e+03	3.012064e+03	1.970978e+03	0	4.560359e-04
1.070000e+09	1.519176e+12	0.000000e+00	4.469699e-01	4.923671e+13	2.165225e+14	1.228889e+14	7.433218e+03	3.010019e+03	1.969640e+03	0	4.539783e-04
1.080000e+09	1.498813e+12	0.000000e+00	4.469699e-01	4.872433e+13	2.150195e+14	1.223481e+14	7.421646e+03	3.007995e+03	1.968315e+03	0	4.519409e-04
1.090000e+09	1.478829e+12	0.000000e+00	4.469699e-01	4.822129e+13	2.135388e+14	1.218110e+14	7.410194e+03	3.005992e+03	1.967004e+03	0	4.499232e-04
1.100000e+09	1.459212e+12	0.000000e+00	4.469699e-01	4.772736e+13	2.120799e+14	1.212775e+14	7.398860e+03	3.004008e+03	1.965706e+03	0	4.479250e-04
1.110000e+09	1.439954e+12	0.000000e+00	4.469699e-01	4.724229e+13	2.106422e+14	1.207476e+14	7.387641e+03	3.002044e+03	1.964421e+03	0	4.459457e-04
1.120000e+09	1.421045e+12	0.000000e+00	4.469699e-01	4.676587e+13	2.092253e+14	1.202213e+14	7.376536e+03	3.000099e+03	1.963148e+03	0	4.439850e-04
1.130000e+09	1.402475e+12	0.000000e+00	4.469699e-01	4.629787e+13	2.078287e+14	1.196984e+14	7.365543e+03	2.998172e+03	1.961888e+03	0	4.420427e-04
1.140000e+09	1.384238e+12	0.000000e+00	4.469699e-01	4.583808e+13	2.064519e+14	1.191791e+14	7.354659e+03	2.996264e+03	1.960639e+03	0	4.401182e-04
1.150000e+09	1.366323e+12	0.000000e+00	4.469699e-01	4.538629e+13	2.050945e+14	1.186632e+14	7.343883e+03	2.994374e+03	1.959402e+03	0	4.382113e-04
1.160000e+09	1.348724e+12	0.000000e+00	4.469699e-01	4.494231e+13	2.037559e+14	1.181508e+14	7.333213e+03	2.992502e+03	1.958177e+03	0	4.363217e-04
1.170000e+09	1.331432e+12	0.000000e+00	4.469699e-01	4.450595e+13	2.024358e+14	1.176417e+14	7.322647e+03	2.990647e+03	1.956963e+03	0	4.344490e-04
1.180000e+09	1.314440e+12	0.000000e+00	4.469699e-01	4.407701e+13	2.011337e+14	1.171361e+14	7.312183e+03	2.988809e+03	1.955761e+03	0	4.325928e-04
1.190000e+09	1.297740e+12	0.000000e+00	4.469699e-01	4.365532e+13	1.998492e+14	1.166338e+14	7.301820e+03	2.986988e+03	1.954569e+03	0	4.307530e-04
1.200000e+09	1.281325e+12	0.000000e+00	4.469699e-01	4.324071e+13	1.985820e+14	1.161349e+14	7.291556e+03	2.985182e+03	1.953388e+03	0	4.289292e-04
1.210000e+09	1.265189e+12	0.000000e+00	4.469699e-01	4.283300e+13	1.973317e+14	1.156393e+14	7.281388e+03	2.983393e+03	1.952217e+03	0	4.271210e-04
1.220000e+09	1.249325e+12	0.000000e+00	4.469699e-01	4.243203e+13	1.960979e+14	1.151469e+14	7.271317e+03	2.981620e+03	1.951056e+03	0	4.253283e-04
1.230000e+09	1.233726e+12	0.000000e+00	4.469699e-01	4.203764e+13	1.948802e+14	1.146578e+14	7.261339e+03	2.979862e+03	1.949906e+03	0	4.235506e-04
1.240000e+09	1.218386e+12	0.000000e+00	4.469699e-01	4.164968e+13	1.936782e+14	1.141720e+14	7.251453e+03	2.978119e+03	1.948766e+03	0	4.217879e-04
1.250000e+09	1.203299e+12	0.000000e+00	4.469699e-01	4.126799e+13	1.924918e+14	1.136893e+14	7.241659e+03	2.976391e+03	1.947635e+03	0	4.200397e-04
1.260000e+09	1.188459e+12	0.000000e+00	4.469699e-01	4.089245e+13	1.913205e+14	1.132098e+14	7.231954e+03	2.974678e+03	1.946514e+03	0	4.183058e-04
1.270000e+09	1.173861e+12	0.000000e+00	4.469699e-01	4.052289e+13	1.901640e+14	1.127335e+14	7.222337e+03	2.972979e+03	1.945402e+03	0	4.165860e-04
1.280000e+09	1.159499e+12	0.000000e+00	4.469699e-01	4.015919e+13	1.890220e+14	1.122604e+14	7.212807e+03	2.971294e+03	1.944299e+03	0	4.148800e-04
1.290000e+09	1.145367e+12	0.000000e+00	4.469699e-01	3.980122e+13	1.878942e+14	1.117903e+14	7.203362e+03	2.969623e+03	1.943206e+03	0	4.131876e-04
1.300000e+09	1.131460e+12	0.000000e+00	4.469699e-01	3.944884e+13	1.867803e+14	1.113233e+14	7.194001e+03	2.967965e+03	1.942121e+03	0	4.115086e-04
1.310000e+09	1.117774e+12	0.000000e+00	4.469699e-01	3.910193e+13	1.856800e+14	1.108594e+14	7.184722e+03	2.966321e+03	1.941046e+03	0	4.098426e-04
1.320000e+09	1.104303e+12	0.000000e+00	4.469699e-01	3.876038e+13	1.845932e+14	1.103985e+14	7.175525e+03	2.964690e+03	1.939978e+03	0	4.081896e-04
1.330000e+09	1.091043e+12	0.000000e+00	4.469699e-01	3.842405e+13	1.835194e+14	1.099406e+14	7.166408e+03	2.963072e+03	1.938919e+03	0	4.065492e-04
1.340000e+09	1.077989e+12	0.000000e+00	4.469699e-01	3.809284e+13	1.824585e+14	1.094858e+14	7.157370e+03	2.961467e+03	1.937869e+03	0	4.049212e-04
1.350000e+09	1.065136e+12	0.000000e+00	4.469699e-01	3.776664e+13	1.814101e+14	1.090339e+14	7.148409e+03	2.959874e+03	1.936826e+03	0	4.033054e-04
1.360000e+09	1.052480e+12	0.000000e+00	4.469699e-01	3.744534e+13	1.803741e+14	1.085849e+14	7.139525e+03	2.958293e+03	1.935792e+03	0	4.017017e-04
