#t		Qconv[W]	Ri[Rp]		R*[Rp]		Qc[W]		Qm[W]		Qr[W]		Tcmb[K]		Tl[K]		Tup[K]		RiFlag		Bs[T]
0.000000e+00	3.175396e+13	0.000000e+00	4.503815e-01	7.260588e+14	1.891385e+15	2.315852e+14	1.214746e+04	3.986595e+03	2.583019e+03	0	1.238799e-03
1.000000e+07	2.968251e+13	0.000000e+00	4.503815e-01	6.800715e+14	1.760459e+15	2.303021e+14	1.200207e+04	3.949849e+03	2.559210e+03	0	1.211254e-03
2.000000e+07	2.782938e+13	0.000000e+00	4.503815e-01	6.389178e+14	1.646608e+15	2.290285e+14	1.186570e+04	3.916296e+03	2.537470e+03	0	1.185503e-03
3.000000e+07	2.616321e+13	0.000000e+00	4.503815e-01	6.019041e+14	1.546745e+15	2.277645e+14	1.173743e+04	3.885481e+03	2.517504e+03	0	1.161356e-03
4.000000e+07	2.465829e+13	0.000000e+00	4.503815e-01	5.684614e+14	1.458481e+15	2.265099e+14	1.161647e+04	3.857035e+03	2.499073e+03	0	1.138647e-03
5.000000e+07	2.329328e+13	0.000000e+00	4.503815e-01	5.381183e+14	1.379934e+15	2.252646e+14	1.150210e+04	3.830658e+03	2.481983e+03	0	1.117237e-03
6.000000e+07	2.205042e+13	0.000000e+00	4.503815e-01	5.104813e+14	1.309607e+15	2.240287e+14	1.139374e+04	3.806101e+03	2.466072e+03	0	1.097002e-03
7.000000e+07	2.091475e+13	0.000000e+00	4.503815e-01	4.852195e+14	1.246291e+15	2.228019e+14	1.129086e+04	3.783154e+03	2.451204e+03	0	1.077836e-03
8.000000e+07	1.987360e+13	0.000000e+00	4.503815e-01	4.620528e+14	1.189001e+15	2.215843e+14	1.119299e+04	3.761641e+03	2.437265e+03	0	1.059645e-03
9.000000e+07	1.891620e+13	0.000000e+00	4.503815e-01	4.407425e+14	1.136928e+15	2.203757e+14	1.109972e+04	3.741414e+03	2.424159e+03	0	1.042348e-03
1.000000e+08	1.803329e+13	0.000000e+00	4.503815e-01	4.210840e+14	1.089399e+15	2.191761e+14	1.101069e+04	3.722343e+03	2.411803e+03	0	1.025872e-03
1.100000e+08	1.721693e+13	0.000000e+00	4.503815e-01	4.029012e+14	1.045852e+15	2.179854e+14	1.092558e+04	3.704318e+03	2.400124e+03	0	1.010152e-03
1.200000e+08	1.646022e+13	0.000000e+00	4.503815e-01	3.860415e+14	1.005811e+15	2.168035e+14	1.084409e+04	3.687243e+03	2.389061e+03	0	9.951307e-04
1.300000e+08	1.575717e+13	0.000000e+00	4.503815e-01	3.703721e+14	9.688750e+14	2.156304e+14	1.076597e+04	3.671034e+03	2.378558e+03	0	9.807560e-04
1.400000e+08	1.510253e+13	0.000000e+00	4.503815e-01	3.557772e+14	9.346997e+14	2.144659e+14	1.069097e+04	3.655617e+03	2.368569e+03	0	9.669815e-04
1.500000e+08	1.449173e+13	0.000000e+00	4.503815e-01	3.421549e+14	9.029898e+14	2.133101e+14	1.061889e+04	3.640928e+03	2.359052e+03	0	9.537656e-04
1.600000e+08	1.392071e+13	0.000000e+00	4.503815e-01	3.294157e+14	8.734903e+14	2.121628e+14	1.054954e+04	3.626908e+03	2.349968e+03	0	9.410702e-04
1.700000e+08	1.338590e+13	0.000000e+00	4.503815e-01	3.174805e+14	8.459798e+14	2.110240e+14	1.048274e+04	3.613506e+03	2.341285e+03	0	9.288612e-04
1.800000e+08	1.288414e+13	0.000000e+00	4.503815e-01	3.062790e+14	8.202653e+14	2.098935e+14	1.041833e+04	3.600677e+03	2.332973e+03	0	9.171071e-04
1.900000e+08	1.241260e+13	0.000000e+00	4.503815e-01	2.957488e+14	7.961777e+14	2.087714e+14	1.035617e+04	3.588380e+03	2.325005e+03	0	9.057795e-04
2.000000e+08	1.196877e+13	0.000000e+00	4.503815e-01	2.858341e+14	7.735683e+14	2.076576e+14	1.029612e+04	3.576577e+03	2.317357e+03	0	8.948525e-04
2.100000e+08	1.155040e+13	0.000000e+00	4.503815e-01	2.764850e+14	7.523057e+14	2.065519e+14	1.023807e+04	3.565234e+03	2.310008e+03	0	8.843020e-04
2.200000e+08	1.115547e+13	0.000000e+00	4.503815e-01	2.676568e+14	7.322737e+14	2.054543e+14	1.018189e+04	3.554322e+03	2.302938e+03	0	8.741063e-04
2.300000e+08	1.078216e+13	0.000000e+00	4.503815e-01	2.593092e+14	7.133687e+14	2.043649e+14	1.012748e+04	3.543814e+03	2.296129e+03	0	8.642451e-04
2.400000e+08	1.042884e+13	0.000000e+00	4.503815e-01	2.514059e+14	6.954986e+14	2.032834e+14	1.007476e+04	3.533683e+03	2.289565e+03	0	8.546998e-04
2.500000e+08	1.009402e+13	0.000000e+00	4.503815e-01	2.439139e+14	6.785807e+14	2.022098e+14	1.002363e+04	3.523907e+03	2.283231e+03	0	8.454533e-04
2.600000e+08	9.776356e+12	0.000000e+00	4.503815e-01	2.368035e+14	6.625409e+14	2.011440e+14	9.974002e+03	3.514465e+03	2.277113e+03	0	8.364897e-04
2.700000e+08	9.474634e+12	0.000000e+00	4.503815e-01	2.300476e+14	6.473125e+14	2.000861e+14	9.925810e+03	3.505337e+03	2.271199e+03	0	8.277942e-04
2.800000e+08	9.187743e+12	0.000000e+00	4.503815e-01	2.236217e+14	6.328355e+14	1.990359e+14	9.878981e+03	3.496507e+03	2.265478e+03	0	8.193533e-04
2.900000e+08	8.914671e+12	0.000000e+00	4.503815e-01	2.175032e+14	6.190552e+14	1.979934e+14	9.833447e+03	3.487957e+03	2.259938e+03	0	8.111541e-04
3.000000e+08	8.654493e+12	0.000000e+00	4.503815e-01	2.116718e+14	6.059226e+14	1.969584e+14	9.789148e+03	3.479673e+03	2.254570e+03	0	8.031848e-04
3.100000e+08	8.406366e+12	0.000000e+00	4.503815e-01	2.061085e+14	5.933926e+14	1.959310e+14	9.746026e+03	3.471640e+03	2.249366e+03	0	7.954344e-04
3.200000e+08	8.169512e+12	0.000000e+00	4.503815e-01	2.007963e+14	5.814245e+14	1.949111e+14	9.704028e+03	3.463845e+03	2.244315e+03	0	7.878925e-04
3.300000e+08	7.943221e+12	0.000000e+00	4.503815e-01	1.957192e+14	5.699810e+14	1.938986e+14	9.663103e+03	3.456277e+03	2.239412e+03	0	7.805495e-04
3.400000e+08	7.726836e+12	0.000000e+00	4.503815e-01	1.908628e+14	5.590281e+14	1.928934e+14	9.623204e+03	3.448925e+03	2.234648e+03	0	7.733964e-04
3.500000e+08	7.519756e+12	0.000000e+00	4.503815e-01	1.862136e+14	5.485345e+14	1.918956e+14	9.584286e+03	3.441777e+03	2.230017e+03	0	7.664247e-04
3.600000e+08	7.321423e+12	0.000000e+00	4.503815e-01	1.817594e+14	5.384717e+14	1.909049e+14	9.546309e+03	3.434824e+03	2.225512e+03	0	7.596265e-04
3.700000e+08	7.131323e+12	0.000000e+00	4.503815e-01	1.774886e+14	5.288133e+14	1.899215e+14	9.509233e+03	3.428057e+03	2.221128e+03	0	7.529942e-04
3.800000e+08	6.948980e+12	0.000000e+00	4.503815e-01	1.733906e+14	5.195350e+14	1.889452e+14	9.473022e+03	3.421468e+03	2.216858e+03	0	7.465208e-04
3.900000e+08	6.773953e+12	0.000000e+00	4.503815e-01	1.694558e+14	5.106146e+14	1.879759e+14	9.437640e+03	3.415048e+03	2.212699e+03	0	7.401998e-04
4.000000e+08	6.605833e+12	0.000000e+00	4.503815e-01	1.656750e+14	5.020314e+14	1.870136e+14	9.403055e+03	3.408790e+03	2.208644e+03	0	7.340249e-04
4.100000e+08	6.444240e+12	0.000000e+00	4.503815e-01	1.620397e+14	4.937661e+14	1.860582e+14	9.369236e+03	3.402688e+03	2.204690e+03	0	7.279901e-04
4.200000e+08	6.288822e+12	0.000000e+00	4.503815e-01	1.585422e+14	4.858013e+14	1.851098e+14	9.336154e+03	3.396733e+03	2.200832e+03	0	7.220900e-04
4.300000e+08	6.139248e+12	0.000000e+00	4.503815e-01	1.551750e+14	4.781204e+14	1.841682e+14	9.303780e+03	3.390921e+03	2.197066e+03	0	7.163193e-04
4.400000e+08	5.995212e+12	0.000000e+00	4.503815e-01	1.519314e+14	4.707081e+14	1.832333e+14	9.272089e+03	3.385245e+03	2.193388e+03	0	7.106729e-04
4.500000e+08	5.856429e+12	0.000000e+00	4.503815e-01	1.488051e+14	4.635504e+14	1.823052e+14	9.241056e+03	3.379699e+03	2.189795e+03	0	7.051463e-04
4.600000e+08	5.722630e+12	0.000000e+00	4.503815e-01	1.457900e+14	4.566340e+14	1.813837e+14	9.210657e+03	3.374280e+03	2.186284e+03	0	6.997348e-04
4.700000e+08	5.593566e+12	0.000000e+00	4.503815e-01	1.428806e+14	4.499465e+14	1.804689e+14	9.180869e+03	3.368980e+03	2.182850e+03	0	6.944343e-04
4.800000e+08	5.469003e+12	0.000000e+00	4.503815e-01	1.400717e+14	4.434765e+14	1.795605e+14	9.151672e+03	3.363797e+03	2.179491e+03	0	6.892408e-04
4.900000e+08	5.348722e+12	0.000000e+00	4.503815e-01	1.373585e+14	4.372132e+14	1.786587e+14	9.123046e+03	3.358725e+03	2.176205e+03	0	6.841504e-04
5.000000e+08	5.232516e+12	0.000000e+00	4.503815e-01	1.347363e+14	4.311465e+14	1.777634e+14	9.094970e+03	3.353760e+03	2.172988e+03	0	6.791595e-04
5.100000e+08	5.120193e+12	0.000000e+00	4.503815e-01	1.322008e+14	4.252671e+14	1.768744e+14	9.067427e+03	3.348899e+03	2.169839e+03	0	6.742646e-04
5.200000e+08	5.011572e+12	0.000000e+00	4.503815e-01	1.297481e+14	4.195662e+14	1.759918e+14	9.040398e+03	3.344137e+03	2.166753e+03	0	6.694625e-04
5.300000e+08	4.906482e+12	0.000000e+00	4.503815e-01	1.273743e+14	4.140353e+14	1.751155e+14	9.013868e+03	3.339470e+03	2.163730e+03	0	6.647500e-04
5.400000e+08	4.804762e+12	0.000000e+00	4.503815e-01	1.250758e+14	4.086668e+14	1.742454e+14	8.987821e+03	3.334897e+03	2.160767e+03	0	6.601240e-04
5.500000e+08	4.706261e+12	0.000000e+00	4.503815e-01	1.228493e+14	4.034534e+14	1.733815e+14	8.962240e+03	3.330413e+03	2.157861e+03	0	6.555818e-04
5.600000e+08	4.610837e+12	0.000000e+00	4.503815e-01	1.206916e+14	3.983881e+14	1.725238e+14	8.937112e+03	3.326014e+03	2.155011e+03	0	6.511207e-04
5.700000e+08	4.518354e+12	0.000000e+00	4.503815e-01	1.185998e+14	3.934645e+14	1.716721e+14	8.912423e+03	3.321699e+03	2.152215e+03	0	6.467380e-04
5.800000e+08	4.428687e+12	0.000000e+00	4.503815e-01	1.165709e+14	3.886765e+14	1.708265e+14	8.888159e+03	3.317465e+03	2.149472e+03	0	6.424312e-04
5.900000e+08	4.341716e+12	0.000000e+00	4.503815e-01	1.146023e+14	3.840182e+14	1.699869e+14	8.864308e+03	3.313308e+03	2.146778e+03	0	6.381979e-04
6.000000e+08	4.257326e+12	0.000000e+00	4.503815e-01	1.126915e+14	3.794843e+14	1.691532e+14	8.840858e+03	3.309226e+03	2.144134e+03	0	6.340359e-04
6.100000e+08	4.175410e+12	0.000000e+00	4.503815e-01	1.108361e+14	3.750696e+14	1.683255e+14	8.817796e+03	3.305217e+03	2.141536e+03	0	6.299431e-04
6.200000e+08	4.095867e+12	0.000000e+00	4.503815e-01	1.090338e+14	3.707693e+14	1.675035e+14	8.795112e+03	3.301278e+03	2.138984e+03	0	6.259172e-04
6.300000e+08	4.018601e+12	0.000000e+00	4.503815e-01	1.072825e+14	3.665787e+14	1.666874e+14	8.772794e+03	3.297408e+03	2.136476e+03	0	6.219563e-04
6.400000e+08	3.943519e+12	0.000000e+00	4.503815e-01	1.055802e+14	3.624935e+14	1.658770e+14	8.750833e+03	3.293603e+03	2.134011e+03	0	6.180585e-04
6.500000e+08	3.870537e+12	0.000000e+00	4.503815e-01	1.039248e+14	3.585095e+14	1.650724e+14	8.729219e+03	3.289863e+03	2.131588e+03	0	6.142219e-04
6.600000e+08	3.799570e+12	0.000000e+00	4.503815e-01	1.023147e+14	3.546229e+14	1.642734e+14	8.707941e+03	3.286184e+03	2.129204e+03	0	6.104448e-04
6.700000e+08	3.730542e+12	0.000000e+00	4.503815e-01	1.007479e+14	3.508299e+14	1.634800e+14	8.686992e+03	3.282566e+03	2.126860e+03	0	6.067255e-04
6.800000e+08	3.663378e+12	0.000000e+00	4.503815e-01	9.922298e+13	3.471270e+14	1.626922e+14	8.666362e+03	3.279006e+03	2.124553e+03	0	6.030623e-04
6.900000e+08	3.598007e+12	0.000000e+00	4.503815e-01	9.773825e+13	3.435108e+14	1.619099e+14	8.646042e+03	3.275502e+03	2.122283e+03	0	5.994536e-04
7.000000e+08	3.534363e+12	0.000000e+00	4.503815e-01	9.629222e+13	3.399782e+14	1.611331e+14	8.626025e+03	3.272054e+03	2.120049e+03	0	5.958980e-04
7.100000e+08	3.472381e+12	0.000000e+00	4.503815e-01	9.488348e+13	3.365261e+14	1.603617e+14	8.606302e+03	3.268658e+03	2.117849e+03	0	5.923941e-04
7.200000e+08	3.412000e+12	0.000000e+00	4.503815e-01	9.351066e+13	3.331516e+14	1.595958e+14	8.586867e+03	3.265315e+03	2.115682e+03	0	5.889403e-04
7.300000e+08	3.353162e+12	0.000000e+00	4.503815e-01	9.217247e+13	3.298520e+14	1.588352e+14	8.567711e+03	3.262022e+03	2.113549e+03	0	5.855353e-04
7.400000e+08	3.295813e+12	0.000000e+00	4.503815e-01	9.086767e+13	3.266247e+14	1.580799e+14	8.548829e+03	3.258778e+03	2.111447e+03	0	5.821780e-04
7.500000e+08	3.239898e+12	0.000000e+00	4.503815e-01	8.959508e+13	3.234671e+14	1.573298e+14	8.530212e+03	3.255581e+03	2.109376e+03	0	5.788669e-04
7.600000e+08	3.185369e+12	0.000000e+00	4.503815e-01	8.835358e+13	3.203768e+14	1.565850e+14	8.511854e+03	3.252431e+03	2.107335e+03	0	5.756009e-04
7.700000e+08	3.132176e+12	0.000000e+00	4.503815e-01	8.714209e+13	3.173517e+14	1.558454e+14	8.493750e+03	3.249325e+03	2.105323e+03	0	5.723789e-04
7.800000e+08	3.080274e+12	0.000000e+00	4.503815e-01	8.595959e+13	3.143895e+14	1.551109e+14	8.475893e+03	3.246264e+03	2.103339e+03	0	5.691997e-04
7.900000e+08	3.029618e+12	0.000000e+00	4.503815e-01	8.480509e+13	3.114881e+14	1.543815e+14	8.458277e+03	3.243245e+03	2.101383e+03	0	5.660623e-04
8.000000e+08	2.980167e+12	0.000000e+00	4.503815e-01	8.367765e+13	3.086456e+14	1.536572e+14	8.440897e+03	3.240268e+03	2.099454e+03	0	5.629655e-04
8.100000e+08	2.931880e+12	0.000000e+00	4.503815e-01	8.257638e+13	3.058601e+14	1.529379e+14	8.423746e+03	3.237331e+03	2.097551e+03	0	5.599084e-04
8.200000e+08	2.884719e+12	0.000000e+00	4.503815e-01	8.150042e+13	3.031296e+14	1.522235e+14	8.406821e+03	3.234433e+03	2.095674e+03	0	5.568900e-04
8.300000e+08	2.838647e+12	0.000000e+00	4.503815e-01	8.044893e+13	3.004526e+14	1.515141e+14	8.390114e+03	3.231574e+03	2.093821e+03	0	5.539094e-04
8.400000e+08	2.793629e+12	0.000000e+00	4.503815e-01	7.942114e+13	2.978273e+14	1.508096e+14	8.373623e+03	3.228752e+03	2.091993e+03	0	5.509656e-04
8.500000e+08	2.749631e+12	0.000000e+00	4.503815e-01	7.841628e+13	2.952522e+14	1.501100e+14	8.357341e+03	3.225967e+03	2.090188e+03	0	5.480578e-04
8.600000e+08	2.706620e+12	0.000000e+00	4.503815e-01	7.743363e+13	2.927257e+14	1.494152e+14	8.341264e+03	3.223217e+03	2.088406e+03	0	5.451851e-04
8.700000e+08	2.664565e+12	0.000000e+00	4.503815e-01	7.647249e+13	2.902463e+14	1.487252e+14	8.325388e+03	3.220502e+03	2.086647e+03	0	5.423467e-04
8.800000e+08	2.623437e+12	0.000000e+00	4.503815e-01	7.553220e+13	2.878126e+14	1.480399e+14	8.309708e+03	3.217821e+03	2.084910e+03	0	5.395418e-04
8.900000e+08	2.583206e+12	0.000000e+00	4.503815e-01	7.461211e+13	2.854233e+14	1.473593e+14	8.294220e+03	3.215173e+03	2.083194e+03	0	5.367696e-04
9.000000e+08	2.543845e+12	0.000000e+00	4.503815e-01	7.371161e+13	2.830771e+14	1.466834e+14	8.278920e+03	3.212557e+03	2.081499e+03	0	5.340294e-04
9.100000e+08	2.505329e+12	0.000000e+00	4.503815e-01	7.283011e+13	2.807728e+14	1.460121e+14	8.263804e+03	3.209972e+03	2.079825e+03	0	5.313204e-04
9.200000e+08	2.467630e+12	0.000000e+00	4.503815e-01	7.196703e+13	2.785090e+14	1.453455e+14	8.248868e+03	3.207419e+03	2.078170e+03	0	5.286419e-04
9.300000e+08	2.430725e+12	0.000000e+00	4.503815e-01	7.112183e+13	2.762848e+14	1.446833e+14	8.234108e+03	3.204895e+03	2.076535e+03	0	5.259933e-04
9.400000e+08	2.394591e+12	0.000000e+00	4.503815e-01	7.029399e+13	2.740989e+14	1.440258e+14	8.219521e+03	3.202400e+03	2.074919e+03	0	5.233739e-04
9.500000e+08	2.359204e+12	0.000000e+00	4.503815e-01	6.948299e+13	2.719503e+14	1.433727e+14	8.205103e+03	3.199934e+03	2.073321e+03	0	5.207830e-04
9.600000e+08	2.324544e+12	0.000000e+00	4.503815e-01	6.868836e+13	2.698380e+14	1.427240e+14	8.190850e+03	3.197497e+03	2.071741e+03	0	5.182200e-04
9.700000e+08	2.290588e+12	0.000000e+00	4.503815e-01	6.790962e+13	2.677610e+14	1.420798e+14	8.176760e+03	3.195086e+03	2.070180e+03	0	5.156843e-04
9.800000e+08	2.257318e+12	0.000000e+00	4.503815e-01	6.714632e+13	2.657184e+14	1.414399e+14	8.162829e+03	3.192702e+03	2.068635e+03	0	5.131754e-04
9.900000e+08	2.224712e+12	0.000000e+00	4.503815e-01	6.639803e+13	2.637092e+14	1.408044e+14	8.149054e+03	3.190345e+03	2.067108e+03	0	5.106926e-04
1.000000e+09	2.192754e+12	0.000000e+00	4.503815e-01	6.566433e+13	2.617325e+14	1.401733e+14	8.135432e+03	3.188013e+03	2.065597e+03	0	5.082354e-04
1.010000e+09	2.161424e+12	0.000000e+00	4.503815e-01	6.494480e+13	2.597875e+14	1.395464e+14	8.121960e+03	3.185706e+03	2.064102e+03	0	5.058032e-04
1.020000e+09	2.130706e+12	0.000000e+00	4.503815e-01	6.423908e+13	2.578734e+14	1.389237e+14	8.108635e+03	3.183424e+03	2.062623e+03	0	5.033956e-04
1.030000e+09	2.100582e+12	0.000000e+00	4.503815e-01	6.354677e+13	2.559894e+14	1.383053e+14	8.095454e+03	3.181165e+03	2.061160e+03	0	5.010120e-04
1.040000e+09	2.071037e+12	0.000000e+00	4.503815e-01	6.286751e+13	2.541346e+14	1.376910e+14	8.082414e+03	3.178930e+03	2.059712e+03	0	4.986520e-04
1.050000e+09	2.042054e+12	0.000000e+00	4.503815e-01	6.220096e+13	2.523085e+14	1.370809e+14	8.069514e+03	3.176718e+03	2.058278e+03	0	4.963149e-04
1.060000e+09	2.013620e+12	0.000000e+00	4.503815e-01	6.154678e+13	2.505102e+14	1.364749e+14	8.056750e+03	3.174529e+03	2.056860e+03	0	4.940005e-04
1.070000e+09	1.985718e+12	0.000000e+00	4.503815e-01	6.090464e+13	2.487391e+14	1.358730e+14	8.044119e+03	3.172361e+03	2.055456e+03	0	4.917082e-04
1.080000e+09	1.958335e+12	0.000000e+00	4.503815e-01	6.027423e+13	2.469945e+14	1.352751e+14	8.031620e+03	3.170216e+03	2.054065e+03	0	4.894375e-04
1.090000e+09	1.931458e+12	0.000000e+00	4.503815e-01	5.965523e+13	2.452757e+14	1.346813e+14	8.019250e+03	3.168091e+03	2.052689e+03	0	4.871881e-04
1.100000e+09	1.905073e+12	0.000000e+00	4.503815e-01	5.904737e+13	2.435822e+14	1.340914e+14	8.007006e+03	3.165987e+03	2.051325e+03	0	4.849595e-04
1.110000e+09	1.879168e+12	0.000000e+00	4.503815e-01	5.845034e+13	2.419134e+14	1.335055e+14	7.994887e+03	3.163903e+03	2.049975e+03	0	4.827513e-04
1.120000e+09	1.853731e+12	0.000000e+00	4.503815e-01	5.786389e+13	2.402686e+14	1.329235e+14	7.982890e+03	3.161840e+03	2.048638e+03	0	4.805632e-04
1.130000e+09	1.828749e+12	0.000000e+00	4.503815e-01	5.728774e+13	2.386473e+14	1.323455e+14	7.971012e+03	3.159795e+03	2.047314e+03	0	4.783946e-04
1.140000e+09	1.804211e+12	0.000000e+00	4.503815e-01	5.672163e+13	2.370489e+14	1.317712e+14	7.959253e+03	3.157770e+03	2.046002e+03	0	4.762453e-04
1.150000e+09	1.780106e+12	0.000000e+00	4.503815e-01	5.616531e+13	2.354730e+14	1.312009e+14	7.947609e+03	3.155764e+03	2.044702e+03	0	4.741148e-04
1.160000e+09	1.756424e+12	0.000000e+00	4.503815e-01	5.561855e+13	2.339190e+14	1.306343e+14	7.936080e+03	3.153776e+03	2.043414e+03	0	4.720029e-04
1.170000e+09	1.733153e+12	0.000000e+00	4.503815e-01	5.508111e+13	2.323864e+14	1.300715e+14	7.924662e+03	3.151806e+03	2.042137e+03	0	4.699091e-04
1.180000e+09	1.710284e+12	0.000000e+00	4.503815e-01	5.455276e+13	2.308748e+14	1.295124e+14	7.913354e+03	3.149854e+03	2.040873e+03	0	4.678332e-04
1.190000e+09	1.687807e+12	0.000000e+00	4.503815e-01	5.403329e+13	2.293836e+14	1.289571e+14	7.902154e+03	3.147920e+03	2.039619e+03	0	4.657747e-04
1.200000e+09	1.665713e+12	0.000000e+00	4.503815e-01	5.352248e+13	2.279125e+14	1.284054e+14	7.891060e+03	3.146002e+03	2.038377e+03	0	4.637333e-04
1.210000e+09	1.643992e+12	0.000000e+00	4.503815e-01	5.302013e+13	2.264610e+14	1.278574e+14	7.880071e+03	3.144101e+03	2.037145e+03	0	4.617088e-04
1.220000e+09	1.622636e+12	0.000000e+00	4.503815e-01	5.252604e+13	2.250286e+14	1.273130e+14	7.869185e+03	3.142217e+03	2.035924e+03	0	4.597008e-04
1.230000e+09	1.601636e+12	0.000000e+00	4.503815e-01	5.204001e+13	2.236150e+14	1.267723e+14	7.858400e+03	3.140349e+03	2.034714e+03	0	4.577091e-04
1.240000e+09	1.580983e+12	0.000000e+00	4.503815e-01	5.156186e+13	2.222197e+14	1.262351e+14	7.847714e+03	3.138496e+03	2.033513e+03	0	4.557332e-04
1.250000e+09	1.560670e+12	0.000000e+00	4.503815e-01	5.109140e+13	2.208424e+14	1.257014e+14	7.837126e+03	3.136660e+03	2.032323e+03	0	4.537730e-04
1.260000e+09	1.540689e+12	0.000000e+00	4.503815e-01	5.062847e+13	2.194827e+14	1.251713e+14	7.826635e+03	3.134838e+03	2.031143e+03	0	4.518281e-04
1.270000e+09	1.521031e+12	0.000000e+00	4.503815e-01	5.017288e+13	2.181403e+14	1.246447e+14	7.816238e+03	3.133032e+03	2.029973e+03	0	4.498983e-04
1.280000e+09	1.501691e+12	0.000000e+00	4.503815e-01	4.972447e+13	2.168147e+14	1.241215e+14	7.805935e+03	3.131240e+03	2.028812e+03	0	4.479832e-04
1.290000e+09	1.482660e+12	0.000000e+00	4.503815e-01	4.928309e+13	2.155057e+14	1.236018e+14	7.795723e+03	3.129463e+03	2.027661e+03	0	4.460827e-04
1.300000e+09	1.463931e+12	0.000000e+00	4.503815e-01	4.884856e+13	2.142128e+14	1.230855e+14	7.785602e+03	3.127700e+03	2.026518e+03	0	4.441965e-04
1.310000e+09	1.445498e+12	0.000000e+00	4.503815e-01	4.842075e+13	2.129358e+14	1.225725e+14	7.775569e+03	3.125952e+03	2.025385e+03	0	4.423243e-04
1.320000e+09	1.427355e+12	0.000000e+00	4.503815e-01	4.799951e+13	2.116744e+14	1.220629e+14	7.765625e+03	3.124217e+03	2.024261e+03	0	4.404659e-04
1.330000e+09	1.409494e+12	0.000000e+00	4.503815e-01	4.758468e+13	2.104283e+14	1.215567e+14	7.755766e+03	3.122495e+03	2.023146e+03	0	4.386210e-04
1.340000e+09	1.391910e+12	0.000000e+00	4.503815e-01	4.717614e+13	2.091971e+14	1.210538e+14	7.745993e+03	3.120787e+03	2.022039e+03	0	4.367893e-04
1.350000e+09	1.374597e+12	0.000000e+00	4.503815e-01	4.677375e+13	2.079805e+14	1.205541e+14	7.736303e+03	3.119093e+03	2.020941e+03	0	4.349708e-04
1.360000e+09	1.357549e+12	0.000000e+00	4.503815e-01	4.637736e+13	2.067784e+14	1.200577e+14	7.726695e+03	3.117411e+03	2.019851e+03	0	4.331650e-04
