#t		Qconv[W]	Ri[Rp]		R*[Rp]		Qc[W]		Qm[W]		Qr[W]		Tcmb[K]		Tl[K]		Tup[K]		RiFlag		Bs[T]
0.000000e+00	4.530427e+13	0.000000e+00	4.503818e-01	9.389092e+14	2.011371e+15	2.679688e+14	1.347015e+04	4.201547e+03	2.648514e+03	0	1.385109e-03
1.000000e+07	4.245802e+13	0.000000e+00	4.503818e-01	8.819098e+14	1.900232e+15	2.664840e+14	1.331077e+04	4.173674e+03	2.630944e+03	0	1.355473e-03
2.000000e+07	3.989482e+13	0.000000e+00	4.503818e-01	8.305606e+14	1.800531e+15	2.650104e+14	1.316088e+04	4.147567e+03	2.614487e+03	0	1.327628e-03
3.000000e+07	3.757678e+13	0.000000e+00	4.503818e-01	7.841059e+14	1.710636e+15	2.635478e+14	1.301956e+04	4.123039e+03	2.599025e+03	0	1.301400e-03
4.000000e+07	3.547227e+13	0.000000e+00	4.503818e-01	7.419153e+14	1.629204e+15	2.620961e+14	1.288601e+04	4.099928e+03	2.584457e+03	0	1.276637e-03
5.000000e+07	3.355471e+13	0.000000e+00	4.503818e-01	7.034589e+14	1.555127e+15	2.606552e+14	1.275951e+04	4.078098e+03	2.570696e+03	0	1.253205e-03
6.000000e+07	3.180165e+13	0.000000e+00	4.503818e-01	6.682885e+14	1.487477e+15	2.592250e+14	1.263947e+04	4.057428e+03	2.557666e+03	0	1.230989e-03
7.000000e+07	3.019395e+13	0.000000e+00	4.503818e-01	6.360228e+14	1.425474e+15	2.578056e+14	1.252534e+04	4.037816e+03	2.545303e+03	0	1.209886e-03
8.000000e+07	2.871528e+13	0.000000e+00	4.503818e-01	6.063357e+14	1.368456e+15	2.563966e+14	1.241663e+04	4.019170e+03	2.533550e+03	0	1.189804e-03
9.000000e+07	2.735156e+13	0.000000e+00	4.503818e-01	5.789466e+14	1.315862e+15	2.549982e+14	1.231291e+04	4.001411e+03	2.522355e+03	0	1.170662e-03
1.000000e+08	2.609064e+13	0.000000e+00	4.503818e-01	5.536129e+14	1.267209e+15	2.536101e+14	1.221382e+04	3.984468e+03	2.511675e+03	0	1.152389e-03
1.100000e+08	2.492197e+13	0.000000e+00	4.503818e-01	5.301240e+14	1.222079e+15	2.522323e+14	1.211900e+04	3.968278e+03	2.501469e+03	0	1.134920e-03
1.200000e+08	2.383636e+13	0.000000e+00	4.503818e-01	5.082964e+14	1.180114e+15	2.508648e+14	1.202815e+04	3.952785e+03	2.491703e+03	0	1.118195e-03
1.300000e+08	2.282575e+13	0.000000e+00	4.503818e-01	4.879694e+14	1.140998e+15	2.495073e+14	1.194099e+04	3.937939e+03	2.482345e+03	0	1.102163e-03
1.400000e+08	2.188306e+13	0.000000e+00	4.503818e-01	4.690015e+14	1.104458e+15	2.481599e+14	1.185727e+04	3.923695e+03	2.473366e+03	0	1.086777e-03
1.500000e+08	2.100206e+13	0.000000e+00	4.503818e-01	4.512683e+14	1.070252e+15	2.468225e+14	1.177676e+04	3.910012e+03	2.464740e+03	0	1.071992e-03
1.600000e+08	2.017723e+13	0.000000e+00	4.503818e-01	4.346594e+14	1.038169e+15	2.454950e+14	1.169926e+04	3.896853e+03	2.456445e+03	0	1.057771e-03
1.700000e+08	1.940365e+13	0.000000e+00	4.503818e-01	4.190770e+14	1.008022e+15	2.441772e+14	1.162458e+04	3.884184e+03	2.448459e+03	0	1.044076e-03
1.800000e+08	1.867697e+13	0.000000e+00	4.503818e-01	4.044337e+14	9.796419e+14	2.428692e+14	1.155254e+04	3.871975e+03	2.440763e+03	0	1.030876e-03
1.900000e+08	1.799329e+13	0.000000e+00	4.503818e-01	3.906517e+14	9.528822e+14	2.415708e+14	1.148299e+04	3.860197e+03	2.433339e+03	0	1.018141e-03
2.000000e+08	1.734911e+13	0.000000e+00	4.503818e-01	3.776613e+14	9.276100e+14	2.402819e+14	1.141579e+04	3.848826e+03	2.426171e+03	0	1.005843e-03
2.100000e+08	1.674131e+13	0.000000e+00	4.503818e-01	3.653997e+14	9.037066e+14	2.390026e+14	1.135080e+04	3.837838e+03	2.419244e+03	0	9.939567e-04
2.200000e+08	1.616705e+13	0.000000e+00	4.503818e-01	3.538106e+14	8.810653e+14	2.377326e+14	1.128789e+04	3.827212e+03	2.412546e+03	0	9.824594e-04
2.300000e+08	1.562380e+13	0.000000e+00	4.503818e-01	3.428430e+14	8.595903e+14	2.364719e+14	1.122696e+04	3.816926e+03	2.406062e+03	0	9.713294e-04
2.400000e+08	1.510924e+13	0.000000e+00	4.503818e-01	3.324509e+14	8.391948e+14	2.352205e+14	1.116789e+04	3.806964e+03	2.399782e+03	0	9.605468e-04
2.500000e+08	1.462130e+13	0.000000e+00	4.503818e-01	3.225926e+14	8.198004e+14	2.339783e+14	1.111060e+04	3.797307e+03	2.393695e+03	0	9.500934e-04
2.600000e+08	1.415807e+13	0.000000e+00	4.503818e-01	3.132301e+14	8.013360e+14	2.327451e+14	1.105500e+04	3.787941e+03	2.387791e+03	0	9.399520e-04
2.700000e+08	1.371783e+13	0.000000e+00	4.503818e-01	3.043289e+14	7.837369e+14	2.315210e+14	1.100099e+04	3.778850e+03	2.382060e+03	0	9.301068e-04
2.800000e+08	1.329901e+13	0.000000e+00	4.503818e-01	2.958574e+14	7.669442e+14	2.303058e+14	1.094850e+04	3.770021e+03	2.376495e+03	0	9.205430e-04
2.900000e+08	1.290016e+13	0.000000e+00	4.503818e-01	2.877871e+14	7.509041e+14	2.290994e+14	1.089746e+04	3.761441e+03	2.371086e+03	0	9.112469e-04
3.000000e+08	1.251998e+13	0.000000e+00	4.503818e-01	2.800914e+14	7.355674e+14	2.279019e+14	1.084779e+04	3.753099e+03	2.365828e+03	0	9.022057e-04
3.100000e+08	1.215726e+13	0.000000e+00	4.503818e-01	2.727463e+14	7.208891e+14	2.267131e+14	1.079945e+04	3.744983e+03	2.360712e+03	0	8.934073e-04
3.200000e+08	1.181088e+13	0.000000e+00	4.503818e-01	2.657296e+14	7.068279e+14	2.255329e+14	1.075236e+04	3.737083e+03	2.355732e+03	0	8.848407e-04
3.300000e+08	1.147983e+13	0.000000e+00	4.503818e-01	2.590208e+14	6.933457e+14	2.243614e+14	1.070647e+04	3.729389e+03	2.350882e+03	0	8.764951e-04
3.400000e+08	1.116318e+13	0.000000e+00	4.503818e-01	2.526013e+14	6.804075e+14	2.231983e+14	1.066173e+04	3.721893e+03	2.346156e+03	0	8.683609e-04
3.500000e+08	1.086005e+13	0.000000e+00	4.503818e-01	2.464536e+14	6.679811e+14	2.220436e+14	1.061809e+04	3.714584e+03	2.341549e+03	0	8.604287e-04
3.600000e+08	1.056964e+13	0.000000e+00	4.503818e-01	2.405617e+14	6.560367e+14	2.208974e+14	1.057551e+04	3.707457e+03	2.337056e+03	0	8.526898e-04
3.700000e+08	1.029122e+13	0.000000e+00	4.503818e-01	2.349109e+14	6.445466e+14	2.197594e+14	1.053393e+04	3.700502e+03	2.332672e+03	0	8.451361e-04
3.800000e+08	1.002410e+13	0.000000e+00	4.503818e-01	2.294873e+14	6.334854e+14	2.186297e+14	1.049332e+04	3.693713e+03	2.328393e+03	0	8.377598e-04
3.900000e+08	9.767650e+12	0.000000e+00	4.503818e-01	2.242783e+14	6.228293e+14	2.175081e+14	1.045365e+04	3.687083e+03	2.324213e+03	0	8.305537e-04
4.000000e+08	9.521270e+12	0.000000e+00	4.503818e-01	2.192719e+14	6.125564e+14	2.163947e+14	1.041486e+04	3.680606e+03	2.320130e+03	0	8.235108e-04
4.100000e+08	9.284416e+12	0.000000e+00	4.503818e-01	2.144573e+14	6.026462e+14	2.152892e+14	1.037694e+04	3.674276e+03	2.316140e+03	0	8.166247e-04
4.200000e+08	9.056575e+12	0.000000e+00	4.503818e-01	2.098241e+14	5.930796e+14	2.141918e+14	1.033984e+04	3.668086e+03	2.312238e+03	0	8.098893e-04
4.300000e+08	8.837273e+12	0.000000e+00	4.503818e-01	2.053628e+14	5.838389e+14	2.131022e+14	1.030354e+04	3.662032e+03	2.308422e+03	0	8.032987e-04
4.400000e+08	8.626064e+12	0.000000e+00	4.503818e-01	2.010645e+14	5.749075e+14	2.120205e+14	1.026801e+04	3.656109e+03	2.304688e+03	0	7.968475e-04
4.500000e+08	8.422534e+12	0.000000e+00	4.503818e-01	1.969209e+14	5.662700e+14	2.109465e+14	1.023321e+04	3.650311e+03	2.301033e+03	0	7.905304e-04
4.600000e+08	8.226295e+12	0.000000e+00	4.503818e-01	1.929241e+14	5.579119e+14	2.098803e+14	1.019912e+04	3.644634e+03	2.297455e+03	0	7.843425e-04
4.700000e+08	8.036984e+12	0.000000e+00	4.503818e-01	1.890670e+14	5.498196e+14	2.088217e+14	1.016573e+04	3.639074e+03	2.293950e+03	0	7.782791e-04
4.800000e+08	7.854261e+12	0.000000e+00	4.503818e-01	1.853426e+14	5.419804e+14	2.077707e+14	1.013299e+04	3.633627e+03	2.290516e+03	0	7.723357e-04
4.900000e+08	7.677807e+12	0.000000e+00	4.503818e-01	1.817447e+14	5.343825e+14	2.067272e+14	1.010090e+04	3.628288e+03	2.287151e+03	0	7.665081e-04
5.000000e+08	7.507323e+12	0.000000e+00	4.503818e-01	1.782671e+14	5.270146e+14	2.056912e+14	1.006942e+04	3.623054e+03	2.283851e+03	0	7.607922e-04
5.100000e+08	7.342528e+12	0.000000e+00	4.503818e-01	1.749042e+14	5.198662e+14	2.046626e+14	1.003855e+04	3.617921e+03	2.280616e+03	0	7.551841e-04
5.200000e+08	7.183157e+12	0.000000e+00	4.503818e-01	1.716508e+14	5.129275e+14	2.036413e+14	1.000825e+04	3.612886e+03	2.277442e+03	0	7.496803e-04
5.300000e+08	7.028963e+12	0.000000e+00	4.503818e-01	1.685018e+14	5.061891e+14	2.026273e+14	9.978509e+03	3.607945e+03	2.274327e+03	0	7.442772e-04
5.400000e+08	6.879710e+12	0.000000e+00	4.503818e-01	1.654525e+14	4.996422e+14	2.016205e+14	9.949313e+03	3.603096e+03	2.271270e+03	0	7.389715e-04
5.500000e+08	6.735179e+12	0.000000e+00	4.503818e-01	1.624986e+14	4.932787e+14	2.006209e+14	9.920643e+03	3.598335e+03	2.268269e+03	0	7.337600e-04
5.600000e+08	6.595161e+12	0.000000e+00	4.503818e-01	1.596358e+14	4.870907e+14	1.996284e+14	9.892481e+03	3.593660e+03	2.265322e+03	0	7.286396e-04
5.700000e+08	6.459460e+12	0.000000e+00	4.503818e-01	1.568601e+14	4.810709e+14	1.986430e+14	9.864812e+03	3.589067e+03	2.262427e+03	0	7.236075e-04
5.800000e+08	6.327890e+12	0.000000e+00	4.503818e-01	1.541679e+14	4.752122e+14	1.976645e+14	9.837621e+03	3.584555e+03	2.259583e+03	0	7.186608e-04
5.900000e+08	6.200276e+12	0.000000e+00	4.503818e-01	1.515557e+14	4.695080e+14	1.966930e+14	9.810895e+03	3.580121e+03	2.256788e+03	0	7.137969e-04
6.000000e+08	6.076453e+12	0.000000e+00	4.503818e-01	1.490200e+14	4.639523e+14	1.957283e+14	9.784618e+03	3.575762e+03	2.254040e+03	0	7.090133e-04
6.100000e+08	5.956263e+12	0.000000e+00	4.503818e-01	1.465577e+14	4.585389e+14	1.947705e+14	9.758779e+03	3.571476e+03	2.251339e+03	0	7.043074e-04
6.200000e+08	5.839557e+12	0.000000e+00	4.503818e-01	1.441659e+14	4.532624e+14	1.938194e+14	9.733364e+03	3.567262e+03	2.248682e+03	0	6.996770e-04
6.300000e+08	5.726194e+12	0.000000e+00	4.503818e-01	1.418417e+14	4.481174e+14	1.928751e+14	9.708362e+03	3.563115e+03	2.246068e+03	0	6.951199e-04
6.400000e+08	5.616042e+12	0.000000e+00	4.503818e-01	1.395825e+14	4.430989e+14	1.919374e+14	9.683761e+03	3.559036e+03	2.243497e+03	0	6.906337e-04
6.500000e+08	5.508973e+12	0.000000e+00	4.503818e-01	1.373856e+14	4.382022e+14	1.910063e+14	9.659549e+03	3.555022e+03	2.240966e+03	0	6.862166e-04
6.600000e+08	5.404866e+12	0.000000e+00	4.503818e-01	1.352486e+14	4.334225e+14	1.900818e+14	9.635717e+03	3.551070e+03	2.238475e+03	0	6.818664e-04
6.700000e+08	5.303607e+12	0.000000e+00	4.503818e-01	1.331693e+14	4.287557e+14	1.891638e+14	9.612253e+03	3.547180e+03	2.236023e+03	0	6.775814e-04
6.800000e+08	5.205088e+12	0.000000e+00	4.503818e-01	1.311454e+14	4.241976e+14	1.882522e+14	9.589147e+03	3.543349e+03	2.233608e+03	0	6.733595e-04
6.900000e+08	5.109204e+12	0.000000e+00	4.503818e-01	1.291749e+14	4.197443e+14	1.873470e+14	9.566392e+03	3.539577e+03	2.231230e+03	0	6.691992e-04
7.000000e+08	5.015858e+12	0.000000e+00	4.503818e-01	1.272558e+14	4.153920e+14	1.864482e+14	9.543976e+03	3.535860e+03	2.228887e+03	0	6.650987e-04
7.100000e+08	4.924955e+12	0.000000e+00	4.503818e-01	1.253862e+14	4.111373e+14	1.855556e+14	9.521892e+03	3.532198e+03	2.226579e+03	0	6.610563e-04
7.200000e+08	4.836407e+12	0.000000e+00	4.503818e-01	1.235643e+14	4.069766e+14	1.846693e+14	9.500130e+03	3.528589e+03	2.224304e+03	0	6.570705e-04
7.300000e+08	4.750127e+12	0.000000e+00	4.503818e-01	1.217884e+14	4.029068e+14	1.837892e+14	9.478684e+03	3.525032e+03	2.222062e+03	0	6.531397e-04
7.400000e+08	4.666035e+12	0.000000e+00	4.503818e-01	1.200568e+14	3.989248e+14	1.829153e+14	9.457543e+03	3.521526e+03	2.219851e+03	0	6.492625e-04
7.500000e+08	4.584054e+12	0.000000e+00	4.503818e-01	1.183680e+14	3.950276e+14	1.820474e+14	9.436702e+03	3.518068e+03	2.217672e+03	0	6.454375e-04
7.600000e+08	4.504108e+12	0.000000e+00	4.503818e-01	1.167205e+14	3.912125e+14	1.811856e+14	9.416153e+03	3.514659e+03	2.215523e+03	0	6.416634e-04
7.700000e+08	4.426128e+12	0.000000e+00	4.503818e-01	1.151128e+14	3.874766e+14	1.803297e+14	9.395888e+03	3.511296e+03	2.213403e+03	0	6.379387e-04
7.800000e+08	4.350045e+12	0.000000e+00	4.503818e-01	1.135437e+14	3.838175e+14	1.794798e+14	9.375902e+03	3.507978e+03	2.211312e+03	0	6.342623e-04
7.900000e+08	4.275796e+12	0.000000e+00	4.503818e-01	1.120118e+14	3.802327e+14	1.786359e+14	9.356186e+03	3.504705e+03	2.209248e+03	0	6.306330e-04
8.000000e+08	4.203319e+12	0.000000e+00	4.503818e-01	1.105158e+14	3.767198e+14	1.777977e+14	9.336735e+03	3.501475e+03	2.207212e+03	0	6.270494e-04
8.100000e+08	4.132554e+12	0.000000e+00	4.503818e-01	1.090545e+14	3.732765e+14	1.769654e+14	9.317543e+03	3.498287e+03	2.205203e+03	0	6.235106e-04
8.200000e+08	4.063444e+12	0.000000e+00	4.503818e-01	1.076269e+14	3.699007e+14	1.761388e+14	9.298603e+03	3.495140e+03	2.203219e+03	0	6.200153e-04
8.300000e+08	3.995936e+12	0.000000e+00	4.503818e-01	1.062319e+14	3.665903e+14	1.753180e+14	9.279910e+03	3.492034e+03	2.201261e+03	0	6.165626e-04
8.400000e+08	3.929978e+12	0.000000e+00	4.503818e-01	1.048683e+14	3.633433e+14	1.745028e+14	9.261459e+03	3.488966e+03	2.199327e+03	0	6.131514e-04
8.500000e+08	3.865520e+12	0.000000e+00	4.503818e-01	1.035351e+14	3.601578e+14	1.736933e+14	9.243243e+03	3.485936e+03	2.197417e+03	0	6.097807e-04
8.600000e+08	3.802514e+12	0.000000e+00	4.503818e-01	1.022315e+14	3.570320e+14	1.728893e+14	9.225257e+03	3.482944e+03	2.195531e+03	0	6.064494e-04
8.700000e+08	3.740914e+12	0.000000e+00	4.503818e-01	1.009565e+14	3.539641e+14	1.720909e+14	9.207498e+03	3.479988e+03	2.193668e+03	0	6.031568e-04
8.800000e+08	3.680677e+12	0.000000e+00	4.503818e-01	9.970920e+13	3.509524e+14	1.712979e+14	9.189958e+03	3.477068e+03	2.191827e+03	0	5.999019e-04
8.900000e+08	3.621760e+12	0.000000e+00	4.503818e-01	9.848874e+13	3.479952e+14	1.705104e+14	9.172635e+03	3.474183e+03	2.190008e+03	0	5.966838e-04
9.000000e+08	3.564123e+12	0.000000e+00	4.503818e-01	9.729430e+13	3.450911e+14	1.697283e+14	9.155522e+03	3.471331e+03	2.188211e+03	0	5.935016e-04
9.100000e+08	3.507726e+12	0.000000e+00	4.503818e-01	9.612512e+13	3.422385e+14	1.689516e+14	9.138617e+03	3.468513e+03	2.186434e+03	0	5.903545e-04
9.200000e+08	3.452533e+12	0.000000e+00	4.503818e-01	9.498042e+13	3.394360e+14	1.681802e+14	9.121913e+03	3.465727e+03	2.184678e+03	0	5.872418e-04
9.300000e+08	3.398508e+12	0.000000e+00	4.503818e-01	9.385949e+13	3.366821e+14	1.674141e+14	9.105408e+03	3.462973e+03	2.182942e+03	0	5.841626e-04
9.400000e+08	3.345615e+12	0.000000e+00	4.503818e-01	9.276162e+13	3.339756e+14	1.666532e+14	9.089097e+03	3.460250e+03	2.181225e+03	0	5.811162e-04
9.500000e+08	3.293822e+12	0.000000e+00	4.503818e-01	9.168615e+13	3.313151e+14	1.658975e+14	9.072975e+03	3.457557e+03	2.179528e+03	0	5.781019e-04
9.600000e+08	3.243097e+12	0.000000e+00	4.503818e-01	9.063243e+13	3.286995e+14	1.651469e+14	9.057040e+03	3.454894e+03	2.177849e+03	0	5.751189e-04
9.700000e+08	3.193409e+12	0.000000e+00	4.503818e-01	8.959982e+13	3.261274e+14	1.644015e+14	9.041287e+03	3.452260e+03	2.176189e+03	0	5.721666e-04
9.800000e+08	3.144727e+12	0.000000e+00	4.503818e-01	8.858775e+13	3.235978e+14	1.636611e+14	9.025713e+03	3.449654e+03	2.174546e+03	0	5.692443e-04
9.900000e+08	3.097025e+12	0.000000e+00	4.503818e-01	8.759561e+13	3.211095e+14	1.629258e+14	9.010315e+03	3.447077e+03	2.172921e+03	0	5.663513e-04
1.000000e+09	3.050273e+12	0.000000e+00	4.503818e-01	8.662287e+13	3.186615e+14	1.621954e+14	8.995088e+03	3.444526e+03	2.171314e+03	0	5.634870e-04
1.010000e+09	3.004446e+12	0.000000e+00	4.503818e-01	8.566897e+13	3.162527e+14	1.614700e+14	8.980029e+03	3.442002e+03	2.169723e+03	0	5.606508e-04
1.020000e+09	2.959517e+12	0.000000e+00	4.503818e-01	8.473341e+13	3.138822e+14	1.607495e+14	8.965136e+03	3.439505e+03	2.168148e+03	0	5.578421e-04
1.030000e+09	2.915463e+12	0.000000e+00	4.503818e-01	8.381569e+13	3.115489e+14	1.600339e+14	8.950405e+03	3.437033e+03	2.166590e+03	0	5.550603e-04
1.040000e+09	2.872259e+12	0.000000e+00	4.503818e-01	8.291531e+13	3.092519e+14	1.593232e+14	8.935832e+03	3.434586e+03	2.165047e+03	0	5.523049e-04
1.050000e+09	2.829883e+12	0.000000e+00	4.503818e-01	8.203182e+13	3.069904e+14	1.586172e+14	8.921416e+03	3.432163e+03	2.163520e+03	0	5.495752e-04
1.060000e+09	2.788312e+12	0.000000e+00	4.503818e-01	8.116477e+13	3.047634e+14	1.579160e+14	8.907153e+03	3.429765e+03	2.162009e+03	0	5.468708e-04
1.070000e+09	2.747524e+12	0.000000e+00	4.503818e-01	8.031372e+13	3.025701e+14	1.572195e+14	8.893040e+03	3.427390e+03	2.160512e+03	0	5.441912e-04
1.080000e+09	2.707500e+12	0.000000e+00	4.503818e-01	7.947825e+13	3.004097e+14	1.565277e+14	8.879074e+03	3.425039e+03	2.159029e+03	0	5.415358e-04
1.090000e+09	2.668218e+12	0.000000e+00	4.503818e-01	7.865797e+13	2.982814e+14	1.558406e+14	8.865253e+03	3.422710e+03	2.157561e+03	0	5.389041e-04
1.100000e+09	2.629661e+12	0.000000e+00	4.503818e-01	7.785247e+13	2.961845e+14	1.551581e+14	8.851574e+03	3.420404e+03	2.156108e+03	0	5.362956e-04
1.110000e+09	2.591808e+12	0.000000e+00	4.503818e-01	7.706138e+13	2.941182e+14	1.544801e+14	8.838035e+03	3.418119e+03	2.154667e+03	0	5.337099e-04
1.120000e+09	2.554642e+12	0.000000e+00	4.503818e-01	7.628433e+13	2.920818e+14	1.538067e+14	8.824633e+03	3.415856e+03	2.153241e+03	0	5.311465e-04
1.130000e+09	2.518146e+12	0.000000e+00	4.503818e-01	7.552098e+13	2.900746e+14	1.531378e+14	8.811365e+03	3.413614e+03	2.151827e+03	0	5.286051e-04
1.140000e+09	2.482303e+12	0.000000e+00	4.503818e-01	7.477097e+13	2.880959e+14	1.524734e+14	8.798230e+03	3.411392e+03	2.150427e+03	0	5.260850e-04
1.150000e+09	2.447096e+12	0.000000e+00	4.503818e-01	7.403397e+13	2.861451e+14	1.518134e+14	8.785225e+03	3.409191e+03	2.149039e+03	0	5.235859e-04
1.160000e+09	2.412509e+12	0.000000e+00	4.503818e-01	7.330967e+13	2.842216e+14	1.511578e+14	8.772348e+03	3.407009e+03	2.147664e+03	0	5.211075e-04
1.170000e+09	2.378527e+12	0.000000e+00	4.503818e-01	7.259776e+13	2.823247e+14	1.505066e+14	8.759596e+03	3.404847e+03	2.146301e+03	0	5.186492e-04
1.180000e+09	2.345136e+12	0.000000e+00	4.503818e-01	7.189793e+13	2.804539e+14	1.498597e+14	8.746967e+03	3.402705e+03	2.144951e+03	0	5.162107e-04
1.190000e+09	2.312321e+12	0.000000e+00	4.503818e-01	7.120989e+13	2.786086e+14	1.492171e+14	8.734460e+03	3.400581e+03	2.143612e+03	0	5.137916e-04
1.200000e+09	2.280068e+12	0.000000e+00	4.503818e-01	7.053336e+13	2.767883e+14	1.485788e+14	8.722072e+03	3.398475e+03	2.142285e+03	0	5.113916e-04
1.210000e+09	2.248363e+12	0.000000e+00	4.503818e-01	6.986807e+13	2.749923e+14	1.479447e+14	8.709802e+03	3.396388e+03	2.140969e+03	0	5.090102e-04
1.220000e+09	2.217194e+12	0.000000e+00	4.503818e-01	6.921375e+13	2.732202e+14	1.473148e+14	8.697647e+03	3.394318e+03	2.139664e+03	0	5.066471e-04
1.230000e+09	2.186548e+12	0.000000e+00	4.503818e-01	6.857014e+13	2.714714e+14	1.466890e+14	8.685605e+03	3.392267e+03	2.138371e+03	0	5.043020e-04
1.240000e+09	2.156412e+12	0.000000e+00	4.503818e-01	6.793700e+13	2.697456e+14	1.460675e+14	8.673675e+03	3.390232e+03	2.137088e+03	0	5.019744e-04
1.250000e+09	2.126775e+12	0.000000e+00	4.503818e-01	6.731408e+13	2.680421e+14	1.454500e+14	8.661855e+03	3.388214e+03	2.135816e+03	0	4.996642e-04
1.260000e+09	2.097625e+12	0.000000e+00	4.503818e-01	6.670115e+13	2.663605e+14	1.448366e+14	8.650142e+03	3.386213e+03	2.134555e+03	0	4.973708e-04
1.270000e+09	2.068951e+12	0.000000e+00	4.503818e-01	6.609798e+13	2.647005e+14	1.442272e+14	8.638537e+03	3.384228e+03	2.133304e+03	0	4.950941e-04
1.280000e+09	2.040742e+12	0.000000e+00	4.503818e-01	6.550435e+13	2.630615e+14	1.436218e+14	8.627035e+03	3.382259e+03	2.132063e+03	0	4.928337e-04
1.290000e+09	2.012988e+12	0.000000e+00	4.503818e-01	6.492004e+13	2.614431e+14	1.430204e+14	8.615637e+03	3.380307e+03	2.130832e+03	0	4.905893e-04
1.300000e+09	1.985677e+12	0.000000e+00	4.503818e-01	6.434485e+13	2.598449e+14	1.424230e+14	8.604340e+03	3.378369e+03	2.129610e+03	0	4.883605e-04
1.310000e+09	1.958801e+12	0.000000e+00	4.503818e-01	6.377858e+13	2.582665e+14	1.418295e+14	8.593143e+03	3.376447e+03	2.128399e+03	0	4.861472e-04
1.320000e+09	1.932350e+12	0.000000e+00	4.503818e-01	6.322102e+13	2.567075e+14	1.412398e+14	8.582044e+03	3.374540e+03	2.127197e+03	0	4.839490e-04
1.330000e+09	1.906313e+12	0.000000e+00	4.503818e-01	6.267199e+13	2.551675e+14	1.406541e+14	8.571041e+03	3.372648e+03	2.126004e+03	0	4.817656e-04
1.340000e+09	1.880683e+12	0.000000e+00	4.503818e-01	6.213131e+13	2.536462e+14	1.400721e+14	8.560134e+03	3.370770e+03	2.124820e+03	0	4.795967e-04
1.350000e+09	1.855450e+12	0.000000e+00	4.503818e-01	6.159878e+13	2.521432e+14	1.394940e+14	8.549321e+03	3.368907e+03	2.123646e+03	0	4.774421e-04
1.360000e+09	1.830605e+12	0.000000e+00	4.503818e-01	6.107424e+13	2.506581e+14	1.389196e+14	8.538601e+03	3.367058e+03	2.122480e+03	0	4.753016e-04
