#t		Qconv[W]	Ri[Rp]		R*[Rp]		Qc[W]		Qm[W]		Qr[W]		Tcmb[K]		Tl[K]		Tup[K]		RiFlag		Bs[T]
0.000000e+00	1.026387e+14	0.000000e+00	4.461538e-01	1.771083e+15	2.113226e+15	3.652672e+14	1.765193e+04	4.778588e+03	2.817273e+03	0	1.815626e-03
1.000000e+07	9.644403e+13	0.000000e+00	4.461538e-01	1.668800e+15	2.079936e+15	3.632433e+14	1.743469e+04	4.779188e+03	2.817626e+03	0	1.778339e-03
2.000000e+07	9.080948e+13	0.000000e+00	4.461538e-01	1.575725e+15	2.043398e+15	3.612346e+14	1.722974e+04	4.777889e+03	2.816860e+03	0	1.743010e-03
3.000000e+07	8.566908e+13	0.000000e+00	4.461538e-01	1.490776e+15	2.004595e+15	3.592409e+14	1.703601e+04	4.775022e+03	2.815170e+03	0	1.709480e-03
4.000000e+07	8.096625e+13	0.000000e+00	4.461538e-01	1.413025e+15	1.964320e+15	3.572621e+14	1.685254e+04	4.770864e+03	2.812719e+03	0	1.677609e-03
5.000000e+07	7.665225e+13	0.000000e+00	4.461538e-01	1.341670e+15	1.923202e+15	3.552980e+14	1.667846e+04	4.765645e+03	2.809642e+03	0	1.647268e-03
6.000000e+07	7.268491e+13	0.000000e+00	4.461538e-01	1.276021e+15	1.881736e+15	3.533486e+14	1.651303e+04	4.759560e+03	2.806054e+03	0	1.618344e-03
7.000000e+07	6.902762e+13	0.000000e+00	4.461538e-01	1.215475e+15	1.840311e+15	3.514137e+14	1.635556e+04	4.752769e+03	2.802050e+03	0	1.590732e-03
8.000000e+07	6.564844e+13	0.000000e+00	4.461538e-01	1.159508e+15	1.799228e+15	3.494932e+14	1.620544e+04	4.745408e+03	2.797711e+03	0	1.564339e-03
9.000000e+07	6.251945e+13	0.000000e+00	4.461538e-01	1.107661e+15	1.758715e+15	3.475870e+14	1.606212e+04	4.737590e+03	2.793102e+03	0	1.539080e-03
1.000000e+08	5.961616e+13	0.000000e+00	4.461538e-01	1.059532e+15	1.718945e+15	3.456949e+14	1.592512e+04	4.729412e+03	2.788280e+03	0	1.514877e-03
1.100000e+08	5.691698e+13	0.000000e+00	4.461538e-01	1.014767e+15	1.680046e+15	3.438169e+14	1.579398e+04	4.720952e+03	2.783293e+03	0	1.491661e-03
1.200000e+08	5.440286e+13	0.000000e+00	4.461538e-01	9.730509e+14	1.642107e+15	3.419528e+14	1.566831e+04	4.712279e+03	2.778180e+03	0	1.469366e-03
1.300000e+08	5.205693e+13	0.000000e+00	4.461538e-01	9.341078e+14	1.605190e+15	3.401024e+14	1.554773e+04	4.703449e+03	2.772974e+03	0	1.447935e-03
1.400000e+08	4.986418e+13	0.000000e+00	4.461538e-01	8.976908e+14	1.569335e+15	3.382658e+14	1.543191e+04	4.694510e+03	2.767703e+03	0	1.427312e-03
1.500000e+08	4.781128e+13	0.000000e+00	4.461538e-01	8.635804e+14	1.534560e+15	3.364428e+14	1.532054e+04	4.685500e+03	2.762392e+03	0	1.407450e-03
1.600000e+08	4.588629e+13	0.000000e+00	4.461538e-01	8.315804e+14	1.500874e+15	3.346332e+14	1.521335e+04	4.676455e+03	2.757059e+03	0	1.388301e-03
1.700000e+08	4.407856e+13	0.000000e+00	4.461538e-01	8.015154e+14	1.468271e+15	3.328370e+14	1.511009e+04	4.667401e+03	2.751721e+03	0	1.369825e-03
1.800000e+08	4.237850e+13	0.000000e+00	4.461538e-01	7.732278e+14	1.436739e+15	3.310540e+14	1.501051e+04	4.658363e+03	2.746393e+03	0	1.351983e-03
1.900000e+08	4.077752e+13	0.000000e+00	4.461538e-01	7.465760e+14	1.406258e+15	3.292842e+14	1.491441e+04	4.649360e+03	2.741085e+03	0	1.334739e-03
2.000000e+08	3.926784e+13	0.000000e+00	4.461538e-01	7.214323e+14	1.376805e+15	3.275273e+14	1.482158e+04	4.640409e+03	2.735807e+03	0	1.318060e-03
2.100000e+08	3.784246e+13	0.000000e+00	4.461538e-01	6.976812e+14	1.348352e+15	3.257834e+14	1.473184e+04	4.631522e+03	2.730568e+03	0	1.301915e-03
2.200000e+08	3.649505e+13	0.000000e+00	4.461538e-01	6.752183e+14	1.320870e+15	3.240523e+14	1.464502e+04	4.622712e+03	2.725374e+03	0	1.286276e-03
2.300000e+08	3.521984e+13	0.000000e+00	4.461538e-01	6.539490e+14	1.294328e+15	3.223339e+14	1.456097e+04	4.613987e+03	2.720230e+03	0	1.271116e-03
2.400000e+08	3.401162e+13	0.000000e+00	4.461538e-01	6.337872e+14	1.268693e+15	3.206281e+14	1.447954e+04	4.605355e+03	2.715141e+03	0	1.256411e-03
2.500000e+08	3.286562e+13	0.000000e+00	4.461538e-01	6.146545e+14	1.243932e+15	3.189348e+14	1.440059e+04	4.596821e+03	2.710110e+03	0	1.242139e-03
2.600000e+08	3.177752e+13	0.000000e+00	4.461538e-01	5.964795e+14	1.220015e+15	3.172539e+14	1.432400e+04	4.588391e+03	2.705139e+03	0	1.228276e-03
2.700000e+08	3.074335e+13	0.000000e+00	4.461538e-01	5.791969e+14	1.196907e+15	3.155853e+14	1.424965e+04	4.580067e+03	2.700232e+03	0	1.214805e-03
2.800000e+08	2.975949e+13	0.000000e+00	4.461538e-01	5.627470e+14	1.174578e+15	3.139289e+14	1.417744e+04	4.571854e+03	2.695390e+03	0	1.201705e-03
2.900000e+08	2.882262e+13	0.000000e+00	4.461538e-01	5.470750e+14	1.152996e+15	3.122845e+14	1.410726e+04	4.563752e+03	2.690614e+03	0	1.188960e-03
3.000000e+08	2.792969e+13	0.000000e+00	4.461538e-01	5.321307e+14	1.132132e+15	3.106522e+14	1.403901e+04	4.555764e+03	2.685904e+03	0	1.176553e-03
3.100000e+08	2.707790e+13	0.000000e+00	4.461538e-01	5.178678e+14	1.111956e+15	3.090317e+14	1.397261e+04	4.547889e+03	2.681261e+03	0	1.164468e-03
3.200000e+08	2.626467e+13	0.000000e+00	4.461538e-01	5.042440e+14	1.092440e+15	3.074230e+14	1.390797e+04	4.540128e+03	2.676686e+03	0	1.152692e-03
3.300000e+08	2.548763e+13	0.000000e+00	4.461538e-01	4.912199e+14	1.073557e+15	3.058261e+14	1.384502e+04	4.532482e+03	2.672178e+03	0	1.141211e-03
3.400000e+08	2.474459e+13	0.000000e+00	4.461538e-01	4.787594e+14	1.055281e+15	3.042407e+14	1.378368e+04	4.524949e+03	2.667737e+03	0	1.130011e-03
3.500000e+08	2.403351e+13	0.000000e+00	4.461538e-01	4.668291e+14	1.037585e+15	3.026668e+14	1.372389e+04	4.517529e+03	2.663362e+03	0	1.119082e-03
3.600000e+08	2.335253e+13	0.000000e+00	4.461538e-01	4.553979e+14	1.020448e+15	3.011043e+14	1.366557e+04	4.510221e+03	2.659053e+03	0	1.108411e-03
3.700000e+08	2.269990e+13	0.000000e+00	4.461538e-01	4.444371e+14	1.003845e+15	2.995532e+14	1.360867e+04	4.503024e+03	2.654810e+03	0	1.097987e-03
3.800000e+08	2.207401e+13	0.000000e+00	4.461538e-01	4.339202e+14	9.877537e+14	2.980133e+14	1.355312e+04	4.495936e+03	2.650632e+03	0	1.087802e-03
3.900000e+08	2.147336e+13	0.000000e+00	4.461538e-01	4.238224e+14	9.721541e+14	2.964845e+14	1.349888e+04	4.488956e+03	2.646517e+03	0	1.077845e-03
4.000000e+08	2.089657e+13	0.000000e+00	4.461538e-01	4.141207e+14	9.570257e+14	2.949667e+14	1.344589e+04	4.482083e+03	2.642464e+03	0	1.068106e-03
4.100000e+08	2.034234e+13	0.000000e+00	4.461538e-01	4.047937e+14	9.423493e+14	2.934599e+14	1.339411e+04	4.475314e+03	2.638474e+03	0	1.058578e-03
4.200000e+08	1.980946e+13	0.000000e+00	4.461538e-01	3.958215e+14	9.281065e+14	2.919639e+14	1.334348e+04	4.468649e+03	2.634544e+03	0	1.049253e-03
4.300000e+08	1.929680e+13	0.000000e+00	4.461538e-01	3.871854e+14	9.142798e+14	2.904788e+14	1.329397e+04	4.462085e+03	2.630675e+03	0	1.040123e-03
4.400000e+08	1.880331e+13	0.000000e+00	4.461538e-01	3.788680e+14	9.008527e+14	2.890043e+14	1.324552e+04	4.455621e+03	2.626864e+03	0	1.031179e-03
4.500000e+08	1.832802e+13	0.000000e+00	4.461538e-01	3.708531e+14	8.878091e+14	2.875404e+14	1.319812e+04	4.449255e+03	2.623110e+03	0	1.022417e-03
4.600000e+08	1.786999e+13	0.000000e+00	4.461538e-01	3.631255e+14	8.751339e+14	2.860870e+14	1.315170e+04	4.442984e+03	2.619413e+03	0	1.013828e-03
4.700000e+08	1.742837e+13	0.000000e+00	4.461538e-01	3.556709e+14	8.628126e+14	2.846440e+14	1.310625e+04	4.436808e+03	2.615772e+03	0	1.005407e-03
4.800000e+08	1.700236e+13	0.000000e+00	4.461538e-01	3.484760e+14	8.508315e+14	2.832114e+14	1.306173e+04	4.430723e+03	2.612185e+03	0	9.971469e-04
4.900000e+08	1.659119e+13	0.000000e+00	4.461538e-01	3.415282e+14	8.391773e+14	2.817890e+14	1.301809e+04	4.424729e+03	2.608651e+03	0	9.890433e-04
5.000000e+08	1.619416e+13	0.000000e+00	4.461538e-01	3.348159e+14	8.278376e+14	2.803768e+14	1.297533e+04	4.418824e+03	2.605169e+03	0	9.810901e-04
5.100000e+08	1.581059e+13	0.000000e+00	4.461538e-01	3.283279e+14	8.168004e+14	2.789747e+14	1.293339e+04	4.413005e+03	2.601739e+03	0	9.732823e-04
5.200000e+08	1.543987e+13	0.000000e+00	4.461538e-01	3.220538e+14	8.060542e+14	2.775826e+14	1.289227e+04	4.407272e+03	2.598359e+03	0	9.656149e-04
5.300000e+08	1.508139e+13	0.000000e+00	4.461538e-01	3.159839e+14	7.955881e+14	2.762005e+14	1.285192e+04	4.401621e+03	2.595027e+03	0	9.580832e-04
5.400000e+08	1.473460e+13	0.000000e+00	4.461538e-01	3.101089e+14	7.853918e+14	2.748281e+14	1.281233e+04	4.396052e+03	2.591744e+03	0	9.506827e-04
5.500000e+08	1.439899e+13	0.000000e+00	4.461538e-01	3.044201e+14	7.754553e+14	2.734656e+14	1.277348e+04	4.390562e+03	2.588507e+03	0	9.434091e-04
5.600000e+08	1.407404e+13	0.000000e+00	4.461538e-01	2.989094e+14	7.657692e+14	2.721127e+14	1.273533e+04	4.385151e+03	2.585317e+03	0	9.362583e-04
5.700000e+08	1.375930e+13	0.000000e+00	4.461538e-01	2.935689e+14	7.563243e+14	2.707694e+14	1.269786e+04	4.379816e+03	2.582172e+03	0	9.292263e-04
5.800000e+08	1.345432e+13	0.000000e+00	4.461538e-01	2.883914e+14	7.471121e+14	2.694357e+14	1.266107e+04	4.374555e+03	2.579070e+03	0	9.223094e-04
5.900000e+08	1.315868e+13	0.000000e+00	4.461538e-01	2.833699e+14	7.381242e+14	2.681114e+14	1.262491e+04	4.369368e+03	2.576012e+03	0	9.155040e-04
6.000000e+08	1.287200e+13	0.000000e+00	4.461538e-01	2.784980e+14	7.293528e+14	2.667965e+14	1.258939e+04	4.364252e+03	2.572996e+03	0	9.088066e-04
6.100000e+08	1.259390e+13	0.000000e+00	4.461538e-01	2.737693e+14	7.207903e+14	2.654909e+14	1.255447e+04	4.359206e+03	2.570021e+03	0	9.022138e-04
6.200000e+08	1.232402e+13	0.000000e+00	4.461538e-01	2.691780e+14	7.124294e+14	2.641945e+14	1.252014e+04	4.354228e+03	2.567086e+03	0	8.957226e-04
6.300000e+08	1.206203e+13	0.000000e+00	4.461538e-01	2.647186e+14	7.042633e+14	2.629073e+14	1.248638e+04	4.349318e+03	2.564191e+03	0	8.893298e-04
6.400000e+08	1.180760e+13	0.000000e+00	4.461538e-01	2.603858e+14	6.962854e+14	2.616291e+14	1.245318e+04	4.344473e+03	2.561335e+03	0	8.830325e-04
6.500000e+08	1.156045e+13	0.000000e+00	4.461538e-01	2.561746e+14	6.884892e+14	2.603600e+14	1.242052e+04	4.339692e+03	2.558516e+03	0	8.768279e-04
6.600000e+08	1.132028e+13	0.000000e+00	4.461538e-01	2.520801e+14	6.808688e+14	2.590998e+14	1.238838e+04	4.334974e+03	2.555735e+03	0	8.707132e-04
6.700000e+08	1.108682e+13	0.000000e+00	4.461538e-01	2.480979e+14	6.734183e+14	2.578484e+14	1.235675e+04	4.330318e+03	2.552990e+03	0	8.646859e-04
6.800000e+08	1.085980e+13	0.000000e+00	4.461538e-01	2.442237e+14	6.661321e+14	2.566058e+14	1.232563e+04	4.325721e+03	2.550280e+03	0	8.587434e-04
6.900000e+08	1.063900e+13	0.000000e+00	4.461538e-01	2.404534e+14	6.590050e+14	2.553720e+14	1.229498e+04	4.321184e+03	2.547605e+03	0	8.528834e-04
7.000000e+08	1.042416e+13	0.000000e+00	4.461538e-01	2.367831e+14	6.520317e+14	2.541468e+14	1.226481e+04	4.316704e+03	2.544964e+03	0	8.471034e-04
7.100000e+08	1.021507e+13	0.000000e+00	4.461538e-01	2.332090e+14	6.452075e+14	2.529302e+14	1.223509e+04	4.312281e+03	2.542356e+03	0	8.414013e-04
7.200000e+08	1.001151e+13	0.000000e+00	4.461538e-01	2.297278e+14	6.385275e+14	2.517220e+14	1.220582e+04	4.307913e+03	2.539780e+03	0	8.357749e-04
7.300000e+08	9.813288e+12	0.000000e+00	4.461538e-01	2.263359e+14	6.319872e+14	2.505224e+14	1.217699e+04	4.303599e+03	2.537237e+03	0	8.302221e-04
7.400000e+08	9.620202e+12	0.000000e+00	4.461538e-01	2.230301e+14	6.255823e+14	2.493311e+14	1.214857e+04	4.299338e+03	2.534725e+03	0	8.247408e-04
7.500000e+08	9.432072e+12	0.000000e+00	4.461538e-01	2.198075e+14	6.193087e+14	2.481481e+14	1.212057e+04	4.295128e+03	2.532243e+03	0	8.193292e-04
7.600000e+08	9.248720e+12	0.000000e+00	4.461538e-01	2.166651e+14	6.131623e+14	2.469733e+14	1.209298e+04	4.290970e+03	2.529791e+03	0	8.139854e-04
7.700000e+08	9.069979e+12	0.000000e+00	4.461538e-01	2.136000e+14	6.071393e+14	2.458067e+14	1.206578e+04	4.286861e+03	2.527369e+03	0	8.087076e-04
7.800000e+08	8.895688e+12	0.000000e+00	4.461538e-01	2.106097e+14	6.012360e+14	2.446482e+14	1.203895e+04	4.282801e+03	2.524975e+03	0	8.034939e-04
7.900000e+08	8.725695e+12	0.000000e+00	4.461538e-01	2.076915e+14	5.954489e+14	2.434978e+14	1.201251e+04	4.278789e+03	2.522610e+03	0	7.983428e-04
8.000000e+08	8.559852e+12	0.000000e+00	4.461538e-01	2.048431e+14	5.897744e+14	2.423554e+14	1.198643e+04	4.274823e+03	2.520272e+03	0	7.932526e-04
8.100000e+08	8.398019e+12	0.000000e+00	4.461538e-01	2.020620e+14	5.842093e+14	2.412208e+14	1.196070e+04	4.270904e+03	2.517961e+03	0	7.882217e-04
8.200000e+08	8.240063e+12	0.000000e+00	4.461538e-01	1.993461e+14	5.787505e+14	2.400942e+14	1.193532e+04	4.267029e+03	2.515677e+03	0	7.832485e-04
8.300000e+08	8.085854e+12	0.000000e+00	4.461538e-01	1.966932e+14	5.733949e+14	2.389753e+14	1.191028e+04	4.263198e+03	2.513418e+03	0	7.783317e-04
8.400000e+08	7.935269e+12	0.000000e+00	4.461538e-01	1.941013e+14	5.681396e+14	2.378641e+14	1.188557e+04	4.259410e+03	2.511185e+03	0	7.734697e-04
8.500000e+08	7.788190e+12	0.000000e+00	4.461538e-01	1.915683e+14	5.629817e+14	2.367606e+14	1.186119e+04	4.255665e+03	2.508977e+03	0	7.686612e-04
8.600000e+08	7.644505e+12	0.000000e+00	4.461538e-01	1.890924e+14	5.579186e+14	2.356647e+14	1.183712e+04	4.251961e+03	2.506793e+03	0	7.639048e-04
8.700000e+08	7.504105e+12	0.000000e+00	4.461538e-01	1.866719e+14	5.529475e+14	2.345764e+14	1.181337e+04	4.248298e+03	2.504634e+03	0	7.591992e-04
8.800000e+08	7.366885e+12	0.000000e+00	4.461538e-01	1.843049e+14	5.480660e+14	2.334955e+14	1.178991e+04	4.244674e+03	2.502497e+03	0	7.545431e-04
8.900000e+08	7.232747e+12	0.000000e+00	4.461538e-01	1.819898e+14	5.432716e+14	2.324221e+14	1.176675e+04	4.241090e+03	2.500384e+03	0	7.499354e-04
9.000000e+08	7.101594e+12	0.000000e+00	4.461538e-01	1.797250e+14	5.385620e+14	2.313560e+14	1.174389e+04	4.237544e+03	2.498293e+03	0	7.453748e-04
9.100000e+08	6.973333e+12	0.000000e+00	4.461538e-01	1.775089e+14	5.339349e+14	2.302973e+14	1.172130e+04	4.234035e+03	2.496225e+03	0	7.408601e-04
9.200000e+08	6.847878e+12	0.000000e+00	4.461538e-01	1.753401e+14	5.293881e+14	2.292457e+14	1.169899e+04	4.230563e+03	2.494178e+03	0	7.363904e-04
9.300000e+08	6.725142e+12	0.000000e+00	4.461538e-01	1.732172e+14	5.249195e+14	2.282014e+14	1.167696e+04	4.227128e+03	2.492153e+03	0	7.319643e-04
9.400000e+08	6.605044e+12	0.000000e+00	4.461538e-01	1.711388e+14	5.205270e+14	2.271643e+14	1.165519e+04	4.223728e+03	2.490148e+03	0	7.275810e-04
9.500000e+08	6.487506e+12	0.000000e+00	4.461538e-01	1.691036e+14	5.162087e+14	2.261342e+14	1.163368e+04	4.220363e+03	2.488164e+03	0	7.232393e-04
9.600000e+08	6.372451e+12	0.000000e+00	4.461538e-01	1.671103e+14	5.119627e+14	2.251111e+14	1.161242e+04	4.217032e+03	2.486201e+03	0	7.189382e-04
9.700000e+08	6.259807e+12	0.000000e+00	4.461538e-01	1.651577e+14	5.077871e+14	2.240950e+14	1.159141e+04	4.213735e+03	2.484257e+03	0	7.146769e-04
9.800000e+08	6.149504e+12	0.000000e+00	4.461538e-01	1.632446e+14	5.036802e+14	2.230858e+14	1.157065e+04	4.210470e+03	2.482332e+03	0	7.104543e-04
9.900000e+08	6.041475e+12	0.000000e+00	4.461538e-01	1.613699e+14	4.996401e+14	2.220834e+14	1.155013e+04	4.207238e+03	2.480427e+03	0	7.062694e-04
1.000000e+09	5.935654e+12	0.000000e+00	4.461538e-01	1.595326e+14	4.956654e+14	2.210879e+14	1.152984e+04	4.204038e+03	2.478540e+03	0	7.021215e-04
1.010000e+09	5.831980e+12	0.000000e+00	4.461538e-01	1.577315e+14	4.917543e+14	2.200991e+14	1.150979e+04	4.200869e+03	2.476671e+03	0	6.980096e-04
1.020000e+09	5.730390e+12	0.000000e+00	4.461538e-01	1.559657e+14	4.879053e+14	2.191171e+14	1.148995e+04	4.197730e+03	2.474821e+03	0	6.939329e-04
1.030000e+09	5.630829e+12	0.000000e+00	4.461538e-01	1.542342e+14	4.841168e+14	2.181416e+14	1.147034e+04	4.194622e+03	2.472988e+03	0	6.898905e-04
1.040000e+09	5.533238e+12	0.000000e+00	4.461538e-01	1.525361e+14	4.803875e+14	2.171728e+14	1.145095e+04	4.191543e+03	2.471173e+03	0	6.858817e-04
1.050000e+09	5.437565e+12	0.000000e+00	4.461538e-01	1.508703e+14	4.767159e+14	2.162105e+14	1.143177e+04	4.188493e+03	2.469375e+03	0	6.819056e-04
1.060000e+09	5.343757e+12	0.000000e+00	4.461538e-01	1.492362e+14	4.731007e+14	2.152547e+14	1.141280e+04	4.185472e+03	2.467594e+03	0	6.779614e-04
1.070000e+09	5.251763e+12	0.000000e+00	4.461538e-01	1.476328e+14	4.695405e+14	2.143053e+14	1.139403e+04	4.182479e+03	2.465829e+03	0	6.740485e-04
1.080000e+09	5.161535e+12	0.000000e+00	4.461538e-01	1.460593e+14	4.660340e+14	2.133623e+14	1.137546e+04	4.179513e+03	2.464081e+03	0	6.701660e-04
1.090000e+09	5.073026e+12	0.000000e+00	4.461538e-01	1.445149e+14	4.625800e+14	2.124257e+14	1.135709e+04	4.176574e+03	2.462348e+03	0	6.663132e-04
1.100000e+09	4.986190e+12	0.000000e+00	4.461538e-01	1.429989e+14	4.591773e+14	2.114953e+14	1.133891e+04	4.173662e+03	2.460631e+03	0	6.624895e-04
1.110000e+09	4.900984e+12	0.000000e+00	4.461538e-01	1.415105e+14	4.558247e+14	2.105712e+14	1.132093e+04	4.170776e+03	2.458930e+03	0	6.586942e-04
1.120000e+09	4.817365e+12	0.000000e+00	4.461538e-01	1.400491e+14	4.525211e+14	2.096533e+14	1.130313e+04	4.167916e+03	2.457244e+03	0	6.549266e-04
1.130000e+09	4.735292e+12	0.000000e+00	4.461538e-01	1.386138e+14	4.492654e+14	2.087415e+14	1.128551e+04	4.165081e+03	2.455572e+03	0	6.511859e-04
1.140000e+09	4.654726e+12	0.000000e+00	4.461538e-01	1.372042e+14	4.460565e+14	2.078358e+14	1.126808e+04	4.162271e+03	2.453915e+03	0	6.474717e-04
1.150000e+09	4.575628e+12	0.000000e+00	4.461538e-01	1.358194e+14	4.428934e+14	2.069362e+14	1.125082e+04	4.159485e+03	2.452273e+03	0	6.437832e-04
1.160000e+09	4.497961e+12	0.000000e+00	4.461538e-01	1.344590e+14	4.397750e+14	2.060426e+14	1.123373e+04	4.156723e+03	2.450645e+03	0	6.401199e-04
1.170000e+09	4.421689e+12	0.000000e+00	4.461538e-01	1.331222e+14	4.367005e+14	2.051549e+14	1.121681e+04	4.153985e+03	2.449031e+03	0	6.364811e-04
1.180000e+09	4.346777e+12	0.000000e+00	4.461538e-01	1.318086e+14	4.336688e+14	2.042731e+14	1.120007e+04	4.151271e+03	2.447430e+03	0	6.328662e-04
1.190000e+09	4.273192e+12	0.000000e+00	4.461538e-01	1.305175e+14	4.306790e+14	2.033972e+14	1.118348e+04	4.148579e+03	2.445843e+03	0	6.292746e-04
1.200000e+09	4.200902e+12	0.000000e+00	4.461538e-01	1.292484e+14	4.277303e+14	2.025271e+14	1.116706e+04	4.145910e+03	2.444269e+03	0	6.257059e-04
1.210000e+09	4.129874e+12	0.000000e+00	4.461538e-01	1.280008e+14	4.248218e+14	2.016628e+14	1.115080e+04	4.143262e+03	2.442709e+03	0	6.221594e-04
1.220000e+09	4.060077e+12	0.000000e+00	4.461538e-01	1.267741e+14	4.219526e+14	2.008042e+14	1.113469e+04	4.140637e+03	2.441161e+03	0	6.186346e-04
1.230000e+09	3.991484e+12	0.000000e+00	4.461538e-01	1.255679e+14	4.191219e+14	1.999513e+14	1.111874e+04	4.138033e+03	2.439626e+03	0	6.151309e-04
1.240000e+09	3.924063e+12	0.000000e+00	4.461538e-01	1.243817e+14	4.163289e+14	1.991040e+14	1.110294e+04	4.135450e+03	2.438103e+03	0	6.116478e-04
1.250000e+09	3.857789e+12	0.000000e+00	4.461538e-01	1.232150e+14	4.135729e+14	1.982623e+14	1.108729e+04	4.132888e+03	2.436593e+03	0	6.081848e-04
1.260000e+09	3.792633e+12	0.000000e+00	4.461538e-01	1.220673e+14	4.108530e+14	1.974261e+14	1.107178e+04	4.130347e+03	2.435094e+03	0	6.047414e-04
1.270000e+09	3.728570e+12	0.000000e+00	4.461538e-01	1.209382e+14	4.081686e+14	1.965955e+14	1.105642e+04	4.127826e+03	2.433608e+03	0	6.013171e-04
1.280000e+09	3.665575e+12	0.000000e+00	4.461538e-01	1.198274e+14	4.055189e+14	1.957703e+14	1.104120e+04	4.125324e+03	2.432133e+03	0	5.979113e-04
1.290000e+09	3.603621e+12	0.000000e+00	4.461538e-01	1.187343e+14	4.029033e+14	1.949506e+14	1.102612e+04	4.122842e+03	2.430670e+03	0	5.945237e-04
1.300000e+09	3.542687e+12	0.000000e+00	4.461538e-01	1.176586e+14	4.003210e+14	1.941362e+14	1.101118e+04	4.120380e+03	2.429218e+03	0	5.911536e-04
1.310000e+09	3.482748e+12	0.000000e+00	4.461538e-01	1.165998e+14	3.977715e+14	1.933272e+14	1.099637e+04	4.117936e+03	2.427777e+03	0	5.878007e-04
1.320000e+09	3.423781e+12	0.000000e+00	4.461538e-01	1.155577e+14	3.952540e+14	1.925235e+14	1.098169e+04	4.115511e+03	2.426348e+03	0	5.844644e-04
1.330000e+09	3.365766e+12	0.000000e+00	4.461538e-01	1.145318e+14	3.927680e+14	1.917250e+14	1.096715e+04	4.113105e+03	2.424929e+03	0	5.811444e-04
1.340000e+09	3.308680e+12	0.000000e+00	4.461538e-01	1.135218e+14	3.903129e+14	1.909317e+14	1.095273e+04	4.110716e+03	2.423521e+03	0	5.778401e-04
1.350000e+09	3.252504e+12	0.000000e+00	4.461538e-01	1.125273e+14	3.878880e+14	1.901436e+14	1.093844e+04	4.108346e+03	2.422123e+03	0	5.745511e-04
1.360000e+09	3.197216e+12	0.000000e+00	4.461538e-01	1.115479e+14	3.854928e+14	1.893607e+14	1.092428e+04	4.105993e+03	2.420736e+03	0	5.712770e-04
