#t		Qconv[W]	Ri[Rp]		R*[Rp]		Qc[W]		Qm[W]		Qr[W]		Tcmb[K]		Tl[K]		Tup[K]		RiFlag		Bs[T]
0.000000e+00	1.161448e+14	0.000000e+00	4.461538e-01	1.940948e+15	2.120984e+15	3.838478e+14	1.834100e+04	4.872062e+03	2.841787e+03	0	1.888467e-03
1.000000e+07	1.092306e+14	0.000000e+00	4.461538e-01	1.830641e+15	2.100734e+15	3.817210e+14	1.811631e+04	4.877263e+03	2.844821e+03	0	1.850224e-03
2.000000e+07	1.029285e+14	0.000000e+00	4.461538e-01	1.730055e+15	2.075545e+15	3.796101e+14	1.790414e+04	4.880105e+03	2.846479e+03	0	1.813934e-03
3.000000e+07	9.716824e+13	0.000000e+00	4.461538e-01	1.638076e+15	2.046553e+15	3.775150e+14	1.770340e+04	4.880962e+03	2.846978e+03	0	1.779444e-03
4.000000e+07	9.188907e+13	0.000000e+00	4.461538e-01	1.553741e+15	2.014701e+15	3.754355e+14	1.751315e+04	4.880150e+03	2.846505e+03	0	1.746616e-03
5.000000e+07	8.703864e+13	0.000000e+00	4.461538e-01	1.476220e+15	1.980768e+15	3.733715e+14	1.733252e+04	4.877937e+03	2.845214e+03	0	1.715327e-03
6.000000e+07	8.257143e+13	0.000000e+00	4.461538e-01	1.404791e+15	1.945392e+15	3.713229e+14	1.716074e+04	4.874551e+03	2.843239e+03	0	1.685464e-03
7.000000e+07	7.844777e+13	0.000000e+00	4.461538e-01	1.338825e+15	1.909090e+15	3.692896e+14	1.699714e+04	4.870184e+03	2.840692e+03	0	1.656926e-03
8.000000e+07	7.463298e+13	0.000000e+00	4.461538e-01	1.277771e+15	1.872284e+15	3.672714e+14	1.684111e+04	4.865000e+03	2.837668e+03	0	1.629620e-03
9.000000e+07	7.109663e+13	0.000000e+00	4.461538e-01	1.221148e+15	1.835308e+15	3.652682e+14	1.669207e+04	4.859138e+03	2.834249e+03	0	1.603464e-03
1.000000e+08	6.781193e+13	0.000000e+00	4.461538e-01	1.168529e+15	1.798430e+15	3.632799e+14	1.654955e+04	4.852715e+03	2.830502e+03	0	1.578380e-03
1.100000e+08	6.475524e+13	0.000000e+00	4.461538e-01	1.119539e+15	1.761863e+15	3.613063e+14	1.641307e+04	4.845832e+03	2.826487e+03	0	1.554299e-03
1.200000e+08	6.190560e+13	0.000000e+00	4.461538e-01	1.073846e+15	1.725771e+15	3.593474e+14	1.628223e+04	4.838574e+03	2.822254e+03	0	1.531156e-03
1.300000e+08	5.924444e+13	0.000000e+00	4.461538e-01	1.031154e+15	1.690281e+15	3.574030e+14	1.615666e+04	4.831014e+03	2.817845e+03	0	1.508894e-03
1.400000e+08	5.675519e+13	0.000000e+00	4.461538e-01	9.912016e+14	1.655489e+15	3.554729e+14	1.603602e+04	4.823215e+03	2.813296e+03	0	1.487458e-03
1.500000e+08	5.442310e+13	0.000000e+00	4.461538e-01	9.537530e+14	1.621465e+15	3.535571e+14	1.591999e+04	4.815228e+03	2.808637e+03	0	1.466799e-03
1.600000e+08	5.223493e+13	0.000000e+00	4.461538e-01	9.185986e+14	1.588260e+15	3.516555e+14	1.580828e+04	4.807100e+03	2.803896e+03	0	1.446871e-03
1.700000e+08	5.017885e+13	0.000000e+00	4.461538e-01	8.855499e+14	1.555907e+15	3.497679e+14	1.570065e+04	4.798869e+03	2.799095e+03	0	1.427632e-03
1.800000e+08	4.824419e+13	0.000000e+00	4.461538e-01	8.544378e+14	1.524427e+15	3.478942e+14	1.559683e+04	4.790566e+03	2.794252e+03	0	1.409044e-03
1.900000e+08	4.642137e+13	0.000000e+00	4.461538e-01	8.251096e+14	1.493828e+15	3.460344e+14	1.549662e+04	4.782221e+03	2.789385e+03	0	1.391069e-03
2.000000e+08	4.470172e+13	0.000000e+00	4.461538e-01	7.974277e+14	1.464113e+15	3.441882e+14	1.539982e+04	4.773857e+03	2.784506e+03	0	1.373676e-03
2.100000e+08	4.307742e+13	0.000000e+00	4.461538e-01	7.712675e+14	1.435275e+15	3.423555e+14	1.530622e+04	4.765495e+03	2.779628e+03	0	1.356832e-03
2.200000e+08	4.154135e+13	0.000000e+00	4.461538e-01	7.465161e+14	1.407303e+15	3.405364e+14	1.521566e+04	4.757150e+03	2.774761e+03	0	1.340509e-03
2.300000e+08	4.008707e+13	0.000000e+00	4.461538e-01	7.230708e+14	1.380183e+15	3.387306e+14	1.512797e+04	4.748839e+03	2.769913e+03	0	1.324680e-03
2.400000e+08	3.870873e+13	0.000000e+00	4.461538e-01	7.008385e+14	1.353897e+15	3.369380e+14	1.504301e+04	4.740572e+03	2.765092e+03	0	1.309320e-03
2.500000e+08	3.740097e+13	0.000000e+00	4.461538e-01	6.797341e+14	1.328425e+15	3.351586e+14	1.496063e+04	4.732362e+03	2.760303e+03	0	1.294406e-03
2.600000e+08	3.615893e+13	0.000000e+00	4.461538e-01	6.596800e+14	1.303744e+15	3.333922e+14	1.488071e+04	4.724215e+03	2.755551e+03	0	1.279916e-03
2.700000e+08	3.497814e+13	0.000000e+00	4.461538e-01	6.406051e+14	1.279832e+15	3.316387e+14	1.480312e+04	4.716139e+03	2.750840e+03	0	1.265829e-03
2.800000e+08	3.385451e+13	0.000000e+00	4.461538e-01	6.224444e+14	1.256665e+15	3.298980e+14	1.472776e+04	4.708141e+03	2.746175e+03	0	1.252127e-03
2.900000e+08	3.278431e+13	0.000000e+00	4.461538e-01	6.051384e+14	1.234218e+15	3.281700e+14	1.465451e+04	4.700225e+03	2.741558e+03	0	1.238791e-03
3.000000e+08	3.176409e+13	0.000000e+00	4.461538e-01	5.886321e+14	1.212469e+15	3.264546e+14	1.458327e+04	4.692395e+03	2.736991e+03	0	1.225806e-03
3.100000e+08	3.079069e+13	0.000000e+00	4.461538e-01	5.728753e+14	1.191392e+15	3.247517e+14	1.451397e+04	4.684654e+03	2.732476e+03	0	1.213154e-03
3.200000e+08	2.986120e+13	0.000000e+00	4.461538e-01	5.578213e+14	1.170965e+15	3.230612e+14	1.444650e+04	4.677005e+03	2.728014e+03	0	1.200822e-03
3.300000e+08	2.897293e+13	0.000000e+00	4.461538e-01	5.434275e+14	1.151163e+15	3.213830e+14	1.438078e+04	4.669449e+03	2.723607e+03	0	1.188795e-03
3.400000e+08	2.812339e+13	0.000000e+00	4.461538e-01	5.296542e+14	1.131964e+15	3.197170e+14	1.431675e+04	4.661988e+03	2.719255e+03	0	1.177060e-03
3.500000e+08	2.731028e+13	0.000000e+00	4.461538e-01	5.164647e+14	1.113345e+15	3.180630e+14	1.425433e+04	4.654623e+03	2.714959e+03	0	1.165605e-03
3.600000e+08	2.653149e+13	0.000000e+00	4.461538e-01	5.038252e+14	1.095286e+15	3.164211e+14	1.419345e+04	4.647353e+03	2.710719e+03	0	1.154419e-03
3.700000e+08	2.578504e+13	0.000000e+00	4.461538e-01	4.917042e+14	1.077765e+15	3.147910e+14	1.413405e+04	4.640181e+03	2.706535e+03	0	1.143489e-03
3.800000e+08	2.506910e+13	0.000000e+00	4.461538e-01	4.800726e+14	1.060761e+15	3.131727e+14	1.407606e+04	4.633104e+03	2.702407e+03	0	1.132807e-03
3.900000e+08	2.438197e+13	0.000000e+00	4.461538e-01	4.689031e+14	1.044256e+15	3.115662e+14	1.401944e+04	4.626124e+03	2.698336e+03	0	1.122361e-03
4.000000e+08	2.372207e+13	0.000000e+00	4.461538e-01	4.581706e+14	1.028230e+15	3.099712e+14	1.396412e+04	4.619239e+03	2.694320e+03	0	1.112142e-03
4.100000e+08	2.308792e+13	0.000000e+00	4.461538e-01	4.478516e+14	1.012665e+15	3.083878e+14	1.391006e+04	4.612449e+03	2.690359e+03	0	1.102143e-03
4.200000e+08	2.247816e+13	0.000000e+00	4.461538e-01	4.379240e+14	9.975441e+14	3.068157e+14	1.385720e+04	4.605752e+03	2.686454e+03	0	1.092353e-03
4.300000e+08	2.189150e+13	0.000000e+00	4.461538e-01	4.283676e+14	9.828503e+14	3.052550e+14	1.380551e+04	4.599149e+03	2.682602e+03	0	1.082766e-03
4.400000e+08	2.132675e+13	0.000000e+00	4.461538e-01	4.191631e+14	9.685674e+14	3.037055e+14	1.375494e+04	4.592637e+03	2.678804e+03	0	1.073374e-03
4.500000e+08	2.078279e+13	0.000000e+00	4.461538e-01	4.102926e+14	9.546801e+14	3.021671e+14	1.370545e+04	4.586216e+03	2.675059e+03	0	1.064169e-03
4.600000e+08	2.025856e+13	0.000000e+00	4.461538e-01	4.017395e+14	9.411736e+14	3.006398e+14	1.365699e+04	4.579885e+03	2.671365e+03	0	1.055146e-03
4.700000e+08	1.975310e+13	0.000000e+00	4.461538e-01	3.934880e+14	9.280337e+14	2.991235e+14	1.360954e+04	4.573641e+03	2.667724e+03	0	1.046296e-03
4.800000e+08	1.926547e+13	0.000000e+00	4.461538e-01	3.855236e+14	9.152469e+14	2.976180e+14	1.356306e+04	4.567485e+03	2.664133e+03	0	1.037615e-03
4.900000e+08	1.879483e+13	0.000000e+00	4.461538e-01	3.778322e+14	9.028000e+14	2.961232e+14	1.351751e+04	4.561414e+03	2.660592e+03	0	1.029095e-03
5.000000e+08	1.834035e+13	0.000000e+00	4.461538e-01	3.704011e+14	8.906807e+14	2.946392e+14	1.347287e+04	4.555426e+03	2.657099e+03	0	1.020733e-03
5.100000e+08	1.790127e+13	0.000000e+00	4.461538e-01	3.632180e+14	8.788771e+14	2.931658e+14	1.342910e+04	4.549522e+03	2.653655e+03	0	1.012521e-03
5.200000e+08	1.747689e+13	0.000000e+00	4.461538e-01	3.562715e+14	8.673776e+14	2.917029e+14	1.338617e+04	4.543698e+03	2.650259e+03	0	1.004456e-03
5.300000e+08	1.706652e+13	0.000000e+00	4.461538e-01	3.495507e+14	8.561715e+14	2.902504e+14	1.334405e+04	4.537955e+03	2.646908e+03	0	9.965317e-04
5.400000e+08	1.666952e+13	0.000000e+00	4.461538e-01	3.430455e+14	8.452481e+14	2.888082e+14	1.330273e+04	4.532289e+03	2.643604e+03	0	9.887441e-04
5.500000e+08	1.628531e+13	0.000000e+00	4.461538e-01	3.367463e+14	8.345975e+14	2.873764e+14	1.326217e+04	4.526701e+03	2.640344e+03	0	9.810885e-04
5.600000e+08	1.591332e+13	0.000000e+00	4.461538e-01	3.306440e+14	8.242101e+14	2.859547e+14	1.322235e+04	4.521188e+03	2.637128e+03	0	9.735608e-04
5.700000e+08	1.555300e+13	0.000000e+00	4.461538e-01	3.247301e+14	8.140767e+14	2.845431e+14	1.318324e+04	4.515748e+03	2.633956e+03	0	9.661567e-04
5.800000e+08	1.520386e+13	0.000000e+00	4.461538e-01	3.189966e+14	8.041884e+14	2.831415e+14	1.314483e+04	4.510382e+03	2.630826e+03	0	9.588724e-04
5.900000e+08	1.486542e+13	0.000000e+00	4.461538e-01	3.134357e+14	7.945368e+14	2.817498e+14	1.310710e+04	4.505087e+03	2.627737e+03	0	9.517041e-04
6.000000e+08	1.453723e+13	0.000000e+00	4.461538e-01	3.080403e+14	7.851139e+14	2.803680e+14	1.307002e+04	4.499861e+03	2.624689e+03	0	9.446482e-04
6.100000e+08	1.421887e+13	0.000000e+00	4.461538e-01	3.028035e+14	7.759118e+14	2.789960e+14	1.303357e+04	4.494704e+03	2.621681e+03	0	9.377012e-04
6.200000e+08	1.390991e+13	0.000000e+00	4.461538e-01	2.977188e+14	7.669232e+14	2.776337e+14	1.299774e+04	4.489614e+03	2.618712e+03	0	9.308599e-04
6.300000e+08	1.361000e+13	0.000000e+00	4.461538e-01	2.927800e+14	7.581409e+14	2.762810e+14	1.296251e+04	4.484590e+03	2.615782e+03	0	9.241210e-04
6.400000e+08	1.331875e+13	0.000000e+00	4.461538e-01	2.879814e+14	7.495581e+14	2.749378e+14	1.292786e+04	4.479631e+03	2.612889e+03	0	9.174815e-04
6.500000e+08	1.303583e+13	0.000000e+00	4.461538e-01	2.833173e+14	7.411683e+14	2.736041e+14	1.289378e+04	4.474734e+03	2.610033e+03	0	9.109384e-04
6.600000e+08	1.276090e+13	0.000000e+00	4.461538e-01	2.787826e+14	7.329652e+14	2.722798e+14	1.286024e+04	4.469900e+03	2.607213e+03	0	9.044890e-04
6.700000e+08	1.249366e+13	0.000000e+00	4.461538e-01	2.743722e+14	7.249426e+14	2.709648e+14	1.282724e+04	4.465127e+03	2.604429e+03	0	8.981304e-04
6.800000e+08	1.223381e+13	0.000000e+00	4.461538e-01	2.700813e+14	7.170950e+14	2.696590e+14	1.279475e+04	4.460413e+03	2.601680e+03	0	8.918601e-04
6.900000e+08	1.198106e+13	0.000000e+00	4.461538e-01	2.659056e+14	7.094166e+14	2.683624e+14	1.276277e+04	4.455758e+03	2.598964e+03	0	8.856755e-04
7.000000e+08	1.173516e+13	0.000000e+00	4.461538e-01	2.618405e+14	7.019022e+14	2.670748e+14	1.273129e+04	4.451159e+03	2.596282e+03	0	8.795742e-04
7.100000e+08	1.149584e+13	0.000000e+00	4.461538e-01	2.578821e+14	6.945467e+14	2.657963e+14	1.270028e+04	4.446617e+03	2.593633e+03	0	8.735539e-04
7.200000e+08	1.126286e+13	0.000000e+00	4.461538e-01	2.540264e+14	6.873451e+14	2.645268e+14	1.266974e+04	4.442130e+03	2.591016e+03	0	8.676122e-04
7.300000e+08	1.103598e+13	0.000000e+00	4.461538e-01	2.502697e+14	6.802927e+14	2.632661e+14	1.263965e+04	4.437697e+03	2.588430e+03	0	8.617471e-04
7.400000e+08	1.081500e+13	0.000000e+00	4.461538e-01	2.466085e+14	6.733849e+14	2.620142e+14	1.261001e+04	4.433317e+03	2.585875e+03	0	8.559565e-04
7.500000e+08	1.059969e+13	0.000000e+00	4.461538e-01	2.430394e+14	6.666174e+14	2.607710e+14	1.258079e+04	4.428988e+03	2.583350e+03	0	8.502382e-04
7.600000e+08	1.038986e+13	0.000000e+00	4.461538e-01	2.395590e+14	6.599860e+14	2.595365e+14	1.255200e+04	4.424711e+03	2.580855e+03	0	8.445903e-04
7.700000e+08	1.018531e+13	0.000000e+00	4.461538e-01	2.361644e+14	6.534866e+14	2.583105e+14	1.252362e+04	4.420483e+03	2.578389e+03	0	8.390109e-04
7.800000e+08	9.985864e+12	0.000000e+00	4.461538e-01	2.328525e+14	6.471154e+14	2.570931e+14	1.249564e+04	4.416304e+03	2.575952e+03	0	8.334983e-04
7.900000e+08	9.791339e+12	0.000000e+00	4.461538e-01	2.296206e+14	6.408685e+14	2.558842e+14	1.246805e+04	4.412173e+03	2.573542e+03	0	8.280506e-04
8.000000e+08	9.601569e+12	0.000000e+00	4.461538e-01	2.264660e+14	6.347424e+14	2.546836e+14	1.244084e+04	4.408089e+03	2.571160e+03	0	8.226661e-04
8.100000e+08	9.416395e+12	0.000000e+00	4.461538e-01	2.233860e+14	6.287337e+14	2.534914e+14	1.241400e+04	4.404051e+03	2.568805e+03	0	8.173431e-04
8.200000e+08	9.235663e+12	0.000000e+00	4.461538e-01	2.203782e+14	6.228389e+14	2.523074e+14	1.238752e+04	4.400058e+03	2.566476e+03	0	8.120801e-04
8.300000e+08	9.059225e+12	0.000000e+00	4.461538e-01	2.174401e+14	6.170549e+14	2.511316e+14	1.236140e+04	4.396110e+03	2.564173e+03	0	8.068755e-04
8.400000e+08	8.886940e+12	0.000000e+00	4.461538e-01	2.145697e+14	6.113786e+14	2.499639e+14	1.233563e+04	4.392205e+03	2.561895e+03	0	8.017277e-04
8.500000e+08	8.718672e+12	0.000000e+00	4.461538e-01	2.117646e+14	6.058069e+14	2.488043e+14	1.231019e+04	4.388343e+03	2.559642e+03	0	7.966354e-04
8.600000e+08	8.554294e+12	0.000000e+00	4.461538e-01	2.090227e+14	6.003369e+14	2.476526e+14	1.228509e+04	4.384522e+03	2.557414e+03	0	7.915971e-04
8.700000e+08	8.393679e+12	0.000000e+00	4.461538e-01	2.063421e+14	5.949660e+14	2.465089e+14	1.226031e+04	4.380743e+03	2.555210e+03	0	7.866115e-04
8.800000e+08	8.236710e+12	0.000000e+00	4.461538e-01	2.037209e+14	5.896913e+14	2.453731e+14	1.223585e+04	4.377004e+03	2.553029e+03	0	7.816772e-04
8.900000e+08	8.083271e+12	0.000000e+00	4.461538e-01	2.011572e+14	5.845104e+14	2.442450e+14	1.221169e+04	4.373304e+03	2.550871e+03	0	7.767928e-04
9.000000e+08	7.933253e+12	0.000000e+00	4.461538e-01	1.986492e+14	5.794206e+14	2.431247e+14	1.218784e+04	4.369644e+03	2.548736e+03	0	7.719573e-04
9.100000e+08	7.786550e+12	0.000000e+00	4.461538e-01	1.961952e+14	5.744197e+14	2.420121e+14	1.216429e+04	4.366021e+03	2.546623e+03	0	7.671693e-04
9.200000e+08	7.643061e+12	0.000000e+00	4.461538e-01	1.937937e+14	5.695052e+14	2.409071e+14	1.214102e+04	4.362436e+03	2.544531e+03	0	7.624276e-04
9.300000e+08	7.502689e+12	0.000000e+00	4.461538e-01	1.914429e+14	5.646749e+14	2.398097e+14	1.211804e+04	4.358887e+03	2.542462e+03	0	7.577312e-04
9.400000e+08	7.365339e+12	0.000000e+00	4.461538e-01	1.891415e+14	5.599267e+14	2.387198e+14	1.209533e+04	4.355375e+03	2.540413e+03	0	7.530788e-04
9.500000e+08	7.230922e+12	0.000000e+00	4.461538e-01	1.868879e+14	5.552583e+14	2.376373e+14	1.207290e+04	4.351898e+03	2.538385e+03	0	7.484694e-04
9.600000e+08	7.099351e+12	0.000000e+00	4.461538e-01	1.846807e+14	5.506679e+14	2.365621e+14	1.205073e+04	4.348456e+03	2.536377e+03	0	7.439020e-04
9.700000e+08	6.970543e+12	0.000000e+00	4.461538e-01	1.825187e+14	5.461534e+14	2.354944e+14	1.202883e+04	4.345047e+03	2.534389e+03	0	7.393755e-04
9.800000e+08	6.844417e+12	0.000000e+00	4.461538e-01	1.804005e+14	5.417130e+14	2.344338e+14	1.200718e+04	4.341673e+03	2.532421e+03	0	7.348889e-04
9.900000e+08	6.720897e+12	0.000000e+00	4.461538e-01	1.783248e+14	5.373447e+14	2.333805e+14	1.198578e+04	4.338331e+03	2.530472e+03	0	7.304412e-04
1.000000e+09	6.599907e+12	0.000000e+00	4.461538e-01	1.762905e+14	5.330468e+14	2.323343e+14	1.196462e+04	4.335022e+03	2.528541e+03	0	7.260314e-04
1.010000e+09	6.481376e+12	0.000000e+00	4.461538e-01	1.742964e+14	5.288177e+14	2.312953e+14	1.194371e+04	4.331744e+03	2.526630e+03	0	7.216588e-04
1.020000e+09	6.365234e+12	0.000000e+00	4.461538e-01	1.723414e+14	5.246555e+14	2.302632e+14	1.192303e+04	4.328498e+03	2.524736e+03	0	7.173222e-04
1.030000e+09	6.251415e+12	0.000000e+00	4.461538e-01	1.704244e+14	5.205588e+14	2.292382e+14	1.190258e+04	4.325282e+03	2.522860e+03	0	7.130209e-04
1.040000e+09	6.139856e+12	0.000000e+00	4.461538e-01	1.685443e+14	5.165259e+14	2.282201e+14	1.188236e+04	4.322097e+03	2.521002e+03	0	7.087540e-04
1.050000e+09	6.030492e+12	0.000000e+00	4.461538e-01	1.667002e+14	5.125554e+14	2.272088e+14	1.186236e+04	4.318941e+03	2.519162e+03	0	7.045207e-04
1.060000e+09	5.923266e+12	0.000000e+00	4.461538e-01	1.648911e+14	5.086457e+14	2.262044e+14	1.184258e+04	4.315814e+03	2.517338e+03	0	7.003201e-04
1.070000e+09	5.818118e+12	0.000000e+00	4.461538e-01	1.631160e+14	5.047955e+14	2.252067e+14	1.182301e+04	4.312716e+03	2.515531e+03	0	6.961514e-04
1.080000e+09	5.714994e+12	0.000000e+00	4.461538e-01	1.613741e+14	5.010033e+14	2.242158e+14	1.180365e+04	4.309647e+03	2.513740e+03	0	6.920138e-04
1.090000e+09	5.613838e+12	0.000000e+00	4.461538e-01	1.596645e+14	4.972679e+14	2.232315e+14	1.178450e+04	4.306604e+03	2.511966e+03	0	6.879066e-04
1.100000e+09	5.514600e+12	0.000000e+00	4.461538e-01	1.579862e+14	4.935879e+14	2.222538e+14	1.176555e+04	4.303590e+03	2.510207e+03	0	6.838290e-04
1.110000e+09	5.417229e+12	0.000000e+00	4.461538e-01	1.563386e+14	4.899621e+14	2.212827e+14	1.174680e+04	4.300601e+03	2.508464e+03	0	6.797803e-04
1.120000e+09	5.321676e+12	0.000000e+00	4.461538e-01	1.547209e+14	4.863892e+14	2.203181e+14	1.172825e+04	4.297640e+03	2.506737e+03	0	6.757597e-04
1.130000e+09	5.227894e+12	0.000000e+00	4.461538e-01	1.531321e+14	4.828682e+14	2.193599e+14	1.170988e+04	4.294704e+03	2.505024e+03	0	6.717666e-04
1.140000e+09	5.135838e+12	0.000000e+00	4.461538e-01	1.515718e+14	4.793978e+14	2.184081e+14	1.169171e+04	4.291793e+03	2.503327e+03	0	6.678003e-04
1.150000e+09	5.045464e+12	0.000000e+00	4.461538e-01	1.500390e+14	4.759769e+14	2.174627e+14	1.167371e+04	4.288908e+03	2.501644e+03	0	6.638600e-04
1.160000e+09	4.956729e+12	0.000000e+00	4.461538e-01	1.485332e+14	4.726045e+14	2.165237e+14	1.165590e+04	4.286047e+03	2.499975e+03	0	6.599452e-04
1.170000e+09	4.869592e+12	0.000000e+00	4.461538e-01	1.470536e+14	4.692794e+14	2.155908e+14	1.163827e+04	4.283211e+03	2.498321e+03	0	6.560551e-04
1.180000e+09	4.784013e+12	0.000000e+00	4.461538e-01	1.455996e+14	4.660008e+14	2.146642e+14	1.162081e+04	4.280398e+03	2.496680e+03	0	6.521892e-04
1.190000e+09	4.699954e+12	0.000000e+00	4.461538e-01	1.441706e+14	4.627675e+14	2.137437e+14	1.160353e+04	4.277609e+03	2.495053e+03	0	6.483468e-04
1.200000e+09	4.617377e+12	0.000000e+00	4.461538e-01	1.427660e+14	4.595786e+14	2.128294e+14	1.158641e+04	4.274843e+03	2.493440e+03	0	6.445272e-04
1.210000e+09	4.536246e+12	0.000000e+00	4.461538e-01	1.413852e+14	4.564333e+14	2.119211e+14	1.156946e+04	4.272100e+03	2.491840e+03	0	6.407300e-04
1.220000e+09	4.456527e+12	0.000000e+00	4.461538e-01	1.400276e+14	4.533305e+14	2.110188e+14	1.155267e+04	4.269379e+03	2.490253e+03	0	6.369544e-04
1.230000e+09	4.378184e+12	0.000000e+00	4.461538e-01	1.386927e+14	4.502694e+14	2.101225e+14	1.153605e+04	4.266681e+03	2.488679e+03	0	6.331999e-04
1.240000e+09	4.301186e+12	0.000000e+00	4.461538e-01	1.373799e+14	4.472491e+14	2.092321e+14	1.151958e+04	4.264004e+03	2.487118e+03	0	6.294659e-04
1.250000e+09	4.225500e+12	0.000000e+00	4.461538e-01	1.360887e+14	4.442689e+14	2.083476e+14	1.150326e+04	4.261348e+03	2.485569e+03	0	6.257519e-04
1.260000e+09	4.151095e+12	0.000000e+00	4.461538e-01	1.348186e+14	4.413278e+14	2.074689e+14	1.148710e+04	4.258714e+03	2.484032e+03	0	6.220573e-04
1.270000e+09	4.077941e+12	0.000000e+00	4.461538e-01	1.335692e+14	4.384252e+14	2.065960e+14	1.147109e+04	4.256100e+03	2.482508e+03	0	6.183815e-04
1.280000e+09	4.006009e+12	0.000000e+00	4.461538e-01	1.323399e+14	4.355602e+14	2.057289e+14	1.145523e+04	4.253507e+03	2.480995e+03	0	6.147240e-04
1.290000e+09	3.935272e+12	0.000000e+00	4.461538e-01	1.311303e+14	4.327320e+14	2.048674e+14	1.143952e+04	4.250934e+03	2.479494e+03	0	6.110842e-04
1.300000e+09	3.865700e+12	0.000000e+00	4.461538e-01	1.299399e+14	4.299400e+14	2.040116e+14	1.142394e+04	4.248380e+03	2.478005e+03	0	6.074617e-04
1.310000e+09	3.797269e+12	0.000000e+00	4.461538e-01	1.287684e+14	4.271835e+14	2.031615e+14	1.140851e+04	4.245846e+03	2.476527e+03	0	6.038558e-04
1.320000e+09	3.729951e+12	0.000000e+00	4.461538e-01	1.276153e+14	4.244617e+14	2.023168e+14	1.139322e+04	4.243332e+03	2.475060e+03	0	6.002662e-04
1.330000e+09	3.663722e+12	0.000000e+00	4.461538e-01	1.264801e+14	4.217740e+14	2.014777e+14	1.137806e+04	4.240836e+03	2.473605e+03	0	5.966922e-04
1.340000e+09	3.598558e+12	0.000000e+00	4.461538e-01	1.253625e+14	4.191197e+14	2.006441e+14	1.136304e+04	4.238360e+03	2.472160e+03	0	5.931334e-04
1.350000e+09	3.534435e+12	0.000000e+00	4.461538e-01	1.242621e+14	4.164983e+14	1.998160e+14	1.134815e+04	4.235901e+03	2.470726e+03	0	5.895892e-04
1.360000e+09	3.471329e+12	0.000000e+00	4.461538e-01	1.231786e+14	4.139089e+14	1.989932e+14	1.133339e+04	4.233461e+03	2.469303e+03	0	5.860591e-04
