#t		Qconv[W]	Ri[Rp]		R*[Rp]		Qc[W]		Qm[W]		Qr[W]		Tcmb[K]		Tl[K]		Tup[K]		RiFlag		Bs[T]
0.000000e+00	1.313770e+14	0.000000e+00	4.427481e-01	2.119712e+15	2.278972e+15	4.111361e+14	1.862016e+04	4.941804e+03	2.843250e+03	0	1.960760e-03
1.000000e+07	1.234293e+14	0.000000e+00	4.427481e-01	1.997482e+15	2.258719e+15	4.088581e+14	1.838731e+04	4.947807e+03	2.846704e+03	0	1.920396e-03
2.000000e+07	1.161955e+14	0.000000e+00	4.427481e-01	1.886179e+15	2.232876e+15	4.065972e+14	1.816762e+04	4.951320e+03	2.848725e+03	0	1.882122e-03
3.000000e+07	1.095922e+14	0.000000e+00	4.427481e-01	1.784528e+15	2.202708e+15	4.043531e+14	1.795993e+04	4.952736e+03	2.849539e+03	0	1.845771e-03
4.000000e+07	1.035478e+14	0.000000e+00	4.427481e-01	1.691438e+15	2.169267e+15	4.021258e+14	1.776323e+04	4.952386e+03	2.849338e+03	0	1.811194e-03
5.000000e+07	9.800064e+13	0.000000e+00	4.427481e-01	1.605965e+15	2.133422e+15	3.999151e+14	1.757661e+04	4.950555e+03	2.848285e+03	0	1.778256e-03
6.000000e+07	9.289722e+13	0.000000e+00	4.427481e-01	1.527291e+15	2.095886e+15	3.977209e+14	1.739926e+04	4.947480e+03	2.846515e+03	0	1.746836e-03
7.000000e+07	8.819103e+13	0.000000e+00	4.427481e-01	1.454705e+15	2.057240e+15	3.955430e+14	1.723045e+04	4.943364e+03	2.844147e+03	0	1.716825e-03
8.000000e+07	8.384148e+13	0.000000e+00	4.427481e-01	1.387587e+15	2.017955e+15	3.933813e+14	1.706954e+04	4.938380e+03	2.841280e+03	0	1.688124e-03
9.000000e+07	7.981302e+13	0.000000e+00	4.427481e-01	1.325393e+15	1.978409e+15	3.912357e+14	1.691593e+04	4.932672e+03	2.837996e+03	0	1.660641e-03
1.000000e+08	7.607439e+13	0.000000e+00	4.427481e-01	1.267645e+15	1.938903e+15	3.891060e+14	1.676911e+04	4.926365e+03	2.834367e+03	0	1.634296e-03
1.100000e+08	7.259806e+13	0.000000e+00	4.427481e-01	1.213922e+15	1.899677e+15	3.869922e+14	1.662858e+04	4.919566e+03	2.830455e+03	0	1.609013e-03
1.200000e+08	6.935969e+13	0.000000e+00	4.427481e-01	1.163851e+15	1.860917e+15	3.848940e+14	1.649393e+04	4.912363e+03	2.826311e+03	0	1.584724e-03
1.300000e+08	6.633768e+13	0.000000e+00	4.427481e-01	1.117101e+15	1.822769e+15	3.828113e+14	1.636475e+04	4.904834e+03	2.821979e+03	0	1.561366e-03
1.400000e+08	6.351285e+13	0.000000e+00	4.427481e-01	1.073380e+15	1.785342e+15	3.807440e+14	1.624070e+04	4.897044e+03	2.817497e+03	0	1.538881e-03
1.500000e+08	6.086809e+13	0.000000e+00	4.427481e-01	1.032425e+15	1.748717e+15	3.786921e+14	1.612143e+04	4.889048e+03	2.812897e+03	0	1.517217e-03
1.600000e+08	5.838811e+13	0.000000e+00	4.427481e-01	9.940012e+14	1.712954e+15	3.766552e+14	1.600665e+04	4.880895e+03	2.808206e+03	0	1.496326e-03
1.700000e+08	5.605922e+13	0.000000e+00	4.427481e-01	9.579001e+14	1.678091e+15	3.746335e+14	1.589609e+04	4.872624e+03	2.803447e+03	0	1.476161e-03
1.800000e+08	5.386913e+13	0.000000e+00	4.427481e-01	9.239329e+14	1.644155e+15	3.726266e+14	1.578950e+04	4.864271e+03	2.798641e+03	0	1.456681e-03
1.900000e+08	5.180676e+13	0.000000e+00	4.427481e-01	8.919301e+14	1.611157e+15	3.706345e+14	1.568665e+04	4.855865e+03	2.793805e+03	0	1.437849e-03
2.000000e+08	4.986215e+13	0.000000e+00	4.427481e-01	8.617387e+14	1.579102e+15	3.686570e+14	1.558731e+04	4.847431e+03	2.788953e+03	0	1.419629e-03
2.100000e+08	4.802627e+13	0.000000e+00	4.427481e-01	8.332206e+14	1.547985e+15	3.666941e+14	1.549130e+04	4.838991e+03	2.784097e+03	0	1.401988e-03
2.200000e+08	4.629097e+13	0.000000e+00	4.427481e-01	8.062505e+14	1.517796e+15	3.647457e+14	1.539843e+04	4.830563e+03	2.779247e+03	0	1.384895e-03
2.300000e+08	4.464884e+13	0.000000e+00	4.427481e-01	7.807149e+14	1.488521e+15	3.628115e+14	1.530853e+04	4.822162e+03	2.774414e+03	0	1.368321e-03
2.400000e+08	4.309314e+13	0.000000e+00	4.427481e-01	7.565106e+14	1.460141e+15	3.608915e+14	1.522145e+04	4.813801e+03	2.769604e+03	0	1.352241e-03
2.500000e+08	4.161775e+13	0.000000e+00	4.427481e-01	7.335434e+14	1.432635e+15	3.589855e+14	1.513704e+04	4.805492e+03	2.764823e+03	0	1.336629e-03
2.600000e+08	4.021708e+13	0.000000e+00	4.427481e-01	7.117278e+14	1.405980e+15	3.570935e+14	1.505517e+04	4.797243e+03	2.760077e+03	0	1.321462e-03
2.700000e+08	3.888602e+13	0.000000e+00	4.427481e-01	6.909851e+14	1.380152e+15	3.552154e+14	1.497570e+04	4.789063e+03	2.755371e+03	0	1.306720e-03
2.800000e+08	3.761990e+13	0.000000e+00	4.427481e-01	6.712438e+14	1.355127e+15	3.533509e+14	1.489853e+04	4.780958e+03	2.750708e+03	0	1.292381e-03
2.900000e+08	3.641442e+13	0.000000e+00	4.427481e-01	6.524380e+14	1.330879e+15	3.515001e+14	1.482355e+04	4.772933e+03	2.746090e+03	0	1.278426e-03
3.000000e+08	3.526567e+13	0.000000e+00	4.427481e-01	6.345073e+14	1.307381e+15	3.496628e+14	1.475064e+04	4.764992e+03	2.741522e+03	0	1.264839e-03
3.100000e+08	3.417002e+13	0.000000e+00	4.427481e-01	6.173962e+14	1.284609e+15	3.478388e+14	1.467972e+04	4.757139e+03	2.737004e+03	0	1.251602e-03
3.200000e+08	3.312415e+13	0.000000e+00	4.427481e-01	6.010536e+14	1.262537e+15	3.460281e+14	1.461070e+04	4.749377e+03	2.732538e+03	0	1.238700e-03
3.300000e+08	3.212499e+13	0.000000e+00	4.427481e-01	5.854322e+14	1.241140e+15	3.442306e+14	1.454348e+04	4.741708e+03	2.728125e+03	0	1.226118e-03
3.400000e+08	3.116970e+13	0.000000e+00	4.427481e-01	5.704887e+14	1.220394e+15	3.424461e+14	1.447800e+04	4.734133e+03	2.723767e+03	0	1.213842e-03
3.500000e+08	3.025567e+13	0.000000e+00	4.427481e-01	5.561827e+14	1.200275e+15	3.406746e+14	1.441417e+04	4.726654e+03	2.719464e+03	0	1.201859e-03
3.600000e+08	2.938047e+13	0.000000e+00	4.427481e-01	5.424769e+14	1.180759e+15	3.389159e+14	1.435193e+04	4.719271e+03	2.715216e+03	0	1.190157e-03
3.700000e+08	2.854187e+13	0.000000e+00	4.427481e-01	5.293369e+14	1.161825e+15	3.371700e+14	1.429121e+04	4.711984e+03	2.711023e+03	0	1.178724e-03
3.800000e+08	2.773777e+13	0.000000e+00	4.427481e-01	5.167306e+14	1.143449e+15	3.354367e+14	1.423195e+04	4.704793e+03	2.706887e+03	0	1.167549e-03
3.900000e+08	2.696625e+13	0.000000e+00	4.427481e-01	5.046283e+14	1.125612e+15	3.337159e+14	1.417409e+04	4.697699e+03	2.702805e+03	0	1.156622e-03
4.000000e+08	2.622550e+13	0.000000e+00	4.427481e-01	4.930022e+14	1.108293e+15	3.320076e+14	1.411758e+04	4.690701e+03	2.698779e+03	0	1.145933e-03
4.100000e+08	2.551385e+13	0.000000e+00	4.427481e-01	4.818266e+14	1.091473e+15	3.303115e+14	1.406236e+04	4.683798e+03	2.694807e+03	0	1.135472e-03
4.200000e+08	2.482974e+13	0.000000e+00	4.427481e-01	4.710775e+14	1.075132e+15	3.286277e+14	1.400837e+04	4.676990e+03	2.690890e+03	0	1.125232e-03
4.300000e+08	2.417172e+13	0.000000e+00	4.427481e-01	4.607325e+14	1.059252e+15	3.269560e+14	1.395559e+04	4.670275e+03	2.687027e+03	0	1.115203e-03
4.400000e+08	2.353842e+13	0.000000e+00	4.427481e-01	4.507706e+14	1.043817e+15	3.252964e+14	1.390395e+04	4.663653e+03	2.683217e+03	0	1.105377e-03
4.500000e+08	2.292858e+13	0.000000e+00	4.427481e-01	4.411722e+14	1.028810e+15	3.236487e+14	1.385342e+04	4.657122e+03	2.679459e+03	0	1.095747e-03
4.600000e+08	2.234100e+13	0.000000e+00	4.427481e-01	4.319192e+14	1.014214e+15	3.220128e+14	1.380396e+04	4.650682e+03	2.675754e+03	0	1.086306e-03
4.700000e+08	2.177459e+13	0.000000e+00	4.427481e-01	4.229942e+14	1.000015e+15	3.203886e+14	1.375554e+04	4.644330e+03	2.672099e+03	0	1.077047e-03
4.800000e+08	2.122829e+13	0.000000e+00	4.427481e-01	4.143813e+14	9.861974e+14	3.187761e+14	1.370810e+04	4.638066e+03	2.668495e+03	0	1.067963e-03
4.900000e+08	2.070112e+13	0.000000e+00	4.427481e-01	4.060654e+14	9.727475e+14	3.171751e+14	1.366162e+04	4.631889e+03	2.664941e+03	0	1.059049e-03
5.000000e+08	2.019217e+13	0.000000e+00	4.427481e-01	3.980323e+14	9.596517e+14	3.155856e+14	1.361607e+04	4.625796e+03	2.661436e+03	0	1.050297e-03
5.100000e+08	1.970057e+13	0.000000e+00	4.427481e-01	3.902687e+14	9.468974e+14	3.140074e+14	1.357142e+04	4.619787e+03	2.657979e+03	0	1.041704e-03
5.200000e+08	1.922552e+13	0.000000e+00	4.427481e-01	3.827621e+14	9.344720e+14	3.124405e+14	1.352763e+04	4.613860e+03	2.654569e+03	0	1.033262e-03
5.300000e+08	1.876625e+13	0.000000e+00	4.427481e-01	3.755006e+14	9.223638e+14	3.108847e+14	1.348467e+04	4.608014e+03	2.651205e+03	0	1.024968e-03
5.400000e+08	1.832204e+13	0.000000e+00	4.427481e-01	3.684733e+14	9.105614e+14	3.093401e+14	1.344253e+04	4.602248e+03	2.647887e+03	0	1.016816e-03
5.500000e+08	1.789221e+13	0.000000e+00	4.427481e-01	3.616696e+14	8.990541e+14	3.078064e+14	1.340117e+04	4.596559e+03	2.644614e+03	0	1.008802e-03
5.600000e+08	1.747613e+13	0.000000e+00	4.427481e-01	3.550797e+14	8.878314e+14	3.062836e+14	1.336057e+04	4.590946e+03	2.641385e+03	0	1.000921e-03
5.700000e+08	1.707319e+13	0.000000e+00	4.427481e-01	3.486942e+14	8.768834e+14	3.047717e+14	1.332070e+04	4.585409e+03	2.638199e+03	0	9.931682e-04
5.800000e+08	1.668281e+13	0.000000e+00	4.427481e-01	3.425043e+14	8.662006e+14	3.032705e+14	1.328155e+04	4.579945e+03	2.635055e+03	0	9.855403e-04
5.900000e+08	1.630447e+13	0.000000e+00	4.427481e-01	3.365018e+14	8.557738e+14	3.017799e+14	1.324309e+04	4.574553e+03	2.631953e+03	0	9.780330e-04
6.000000e+08	1.593765e+13	0.000000e+00	4.427481e-01	3.306787e+14	8.455943e+14	3.002999e+14	1.320529e+04	4.569232e+03	2.628892e+03	0	9.706427e-04
6.100000e+08	1.558187e+13	0.000000e+00	4.427481e-01	3.250275e+14	8.356537e+14	2.988303e+14	1.316815e+04	4.563981e+03	2.625871e+03	0	9.633656e-04
6.200000e+08	1.523667e+13	0.000000e+00	4.427481e-01	3.195413e+14	8.259440e+14	2.973711e+14	1.313164e+04	4.558798e+03	2.622888e+03	0	9.561983e-04
6.300000e+08	1.490162e+13	0.000000e+00	4.427481e-01	3.142132e+14	8.164575e+14	2.959222e+14	1.309574e+04	4.553681e+03	2.619945e+03	0	9.491375e-04
6.400000e+08	1.457631e+13	0.000000e+00	4.427481e-01	3.090371e+14	8.071867e+14	2.944836e+14	1.306044e+04	4.548631e+03	2.617039e+03	0	9.421799e-04
6.500000e+08	1.426035e+13	0.000000e+00	4.427481e-01	3.040067e+14	7.981247e+14	2.930551e+14	1.302571e+04	4.543644e+03	2.614170e+03	0	9.353224e-04
6.600000e+08	1.395337e+13	0.000000e+00	4.427481e-01	2.991165e+14	7.892646e+14	2.916366e+14	1.299155e+04	4.538720e+03	2.611337e+03	0	9.285621e-04
6.700000e+08	1.365501e+13	0.000000e+00	4.427481e-01	2.943609e+14	7.805998e+14	2.902281e+14	1.295793e+04	4.533859e+03	2.608540e+03	0	9.218962e-04
6.800000e+08	1.336495e+13	0.000000e+00	4.427481e-01	2.897348e+14	7.721242e+14	2.888295e+14	1.292485e+04	4.529057e+03	2.605777e+03	0	9.153217e-04
6.900000e+08	1.308287e+13	0.000000e+00	4.427481e-01	2.852333e+14	7.638318e+14	2.874407e+14	1.289228e+04	4.524315e+03	2.603049e+03	0	9.088362e-04
7.000000e+08	1.280846e+13	0.000000e+00	4.427481e-01	2.808516e+14	7.557166e+14	2.860616e+14	1.286021e+04	4.519632e+03	2.600354e+03	0	9.024371e-04
7.100000e+08	1.254144e+13	0.000000e+00	4.427481e-01	2.765855e+14	7.477733e+14	2.846922e+14	1.282864e+04	4.515005e+03	2.597692e+03	0	8.961218e-04
7.200000e+08	1.228152e+13	0.000000e+00	4.427481e-01	2.724304e+14	7.399965e+14	2.833324e+14	1.279754e+04	4.510434e+03	2.595063e+03	0	8.898881e-04
7.300000e+08	1.202846e+13	0.000000e+00	4.427481e-01	2.683826e+14	7.323810e+14	2.819821e+14	1.276691e+04	4.505918e+03	2.592464e+03	0	8.837335e-04
7.400000e+08	1.178201e+13	0.000000e+00	4.427481e-01	2.644380e+14	7.249220e+14	2.806412e+14	1.273673e+04	4.501456e+03	2.589897e+03	0	8.776561e-04
7.500000e+08	1.154191e+13	0.000000e+00	4.427481e-01	2.605930e+14	7.176147e+14	2.793096e+14	1.270699e+04	4.497047e+03	2.587360e+03	0	8.716535e-04
7.600000e+08	1.130796e+13	0.000000e+00	4.427481e-01	2.568441e+14	7.104546e+14	2.779873e+14	1.267768e+04	4.492689e+03	2.584853e+03	0	8.657237e-04
7.700000e+08	1.107992e+13	0.000000e+00	4.427481e-01	2.531879e+14	7.034373e+14	2.766742e+14	1.264879e+04	4.488382e+03	2.582375e+03	0	8.598648e-04
7.800000e+08	1.085760e+13	0.000000e+00	4.427481e-01	2.496212e+14	6.965586e+14	2.753703e+14	1.262031e+04	4.484124e+03	2.579925e+03	0	8.540748e-04
7.900000e+08	1.064080e+13	0.000000e+00	4.427481e-01	2.461410e+14	6.898144e+14	2.740754e+14	1.259223e+04	4.479916e+03	2.577504e+03	0	8.483519e-04
8.000000e+08	1.042932e+13	0.000000e+00	4.427481e-01	2.427442e+14	6.832008e+14	2.727895e+14	1.256454e+04	4.475755e+03	2.575110e+03	0	8.426942e-04
8.100000e+08	1.022300e+13	0.000000e+00	4.427481e-01	2.394282e+14	6.767142e+14	2.715125e+14	1.253723e+04	4.471641e+03	2.572743e+03	0	8.371000e-04
8.200000e+08	1.002164e+13	0.000000e+00	4.427481e-01	2.361902e+14	6.703507e+14	2.702443e+14	1.251029e+04	4.467573e+03	2.570403e+03	0	8.315676e-04
8.300000e+08	9.825097e+12	0.000000e+00	4.427481e-01	2.330276e+14	6.641071e+14	2.689849e+14	1.248371e+04	4.463550e+03	2.568088e+03	0	8.260955e-04
8.400000e+08	9.633203e+12	0.000000e+00	4.427481e-01	2.299380e+14	6.579799e+14	2.677342e+14	1.245749e+04	4.459572e+03	2.565799e+03	0	8.206819e-04
8.500000e+08	9.445806e+12	0.000000e+00	4.427481e-01	2.269191e+14	6.519658e+14	2.664922e+14	1.243162e+04	4.455637e+03	2.563535e+03	0	8.153254e-04
8.600000e+08	9.262762e+12	0.000000e+00	4.427481e-01	2.239684e+14	6.460618e+14	2.652586e+14	1.240608e+04	4.451744e+03	2.561296e+03	0	8.100244e-04
8.700000e+08	9.083931e+12	0.000000e+00	4.427481e-01	2.210840e+14	6.402648e+14	2.640336e+14	1.238087e+04	4.447894e+03	2.559080e+03	0	8.047776e-04
8.800000e+08	8.909179e+12	0.000000e+00	4.427481e-01	2.182637e+14	6.345720e+14	2.628170e+14	1.235599e+04	4.444084e+03	2.556888e+03	0	7.995835e-04
8.900000e+08	8.738378e+12	0.000000e+00	4.427481e-01	2.155054e+14	6.289805e+14	2.616088e+14	1.233142e+04	4.440315e+03	2.554720e+03	0	7.944408e-04
9.000000e+08	8.571403e+12	0.000000e+00	4.427481e-01	2.128074e+14	6.234876e+14	2.604089e+14	1.230716e+04	4.436585e+03	2.552574e+03	0	7.893481e-04
9.100000e+08	8.408137e+12	0.000000e+00	4.427481e-01	2.101677e+14	6.180908e+14	2.592172e+14	1.228320e+04	4.432894e+03	2.550450e+03	0	7.843042e-04
9.200000e+08	8.248466e+12	0.000000e+00	4.427481e-01	2.075845e+14	6.127874e+14	2.580336e+14	1.225954e+04	4.429241e+03	2.548349e+03	0	7.793078e-04
9.300000e+08	8.092280e+12	0.000000e+00	4.427481e-01	2.050562e+14	6.075750e+14	2.568581e+14	1.223617e+04	4.425626e+03	2.546268e+03	0	7.743576e-04
9.400000e+08	7.939474e+12	0.000000e+00	4.427481e-01	2.025812e+14	6.024514e+14	2.556907e+14	1.221308e+04	4.422047e+03	2.544209e+03	0	7.694526e-04
9.500000e+08	7.789948e+12	0.000000e+00	4.427481e-01	2.001578e+14	5.974142e+14	2.545313e+14	1.219027e+04	4.418504e+03	2.542171e+03	0	7.645915e-04
9.600000e+08	7.643603e+12	0.000000e+00	4.427481e-01	1.977845e+14	5.924612e+14	2.533797e+14	1.216773e+04	4.414997e+03	2.540153e+03	0	7.597732e-04
9.700000e+08	7.500346e+12	0.000000e+00	4.427481e-01	1.954599e+14	5.875903e+14	2.522360e+14	1.214546e+04	4.411525e+03	2.538155e+03	0	7.549967e-04
9.800000e+08	7.360088e+12	0.000000e+00	4.427481e-01	1.931825e+14	5.827994e+14	2.511001e+14	1.212345e+04	4.408086e+03	2.536177e+03	0	7.502609e-04
9.900000e+08	7.222741e+12	0.000000e+00	4.427481e-01	1.909511e+14	5.780866e+14	2.499719e+14	1.210169e+04	4.404682e+03	2.534218e+03	0	7.455646e-04
1.000000e+09	7.088222e+12	0.000000e+00	4.427481e-01	1.887643e+14	5.734498e+14	2.488513e+14	1.208019e+04	4.401310e+03	2.532278e+03	0	7.409070e-04
1.010000e+09	6.956450e+12	0.000000e+00	4.427481e-01	1.866209e+14	5.688874e+14	2.477384e+14	1.205893e+04	4.397970e+03	2.530357e+03	0	7.362871e-04
1.020000e+09	6.827348e+12	0.000000e+00	4.427481e-01	1.845196e+14	5.643974e+14	2.466330e+14	1.203790e+04	4.394663e+03	2.528454e+03	0	7.317038e-04
1.030000e+09	6.700842e+12	0.000000e+00	4.427481e-01	1.824593e+14	5.599781e+14	2.455351e+14	1.201712e+04	4.391387e+03	2.526569e+03	0	7.271562e-04
1.040000e+09	6.576858e+12	0.000000e+00	4.427481e-01	1.804388e+14	5.556278e+14	2.444446e+14	1.199657e+04	4.388141e+03	2.524702e+03	0	7.226435e-04
1.050000e+09	6.455327e+12	0.000000e+00	4.427481e-01	1.784571e+14	5.513450e+14	2.433614e+14	1.197624e+04	4.384926e+03	2.522852e+03	0	7.181647e-04
1.060000e+09	6.336182e+12	0.000000e+00	4.427481e-01	1.765132e+14	5.471279e+14	2.422856e+14	1.195614e+04	4.381740e+03	2.521019e+03	0	7.137189e-04
1.070000e+09	6.219359e+12	0.000000e+00	4.427481e-01	1.746059e+14	5.429750e+14	2.412170e+14	1.193625e+04	4.378584e+03	2.519203e+03	0	7.093052e-04
1.080000e+09	6.104795e+12	0.000000e+00	4.427481e-01	1.727344e+14	5.388850e+14	2.401556e+14	1.191658e+04	4.375456e+03	2.517404e+03	0	7.049229e-04
1.090000e+09	5.992429e+12	0.000000e+00	4.427481e-01	1.708977e+14	5.348562e+14	2.391014e+14	1.189712e+04	4.372357e+03	2.515620e+03	0	7.005711e-04
1.100000e+09	5.882203e+12	0.000000e+00	4.427481e-01	1.690948e+14	5.308874e+14	2.380542e+14	1.187786e+04	4.369285e+03	2.513853e+03	0	6.962491e-04
1.110000e+09	5.774061e+12	0.000000e+00	4.427481e-01	1.673250e+14	5.269771e+14	2.370140e+14	1.185881e+04	4.366241e+03	2.512101e+03	0	6.919559e-04
1.120000e+09	5.667949e+12	0.000000e+00	4.427481e-01	1.655873e+14	5.231241e+14	2.359808e+14	1.183995e+04	4.363223e+03	2.510365e+03	0	6.876909e-04
1.130000e+09	5.563813e+12	0.000000e+00	4.427481e-01	1.638809e+14	5.193271e+14	2.349545e+14	1.182129e+04	4.360232e+03	2.508644e+03	0	6.834532e-04
1.140000e+09	5.461603e+12	0.000000e+00	4.427481e-01	1.622050e+14	5.155847e+14	2.339351e+14	1.180283e+04	4.357267e+03	2.506938e+03	0	6.792422e-04
1.150000e+09	5.361269e+12	0.000000e+00	4.427481e-01	1.605589e+14	5.118959e+14	2.329225e+14	1.178455e+04	4.354328e+03	2.505247e+03	0	6.750570e-04
1.160000e+09	5.262764e+12	0.000000e+00	4.427481e-01	1.589418e+14	5.082595e+14	2.319167e+14	1.176645e+04	4.351413e+03	2.503570e+03	0	6.708971e-04
1.170000e+09	5.166042e+12	0.000000e+00	4.427481e-01	1.573530e+14	5.046743e+14	2.309175e+14	1.174854e+04	4.348523e+03	2.501908e+03	0	6.667616e-04
1.180000e+09	5.071058e+12	0.000000e+00	4.427481e-01	1.557918e+14	5.011391e+14	2.299250e+14	1.173080e+04	4.345658e+03	2.500259e+03	0	6.626499e-04
1.190000e+09	4.977769e+12	0.000000e+00	4.427481e-01	1.542574e+14	4.976531e+14	2.289391e+14	1.171324e+04	4.342817e+03	2.498625e+03	0	6.585613e-04
1.200000e+09	4.886133e+12	0.000000e+00	4.427481e-01	1.527494e+14	4.942150e+14	2.279597e+14	1.169586e+04	4.339999e+03	2.497003e+03	0	6.544951e-04
1.210000e+09	4.796109e+12	0.000000e+00	4.427481e-01	1.512669e+14	4.908239e+14	2.269869e+14	1.167864e+04	4.337205e+03	2.495396e+03	0	6.504506e-04
1.220000e+09	4.707660e+12	0.000000e+00	4.427481e-01	1.498095e+14	4.874788e+14	2.260204e+14	1.166159e+04	4.334433e+03	2.493801e+03	0	6.464272e-04
1.230000e+09	4.620745e+12	0.000000e+00	4.427481e-01	1.483765e+14	4.841788e+14	2.250604e+14	1.164470e+04	4.331684e+03	2.492219e+03	0	6.424243e-04
1.240000e+09	4.535329e+12	0.000000e+00	4.427481e-01	1.469673e+14	4.809229e+14	2.241067e+14	1.162797e+04	4.328957e+03	2.490650e+03	0	6.384412e-04
1.250000e+09	4.451376e+12	0.000000e+00	4.427481e-01	1.455814e+14	4.777102e+14	2.231593e+14	1.161141e+04	4.326252e+03	2.489094e+03	0	6.344772e-04
1.260000e+09	4.368851e+12	0.000000e+00	4.427481e-01	1.442182e+14	4.745399e+14	2.222182e+14	1.159499e+04	4.323568e+03	2.487550e+03	0	6.305318e-04
1.270000e+09	4.287721e+12	0.000000e+00	4.427481e-01	1.428772e+14	4.714111e+14	2.212833e+14	1.157874e+04	4.320906e+03	2.486018e+03	0	6.266044e-04
1.280000e+09	4.207953e+12	0.000000e+00	4.427481e-01	1.415579e+14	4.683229e+14	2.203545e+14	1.156263e+04	4.318264e+03	2.484498e+03	0	6.226943e-04
1.290000e+09	4.129515e+12	0.000000e+00	4.427481e-01	1.402598e+14	4.652745e+14	2.194318e+14	1.154667e+04	4.315643e+03	2.482990e+03	0	6.188009e-04
1.300000e+09	4.052377e+12	0.000000e+00	4.427481e-01	1.389825e+14	4.622652e+14	2.185151e+14	1.153085e+04	4.313042e+03	2.481494e+03	0	6.149237e-04
1.310000e+09	3.976509e+12	0.000000e+00	4.427481e-01	1.377253e+14	4.592942e+14	2.176045e+14	1.151518e+04	4.310461e+03	2.480009e+03	0	6.110620e-04
1.320000e+09	3.901882e+12	0.000000e+00	4.427481e-01	1.364880e+14	4.563608e+14	2.166999e+14	1.149965e+04	4.307900e+03	2.478535e+03	0	6.072152e-04
1.330000e+09	3.828468e+12	0.000000e+00	4.427481e-01	1.352700e+14	4.534641e+14	2.158011e+14	1.148426e+04	4.305358e+03	2.477073e+03	0	6.033828e-04
1.340000e+09	3.756240e+12	0.000000e+00	4.427481e-01	1.340709e+14	4.506036e+14	2.149082e+14	1.146901e+04	4.302835e+03	2.475621e+03	0	5.995642e-04
1.350000e+09	3.685171e+12	0.000000e+00	4.427481e-01	1.328904e+14	4.477785e+14	2.140212e+14	1.145389e+04	4.300331e+03	2.474181e+03	0	5.957588e-04
1.360000e+09	3.615236e+12	0.000000e+00	4.427481e-01	1.317279e+14	4.449881e+14	2.131399e+14	1.143890e+04	4.297846e+03	2.472751e+03	0	5.919661e-04
