#t		Qconv[W]	Ri[Rp]		R*[Rp]		Qc[W]		Qm[W]		Qr[W]		Tcmb[K]		Tl[K]		Tup[K]		RiFlag		Bs[T]
0.000000e+00	4.112539e+14	0.000000e+00	4.427481e-01	6.132899e+15	2.905027e+15	4.398096e+14	2.398590e+04	5.476894e+03	2.879323e+03	0	2.863052e-03
1.000000e+07	3.699899e+14	0.000000e+00	4.427481e-01	5.531432e+15	3.112654e+15	4.373727e+14	2.337795e+04	5.562084e+03	2.924110e+03	0	2.763902e-03
2.000000e+07	3.347045e+14	0.000000e+00	4.427481e-01	5.016874e+15	3.260599e+15	4.349541e+14	2.282765e+04	5.628324e+03	2.958933e+03	0	2.673087e-03
3.000000e+07	3.042959e+14	0.000000e+00	4.427481e-01	4.573229e+15	3.356980e+15	4.325535e+14	2.232692e+04	5.679095e+03	2.985625e+03	0	2.589552e-03
4.000000e+07	2.779067e+14	0.000000e+00	4.427481e-01	4.188046e+15	3.410454e+15	4.301709e+14	2.186917e+04	5.717278e+03	3.005699e+03	0	2.512420e-03
5.000000e+07	2.548602e+14	0.000000e+00	4.427481e-01	3.851494e+15	3.429257e+15	4.278060e+14	2.144888e+04	5.745242e+03	3.020400e+03	0	2.440956e-03
6.000000e+07	2.346159e+14	0.000000e+00	4.427481e-01	3.555724e+15	3.420728e+15	4.254587e+14	2.106145e+04	5.764924e+03	3.030747e+03	0	2.374534e-03
7.000000e+07	2.167382e+14	0.000000e+00	4.427481e-01	3.294402e+15	3.391139e+15	4.231290e+14	2.070302e+04	5.777901e+03	3.037569e+03	0	2.312621e-03
8.000000e+07	2.008721e+14	0.000000e+00	4.427481e-01	3.062373e+15	3.345690e+15	4.208165e+14	2.037029e+04	5.785455e+03	3.041541e+03	0	2.254754e-03
9.000000e+07	1.867265e+14	0.000000e+00	4.427481e-01	2.855402e+15	3.288607e+15	4.185213e+14	2.006044e+04	5.788630e+03	3.043210e+03	0	2.200533e-03
1.000000e+08	1.740608e+14	0.000000e+00	4.427481e-01	2.669992e+15	3.223267e+15	4.162431e+14	1.977107e+04	5.788271e+03	3.043021e+03	0	2.149610e-03
1.100000e+08	1.626746e+14	0.000000e+00	4.427481e-01	2.503229e+15	3.152334e+15	4.139818e+14	1.950008e+04	5.785066e+03	3.041336e+03	0	2.101676e-03
1.200000e+08	1.524002e+14	0.000000e+00	4.427481e-01	2.352673e+15	3.077886e+15	4.117372e+14	1.924567e+04	5.779575e+03	3.038449e+03	0	2.056464e-03
1.300000e+08	1.430963e+14	0.000000e+00	4.427481e-01	2.216269e+15	3.001524e+15	4.095093e+14	1.900626e+04	5.772253e+03	3.034600e+03	0	2.013734e-03
1.400000e+08	1.346434e+14	0.000000e+00	4.427481e-01	2.092277e+15	2.924474e+15	4.072979e+14	1.878046e+04	5.763473e+03	3.029984e+03	0	1.973275e-03
1.500000e+08	1.269396e+14	0.000000e+00	4.427481e-01	1.979214e+15	2.847660e+15	4.051028e+14	1.856706e+04	5.753538e+03	3.024761e+03	0	1.934899e-03
1.600000e+08	1.198978e+14	0.000000e+00	4.427481e-01	1.875812e+15	2.771768e+15	4.029240e+14	1.836498e+04	5.742696e+03	3.019061e+03	0	1.898438e-03
1.700000e+08	1.134432e+14	0.000000e+00	4.427481e-01	1.780984e+15	2.697300e+15	4.007612e+14	1.817328e+04	5.731151e+03	3.012992e+03	0	1.863740e-03
1.800000e+08	1.075113e+14	0.000000e+00	4.427481e-01	1.693789e+15	2.624615e+15	3.986143e+14	1.799111e+04	5.719069e+03	3.006640e+03	0	1.830673e-03
1.900000e+08	1.020462e+14	0.000000e+00	4.427481e-01	1.613412e+15	2.553960e+15	3.964833e+14	1.781771e+04	5.706587e+03	3.000078e+03	0	1.799112e-03
2.000000e+08	9.699937e+13	0.000000e+00	4.427481e-01	1.539146e+15	2.485495e+15	3.943679e+14	1.765242e+04	5.693817e+03	2.993365e+03	0	1.768950e-03
2.100000e+08	9.232824e+13	0.000000e+00	4.427481e-01	1.470373e+15	2.419315e+15	3.922681e+14	1.749461e+04	5.680852e+03	2.986549e+03	0	1.740086e-03
2.200000e+08	8.799572e+13	0.000000e+00	4.427481e-01	1.406549e+15	2.355466e+15	3.901838e+14	1.734375e+04	5.667767e+03	2.979670e+03	0	1.712431e-03
2.300000e+08	8.396913e+13	0.000000e+00	4.427481e-01	1.347201e+15	2.293954e+15	3.881147e+14	1.719935e+04	5.654625e+03	2.972760e+03	0	1.685903e-03
2.400000e+08	8.021967e+13	0.000000e+00	4.427481e-01	1.291906e+15	2.234759e+15	3.860608e+14	1.706095e+04	5.641476e+03	2.965848e+03	0	1.660426e-03
2.500000e+08	7.672190e+13	0.000000e+00	4.427481e-01	1.240295e+15	2.177839e+15	3.840219e+14	1.692816e+04	5.628362e+03	2.958953e+03	0	1.635934e-03
2.600000e+08	7.345320e+13	0.000000e+00	4.427481e-01	1.192037e+15	2.123139e+15	3.819980e+14	1.680060e+04	5.615317e+03	2.952095e+03	0	1.612363e-03
2.700000e+08	7.039351e+13	0.000000e+00	4.427481e-01	1.146839e+15	2.070592e+15	3.799888e+14	1.667794e+04	5.602367e+03	2.945287e+03	0	1.589657e-03
2.800000e+08	6.752489e+13	0.000000e+00	4.427481e-01	1.104441e+15	2.020124e+15	3.779944e+14	1.655988e+04	5.589536e+03	2.938542e+03	0	1.567764e-03
2.900000e+08	6.483133e+13	0.000000e+00	4.427481e-01	1.064607e+15	1.971658e+15	3.760144e+14	1.644612e+04	5.576842e+03	2.931868e+03	0	1.546634e-03
3.000000e+08	6.229847e+13	0.000000e+00	4.427481e-01	1.027129e+15	1.925115e+15	3.740490e+14	1.633642e+04	5.564297e+03	2.925273e+03	0	1.526224e-03
3.100000e+08	5.991341e+13	0.000000e+00	4.427481e-01	9.918182e+14	1.880413e+15	3.720978e+14	1.623053e+04	5.551913e+03	2.918763e+03	0	1.506494e-03
3.200000e+08	5.766452e+13	0.000000e+00	4.427481e-01	9.585042e+14	1.837473e+15	3.701608e+14	1.612825e+04	5.539699e+03	2.912341e+03	0	1.487404e-03
3.300000e+08	5.554133e+13	0.000000e+00	4.427481e-01	9.270343e+14	1.796217e+15	3.682379e+14	1.602936e+04	5.527661e+03	2.906013e+03	0	1.468920e-03
3.400000e+08	5.353434e+13	0.000000e+00	4.427481e-01	8.972698e+14	1.756567e+15	3.663290e+14	1.593368e+04	5.515803e+03	2.899779e+03	0	1.451009e-03
3.500000e+08	5.163496e+13	0.000000e+00	4.427481e-01	8.690851e+14	1.718449e+15	3.644340e+14	1.584104e+04	5.504128e+03	2.893641e+03	0	1.433642e-03
3.600000e+08	4.983540e+13	0.000000e+00	4.427481e-01	8.423661e+14	1.681792e+15	3.625526e+14	1.575128e+04	5.492639e+03	2.887601e+03	0	1.416789e-03
3.700000e+08	4.812854e+13	0.000000e+00	4.427481e-01	8.170089e+14	1.646526e+15	3.606849e+14	1.566425e+04	5.481335e+03	2.881658e+03	0	1.400426e-03
3.800000e+08	4.650791e+13	0.000000e+00	4.427481e-01	7.929189e+14	1.612587e+15	3.588307e+14	1.557981e+04	5.470218e+03	2.875813e+03	0	1.384527e-03
3.900000e+08	4.496761e+13	0.000000e+00	4.427481e-01	7.700097e+14	1.579909e+15	3.569899e+14	1.549784e+04	5.459285e+03	2.870066e+03	0	1.369071e-03
4.000000e+08	4.350224e+13	0.000000e+00	4.427481e-01	7.482022e+14	1.548435e+15	3.551624e+14	1.541822e+04	5.448537e+03	2.864415e+03	0	1.354035e-03
4.100000e+08	4.210685e+13	0.000000e+00	4.427481e-01	7.274239e+14	1.518106e+15	3.533481e+14	1.534083e+04	5.437970e+03	2.858860e+03	0	1.339400e-03
4.200000e+08	4.077688e+13	0.000000e+00	4.427481e-01	7.076084e+14	1.488868e+15	3.515469e+14	1.526557e+04	5.427583e+03	2.853400e+03	0	1.325147e-03
4.300000e+08	3.950818e+13	0.000000e+00	4.427481e-01	6.886946e+14	1.460670e+15	3.497586e+14	1.519234e+04	5.417374e+03	2.848032e+03	0	1.311258e-03
4.400000e+08	3.829690e+13	0.000000e+00	4.427481e-01	6.706261e+14	1.433463e+15	3.479832e+14	1.512104e+04	5.407339e+03	2.842757e+03	0	1.297718e-03
4.500000e+08	3.713949e+13	0.000000e+00	4.427481e-01	6.533512e+14	1.407200e+15	3.462206e+14	1.505161e+04	5.397476e+03	2.837572e+03	0	1.284511e-03
4.600000e+08	3.603271e+13	0.000000e+00	4.427481e-01	6.368221e+14	1.381838e+15	3.444706e+14	1.498394e+04	5.387782e+03	2.832475e+03	0	1.271623e-03
4.700000e+08	3.497352e+13	0.000000e+00	4.427481e-01	6.209944e+14	1.357335e+15	3.427332e+14	1.491798e+04	5.378253e+03	2.827465e+03	0	1.259039e-03
4.800000e+08	3.395914e+13	0.000000e+00	4.427481e-01	6.058272e+14	1.333651e+15	3.410082e+14	1.485364e+04	5.368886e+03	2.822541e+03	0	1.246747e-03
4.900000e+08	3.298697e+13	0.000000e+00	4.427481e-01	5.912827e+14	1.310751e+15	3.392955e+14	1.479086e+04	5.359678e+03	2.817700e+03	0	1.234734e-03
5.000000e+08	3.205463e+13	0.000000e+00	4.427481e-01	5.773256e+14	1.288597e+15	3.375951e+14	1.472957e+04	5.350625e+03	2.812941e+03	0	1.222990e-03
5.100000e+08	3.115988e+13	0.000000e+00	4.427481e-01	5.639232e+14	1.267156e+15	3.359069e+14	1.466972e+04	5.341725e+03	2.808262e+03	0	1.211503e-03
5.200000e+08	3.030064e+13	0.000000e+00	4.427481e-01	5.510452e+14	1.246398e+15	3.342307e+14	1.461124e+04	5.332974e+03	2.803661e+03	0	1.200263e-03
5.300000e+08	2.947500e+13	0.000000e+00	4.427481e-01	5.386632e+14	1.226292e+15	3.325665e+14	1.455410e+04	5.324368e+03	2.799137e+03	0	1.189261e-03
5.400000e+08	2.868115e+13	0.000000e+00	4.427481e-01	5.267508e+14	1.206809e+15	3.309141e+14	1.449822e+04	5.315904e+03	2.794687e+03	0	1.178487e-03
5.500000e+08	2.791742e+13	0.000000e+00	4.427481e-01	5.152835e+14	1.187924e+15	3.292735e+14	1.444358e+04	5.307579e+03	2.790311e+03	0	1.167932e-03
5.600000e+08	2.718224e+13	0.000000e+00	4.427481e-01	5.042383e+14	1.169609e+15	3.276445e+14	1.439011e+04	5.299390e+03	2.786006e+03	0	1.157589e-03
5.700000e+08	2.647416e+13	0.000000e+00	4.427481e-01	4.935937e+14	1.151841e+15	3.260271e+14	1.433778e+04	5.291333e+03	2.781770e+03	0	1.147449e-03
5.800000e+08	2.579180e+13	0.000000e+00	4.427481e-01	4.833296e+14	1.134597e+15	3.244212e+14	1.428655e+04	5.283406e+03	2.777603e+03	0	1.137505e-03
5.900000e+08	2.513388e+13	0.000000e+00	4.427481e-01	4.734271e+14	1.117856e+15	3.228266e+14	1.423637e+04	5.275606e+03	2.773502e+03	0	1.127749e-03
6.000000e+08	2.449920e+13	0.000000e+00	4.427481e-01	4.638687e+14	1.101596e+15	3.212434e+14	1.418722e+04	5.267929e+03	2.769466e+03	0	1.118175e-03
6.100000e+08	2.388665e+13	0.000000e+00	4.427481e-01	4.546377e+14	1.085798e+15	3.196713e+14	1.413905e+04	5.260372e+03	2.765493e+03	0	1.108777e-03
6.200000e+08	2.329514e+13	0.000000e+00	4.427481e-01	4.457187e+14	1.070443e+15	3.181104e+14	1.409184e+04	5.252933e+03	2.761582e+03	0	1.099549e-03
6.300000e+08	2.272371e+13	0.000000e+00	4.427481e-01	4.370969e+14	1.055514e+15	3.165605e+14	1.404554e+04	5.245610e+03	2.757732e+03	0	1.090483e-03
6.400000e+08	2.217140e+13	0.000000e+00	4.427481e-01	4.287586e+14	1.040994e+15	3.150215e+14	1.400014e+04	5.238398e+03	2.753941e+03	0	1.081576e-03
6.500000e+08	2.163734e+13	0.000000e+00	4.427481e-01	4.206910e+14	1.026866e+15	3.134933e+14	1.395559e+04	5.231296e+03	2.750207e+03	0	1.072821e-03
6.600000e+08	2.112071e+13	0.000000e+00	4.427481e-01	4.128817e+14	1.013117e+15	3.119759e+14	1.391188e+04	5.224300e+03	2.746529e+03	0	1.064214e-03
6.700000e+08	2.062072e+13	0.000000e+00	4.427481e-01	4.053193e+14	9.997300e+14	3.104692e+14	1.386897e+04	5.217409e+03	2.742907e+03	0	1.055749e-03
6.800000e+08	2.013663e+13	0.000000e+00	4.427481e-01	3.979930e+14	9.866927e+14	3.089730e+14	1.382685e+04	5.210620e+03	2.739338e+03	0	1.047422e-03
6.900000e+08	1.966775e+13	0.000000e+00	4.427481e-01	3.908924e+14	9.739916e+14	3.074874e+14	1.378548e+04	5.203931e+03	2.735821e+03	0	1.039228e-03
7.000000e+08	1.921342e+13	0.000000e+00	4.427481e-01	3.840080e+14	9.616141e+14	3.060121e+14	1.374485e+04	5.197339e+03	2.732355e+03	0	1.031163e-03
7.100000e+08	1.877302e+13	0.000000e+00	4.427481e-01	3.773306e+14	9.495485e+14	3.045472e+14	1.370492e+04	5.190842e+03	2.728939e+03	0	1.023224e-03
7.200000e+08	1.834596e+13	0.000000e+00	4.427481e-01	3.708514e+14	9.377832e+14	3.030926e+14	1.366569e+04	5.184438e+03	2.725573e+03	0	1.015405e-03
7.300000e+08	1.793170e+13	0.000000e+00	4.427481e-01	3.645623e+14	9.263075e+14	3.016481e+14	1.362713e+04	5.178124e+03	2.722253e+03	0	1.007704e-03
7.400000e+08	1.752969e+13	0.000000e+00	4.427481e-01	3.584556e+14	9.151110e+14	3.002136e+14	1.358921e+04	5.171899e+03	2.718981e+03	0	1.000117e-03
7.500000e+08	1.713944e+13	0.000000e+00	4.427481e-01	3.525238e+14	9.041837e+14	2.987892e+14	1.355193e+04	5.165760e+03	2.715753e+03	0	9.926393e-04
7.600000e+08	1.676047e+13	0.000000e+00	4.427481e-01	3.467600e+14	8.935164e+14	2.973747e+14	1.351526e+04	5.159706e+03	2.712571e+03	0	9.852688e-04
7.700000e+08	1.639235e+13	0.000000e+00	4.427481e-01	3.411575e+14	8.830998e+14	2.959701e+14	1.347919e+04	5.153734e+03	2.709431e+03	0	9.780019e-04
7.800000e+08	1.603463e+13	0.000000e+00	4.427481e-01	3.357100e+14	8.729255e+14	2.945752e+14	1.344370e+04	5.147844e+03	2.706334e+03	0	9.708355e-04
7.900000e+08	1.568692e+13	0.000000e+00	4.427481e-01	3.304116e+14	8.629852e+14	2.931900e+14	1.340877e+04	5.142032e+03	2.703279e+03	0	9.637666e-04
8.000000e+08	1.534883e+13	0.000000e+00	4.427481e-01	3.252565e+14	8.532709e+14	2.918144e+14	1.337439e+04	5.136297e+03	2.700264e+03	0	9.567924e-04
8.100000e+08	1.501999e+13	0.000000e+00	4.427481e-01	3.202393e+14	8.437752e+14	2.904483e+14	1.334054e+04	5.130638e+03	2.697289e+03	0	9.499100e-04
8.200000e+08	1.470005e+13	0.000000e+00	4.427481e-01	3.153549e+14	8.344908e+14	2.890917e+14	1.330722e+04	5.125053e+03	2.694353e+03	0	9.431170e-04
8.300000e+08	1.438868e+13	0.000000e+00	4.427481e-01	3.105984e+14	8.254107e+14	2.877445e+14	1.327439e+04	5.119540e+03	2.691455e+03	0	9.364106e-04
8.400000e+08	1.408557e+13	0.000000e+00	4.427481e-01	3.059650e+14	8.165285e+14	2.864066e+14	1.324206e+04	5.114098e+03	2.688593e+03	0	9.297884e-04
8.500000e+08	1.379041e+13	0.000000e+00	4.427481e-01	3.014504e+14	8.078376e+14	2.850779e+14	1.321021e+04	5.108724e+03	2.685768e+03	0	9.232480e-04
8.600000e+08	1.350292e+13	0.000000e+00	4.427481e-01	2.970502e+14	7.993320e+14	2.837583e+14	1.317883e+04	5.103418e+03	2.682979e+03	0	9.167871e-04
8.700000e+08	1.322281e+13	0.000000e+00	4.427481e-01	2.927605e+14	7.910059e+14	2.824479e+14	1.314791e+04	5.098179e+03	2.680224e+03	0	9.104034e-04
8.800000e+08	1.294983e+13	0.000000e+00	4.427481e-01	2.885772e+14	7.828536e+14	2.811464e+14	1.311742e+04	5.093004e+03	2.677504e+03	0	9.040949e-04
8.900000e+08	1.268374e+13	0.000000e+00	4.427481e-01	2.844968e+14	7.748698e+14	2.798539e+14	1.308738e+04	5.087892e+03	2.674816e+03	0	8.978595e-04
9.000000e+08	1.242428e+13	0.000000e+00	4.427481e-01	2.805156e+14	7.670493e+14	2.785703e+14	1.305775e+04	5.082842e+03	2.672162e+03	0	8.916950e-04
9.100000e+08	1.217123e+13	0.000000e+00	4.427481e-01	2.766304e+14	7.593872e+14	2.772955e+14	1.302854e+04	5.077854e+03	2.669539e+03	0	8.855996e-04
9.200000e+08	1.192437e+13	0.000000e+00	4.427481e-01	2.728378e+14	7.518786e+14	2.760294e+14	1.299973e+04	5.072924e+03	2.666948e+03	0	8.795715e-04
9.300000e+08	1.168350e+13	0.000000e+00	4.427481e-01	2.691348e+14	7.445190e+14	2.747720e+14	1.297131e+04	5.068053e+03	2.664387e+03	0	8.736086e-04
9.400000e+08	1.144841e+13	0.000000e+00	4.427481e-01	2.655183e+14	7.373040e+14	2.735231e+14	1.294328e+04	5.063239e+03	2.661856e+03	0	8.677094e-04
9.500000e+08	1.121890e+13	0.000000e+00	4.427481e-01	2.619856e+14	7.302294e+14	2.722828e+14	1.291562e+04	5.058481e+03	2.659354e+03	0	8.618720e-04
9.600000e+08	1.099481e+13	0.000000e+00	4.427481e-01	2.585340e+14	7.232910e+14	2.710509e+14	1.288833e+04	5.053777e+03	2.656882e+03	0	8.560949e-04
9.700000e+08	1.077595e+13	0.000000e+00	4.427481e-01	2.551607e+14	7.164850e+14	2.698275e+14	1.286139e+04	5.049127e+03	2.654437e+03	0	8.503763e-04
9.800000e+08	1.056215e+13	0.000000e+00	4.427481e-01	2.518634e+14	7.098075e+14	2.686123e+14	1.283481e+04	5.044530e+03	2.652020e+03	0	8.447148e-04
9.900000e+08	1.035325e+13	0.000000e+00	4.427481e-01	2.486397e+14	7.032550e+14	2.674054e+14	1.280857e+04	5.039984e+03	2.649630e+03	0	8.391088e-04
1.000000e+09	1.014910e+13	0.000000e+00	4.427481e-01	2.454871e+14	6.968239e+14	2.662067e+14	1.278266e+04	5.035489e+03	2.647267e+03	0	8.335568e-04
1.010000e+09	9.949549e+12	0.000000e+00	4.427481e-01	2.424036e+14	6.905109e+14	2.650162e+14	1.275708e+04	5.031043e+03	2.644930e+03	0	8.280574e-04
1.020000e+09	9.754450e+12	0.000000e+00	4.427481e-01	2.393869e+14	6.843127e+14	2.638337e+14	1.273182e+04	5.026646e+03	2.642618e+03	0	8.226092e-04
1.030000e+09	9.563667e+12	0.000000e+00	4.427481e-01	2.364351e+14	6.782262e+14	2.626592e+14	1.270687e+04	5.022296e+03	2.640331e+03	0	8.172108e-04
1.040000e+09	9.377070e+12	0.000000e+00	4.427481e-01	2.335462e+14	6.722483e+14	2.614926e+14	1.268223e+04	5.017993e+03	2.638069e+03	0	8.118610e-04
1.050000e+09	9.194530e+12	0.000000e+00	4.427481e-01	2.307183e+14	6.663761e+14	2.603340e+14	1.265789e+04	5.013736e+03	2.635831e+03	0	8.065584e-04
1.060000e+09	9.015928e+12	0.000000e+00	4.427481e-01	2.279496e+14	6.606068e+14	2.591831e+14	1.263384e+04	5.009524e+03	2.633617e+03	0	8.013018e-04
1.070000e+09	8.841144e+12	0.000000e+00	4.427481e-01	2.252383e+14	6.549378e+14	2.580400e+14	1.261008e+04	5.005356e+03	2.631425e+03	0	7.960899e-04
1.080000e+09	8.670067e+12	0.000000e+00	4.427481e-01	2.225829e+14	6.493663e+14	2.569046e+14	1.258660e+04	5.001231e+03	2.629257e+03	0	7.909216e-04
1.090000e+09	8.502588e+12	0.000000e+00	4.427481e-01	2.199815e+14	6.438899e+14	2.557768e+14	1.256339e+04	4.997148e+03	2.627110e+03	0	7.857957e-04
1.100000e+09	8.338602e+12	0.000000e+00	4.427481e-01	2.174328e+14	6.385060e+14	2.546566e+14	1.254046e+04	4.993107e+03	2.624986e+03	0	7.807111e-04
1.110000e+09	8.178008e+12	0.000000e+00	4.427481e-01	2.149352e+14	6.332124e+14	2.535439e+14	1.251779e+04	4.989107e+03	2.622883e+03	0	7.756667e-04
1.120000e+09	8.020711e+12	0.000000e+00	4.427481e-01	2.124873e+14	6.280068e+14	2.524386e+14	1.249538e+04	4.985147e+03	2.620801e+03	0	7.706613e-04
1.130000e+09	7.866615e+12	0.000000e+00	4.427481e-01	2.100876e+14	6.228868e+14	2.513408e+14	1.247323e+04	4.981227e+03	2.618740e+03	0	7.656940e-04
1.140000e+09	7.715632e+12	0.000000e+00	4.427481e-01	2.077349e+14	6.178505e+14	2.502502e+14	1.245132e+04	4.977345e+03	2.616700e+03	0	7.607637e-04
1.150000e+09	7.567675e+12	0.000000e+00	4.427481e-01	2.054279e+14	6.128957e+14	2.491670e+14	1.242966e+04	4.973502e+03	2.614679e+03	0	7.558694e-04
1.160000e+09	7.422659e+12	0.000000e+00	4.427481e-01	2.031652e+14	6.080204e+14	2.480910e+14	1.240824e+04	4.969695e+03	2.612678e+03	0	7.510101e-04
1.170000e+09	7.280504e+12	0.000000e+00	4.427481e-01	2.009457e+14	6.032228e+14	2.470222e+14	1.238705e+04	4.965925e+03	2.610696e+03	0	7.461849e-04
1.180000e+09	7.141133e+12	0.000000e+00	4.427481e-01	1.987682e+14	5.985008e+14	2.459604e+14	1.236609e+04	4.962192e+03	2.608733e+03	0	7.413927e-04
1.190000e+09	7.004469e+12	0.000000e+00	4.427481e-01	1.966317e+14	5.938528e+14	2.449058e+14	1.234536e+04	4.958493e+03	2.606789e+03	0	7.366328e-04
1.200000e+09	6.870440e+12	0.000000e+00	4.427481e-01	1.945349e+14	5.892769e+14	2.438581e+14	1.232486e+04	4.954830e+03	2.604863e+03	0	7.319040e-04
1.210000e+09	6.738976e+12	0.000000e+00	4.427481e-01	1.924770e+14	5.847715e+14	2.428174e+14	1.230457e+04	4.951200e+03	2.602955e+03	0	7.272057e-04
1.220000e+09	6.610009e+12	0.000000e+00	4.427481e-01	1.904568e+14	5.803349e+14	2.417836e+14	1.228449e+04	4.947604e+03	2.601064e+03	0	7.225368e-04
1.230000e+09	6.483473e+12	0.000000e+00	4.427481e-01	1.884734e+14	5.759655e+14	2.407566e+14	1.226462e+04	4.944042e+03	2.599191e+03	0	7.178966e-04
1.240000e+09	6.359306e+12	0.000000e+00	4.427481e-01	1.865258e+14	5.716618e+14	2.397364e+14	1.224496e+04	4.940511e+03	2.597335e+03	0	7.132841e-04
1.250000e+09	6.237447e+12	0.000000e+00	4.427481e-01	1.846132e+14	5.674222e+14	2.387229e+14	1.222551e+04	4.937013e+03	2.595496e+03	0	7.086986e-04
1.260000e+09	6.117835e+12	0.000000e+00	4.427481e-01	1.827346e+14	5.632454e+14	2.377161e+14	1.220625e+04	4.933546e+03	2.593673e+03	0	7.041392e-04
1.270000e+09	6.000413e+12	0.000000e+00	4.427481e-01	1.808892e+14	5.591298e+14	2.367160e+14	1.218718e+04	4.930109e+03	2.591867e+03	0	6.996052e-04
1.280000e+09	5.885127e+12	0.000000e+00	4.427481e-01	1.790762e+14	5.550741e+14	2.357224e+14	1.216831e+04	4.926704e+03	2.590076e+03	0	6.950957e-04
1.290000e+09	5.771923e+12	0.000000e+00	4.427481e-01	1.772947e+14	5.510771e+14	2.347354e+14	1.214963e+04	4.923328e+03	2.588301e+03	0	6.906099e-04
1.300000e+09	5.660748e+12	0.000000e+00	4.427481e-01	1.755440e+14	5.471374e+14	2.337548e+14	1.213113e+04	4.919981e+03	2.586542e+03	0	6.861471e-04
1.310000e+09	5.551553e+12	0.000000e+00	4.427481e-01	1.738234e+14	5.432537e+14	2.327807e+14	1.211281e+04	4.916663e+03	2.584798e+03	0	6.817066e-04
1.320000e+09	5.444289e+12	0.000000e+00	4.427481e-01	1.721321e+14	5.394249e+14	2.318130e+14	1.209468e+04	4.913374e+03	2.583068e+03	0	6.772874e-04
1.330000e+09	5.338909e+12	0.000000e+00	4.427481e-01	1.704693e+14	5.356497e+14	2.308515e+14	1.207671e+04	4.910112e+03	2.581354e+03	0	6.728890e-04
1.340000e+09	5.235366e+12	0.000000e+00	4.427481e-01	1.688345e+14	5.319270e+14	2.298964e+14	1.205893e+04	4.906878e+03	2.579654e+03	0	6.685106e-04
1.350000e+09	5.133617e+12	0.000000e+00	4.427481e-01	1.672269e+14	5.282558e+14	2.289475e+14	1.204131e+04	4.903671e+03	2.577968e+03	0	6.641515e-04
1.360000e+09	5.033620e+12	0.000000e+00	4.427481e-01	1.656460e+14	5.246348e+14	2.280048e+14	1.202386e+04	4.900491e+03	2.576296e+03	0	6.598108e-04
