#t		Qconv[W]	Ri[Rp]		R*[Rp]		Qc[W]		Qm[W]		Qr[W]		Tcmb[K]		Tl[K]		Tup[K]		RiFlag		Bs[T]
0.000000e+00	2.120877e+14	0.000000e+00	4.461537e-01	3.051127e+15	2.263009e+15	4.805097e+14	2.148154e+04	5.262475e+03	2.929559e+03	0	2.277663e-03
1.000000e+07	1.996771e+14	0.000000e+00	4.461537e-01	2.882144e+15	2.302195e+15	4.778473e+14	2.121068e+04	5.288944e+03	2.944294e+03	0	2.232341e-03
2.000000e+07	1.883173e+14	0.000000e+00	4.461537e-01	2.727388e+15	2.329788e+15	4.752048e+14	2.095454e+04	5.311007e+03	2.956577e+03	0	2.189178e-03
3.000000e+07	1.778933e+14	0.000000e+00	4.461537e-01	2.585309e+15	2.347190e+15	4.725821e+14	2.071188e+04	5.329207e+03	2.966708e+03	0	2.148016e-03
4.000000e+07	1.683057e+14	0.000000e+00	4.461537e-01	2.454561e+15	2.355731e+15	4.699790e+14	2.048163e+04	5.344023e+03	2.974956e+03	0	2.108712e-03
5.000000e+07	1.594678e+14	0.000000e+00	4.461537e-01	2.333973e+15	2.356639e+15	4.673953e+14	2.026282e+04	5.355878e+03	2.981556e+03	0	2.071136e-03
6.000000e+07	1.513038e+14	0.000000e+00	4.461537e-01	2.222520e+15	2.351034e+15	4.648308e+14	2.005457e+04	5.365145e+03	2.986715e+03	0	2.035171e-03
7.000000e+07	1.437473e+14	0.000000e+00	4.461537e-01	2.119305e+15	2.339919e+15	4.622854e+14	1.985610e+04	5.372150e+03	2.990614e+03	0	2.000710e-03
8.000000e+07	1.367395e+14	0.000000e+00	4.461537e-01	2.023534e+15	2.324188e+15	4.597590e+14	1.966669e+04	5.377180e+03	2.993414e+03	0	1.967655e-03
9.000000e+07	1.302289e+14	0.000000e+00	4.461537e-01	1.934509e+15	2.304624e+15	4.572514e+14	1.948571e+04	5.380486e+03	2.995255e+03	0	1.935917e-03
1.000000e+08	1.241696e+14	0.000000e+00	4.461537e-01	1.851608e+15	2.281915e+15	4.547623e+14	1.931257e+04	5.382290e+03	2.996259e+03	0	1.905414e-03
1.100000e+08	1.185208e+14	0.000000e+00	4.461537e-01	1.774282e+15	2.256657e+15	4.522918e+14	1.914674e+04	5.382784e+03	2.996534e+03	0	1.876071e-03
1.200000e+08	1.132462e+14	0.000000e+00	4.461537e-01	1.702038e+15	2.229364e+15	4.498395e+14	1.898774e+04	5.382137e+03	2.996174e+03	0	1.847817e-03
1.300000e+08	1.083135e+14	0.000000e+00	4.461537e-01	1.634439e+15	2.200478e+15	4.474054e+14	1.883512e+04	5.380499e+03	2.995262e+03	0	1.820589e-03
1.400000e+08	1.036937e+14	0.000000e+00	4.461537e-01	1.571091e+15	2.170379e+15	4.449894e+14	1.868847e+04	5.378000e+03	2.993871e+03	0	1.794328e-03
1.500000e+08	9.936075e+13	0.000000e+00	4.461537e-01	1.511643e+15	2.139388e+15	4.425911e+14	1.854744e+04	5.374752e+03	2.992063e+03	0	1.768979e-03
1.600000e+08	9.529123e+13	0.000000e+00	4.461537e-01	1.455778e+15	2.107779e+15	4.402106e+14	1.841167e+04	5.370858e+03	2.989895e+03	0	1.744491e-03
1.700000e+08	9.146409e+13	0.000000e+00	4.461537e-01	1.403209e+15	2.075782e+15	4.378477e+14	1.828085e+04	5.366404e+03	2.987415e+03	0	1.720816e-03
1.800000e+08	8.786032e+13	0.000000e+00	4.461537e-01	1.353680e+15	2.043592e+15	4.355022e+14	1.815470e+04	5.361468e+03	2.984668e+03	0	1.697912e-03
1.900000e+08	8.446270e+13	0.000000e+00	4.461537e-01	1.306956e+15	2.011371e+15	4.331740e+14	1.803295e+04	5.356117e+03	2.981689e+03	0	1.675738e-03
2.000000e+08	8.125564e+13	0.000000e+00	4.461537e-01	1.262828e+15	1.979254e+15	4.308628e+14	1.791535e+04	5.350412e+03	2.978513e+03	0	1.654254e-03
2.100000e+08	7.822500e+13	0.000000e+00	4.461537e-01	1.221102e+15	1.947354e+15	4.285687e+14	1.780168e+04	5.344404e+03	2.975168e+03	0	1.633426e-03
2.200000e+08	7.535791e+13	0.000000e+00	4.461537e-01	1.181604e+15	1.915761e+15	4.262915e+14	1.769172e+04	5.338139e+03	2.971681e+03	0	1.613221e-03
2.300000e+08	7.264264e+13	0.000000e+00	4.461537e-01	1.144176e+15	1.884550e+15	4.240309e+14	1.758528e+04	5.331659e+03	2.968073e+03	0	1.593608e-03
2.400000e+08	7.006852e+13	0.000000e+00	4.461537e-01	1.108672e+15	1.853783e+15	4.217869e+14	1.748217e+04	5.324998e+03	2.964365e+03	0	1.574558e-03
2.500000e+08	6.762578e+13	0.000000e+00	4.461537e-01	1.074959e+15	1.823506e+15	4.195594e+14	1.738222e+04	5.318189e+03	2.960575e+03	0	1.556044e-03
2.600000e+08	6.530547e+13	0.000000e+00	4.461537e-01	1.042917e+15	1.793757e+15	4.173482e+14	1.728529e+04	5.311258e+03	2.956716e+03	0	1.538040e-03
2.700000e+08	6.309940e+13	0.000000e+00	4.461537e-01	1.012434e+15	1.764565e+15	4.151531e+14	1.719121e+04	5.304230e+03	2.952804e+03	0	1.520522e-03
2.800000e+08	6.100007e+13	0.000000e+00	4.461537e-01	9.834086e+14	1.735950e+15	4.129740e+14	1.709986e+04	5.297127e+03	2.948850e+03	0	1.503469e-03
2.900000e+08	5.900056e+13	0.000000e+00	4.461537e-01	9.557460e+14	1.707928e+15	4.108109e+14	1.701110e+04	5.289967e+03	2.944864e+03	0	1.486859e-03
3.000000e+08	5.709452e+13	0.000000e+00	4.461537e-01	9.293602e+14	1.680507e+15	4.086635e+14	1.692481e+04	5.282767e+03	2.940856e+03	0	1.470672e-03
3.100000e+08	5.527609e+13	0.000000e+00	4.461537e-01	9.041717e+14	1.653692e+15	4.065318e+14	1.684089e+04	5.275541e+03	2.936833e+03	0	1.454890e-03
3.200000e+08	5.353986e+13	0.000000e+00	4.461537e-01	8.801069e+14	1.627485e+15	4.044156e+14	1.675921e+04	5.268303e+03	2.932804e+03	0	1.439495e-03
3.300000e+08	5.188085e+13	0.000000e+00	4.461537e-01	8.570980e+14	1.601884e+15	4.023148e+14	1.667969e+04	5.261063e+03	2.928774e+03	0	1.424470e-03
3.400000e+08	5.029444e+13	0.000000e+00	4.461537e-01	8.350823e+14	1.576884e+15	4.002292e+14	1.660223e+04	5.253832e+03	2.924748e+03	0	1.409801e-03
3.500000e+08	4.877635e+13	0.000000e+00	4.461537e-01	8.140015e+14	1.552479e+15	3.981588e+14	1.652675e+04	5.246618e+03	2.920732e+03	0	1.395471e-03
3.600000e+08	4.732263e+13	0.000000e+00	4.461537e-01	7.938017e+14	1.528660e+15	3.961033e+14	1.645315e+04	5.239428e+03	2.916729e+03	0	1.381467e-03
3.700000e+08	4.592958e+13	0.000000e+00	4.461537e-01	7.744329e+14	1.505419e+15	3.940628e+14	1.638136e+04	5.232269e+03	2.912744e+03	0	1.367777e-03
3.800000e+08	4.459380e+13	0.000000e+00	4.461537e-01	7.558485e+14	1.482744e+15	3.920370e+14	1.631131e+04	5.225148e+03	2.908780e+03	0	1.354386e-03
3.900000e+08	4.331210e+13	0.000000e+00	4.461537e-01	7.380053e+14	1.460624e+15	3.900259e+14	1.624293e+04	5.218068e+03	2.904838e+03	0	1.341284e-03
4.000000e+08	4.208154e+13	0.000000e+00	4.461537e-01	7.208629e+14	1.439048e+15	3.880293e+14	1.617615e+04	5.211034e+03	2.900923e+03	0	1.328459e-03
4.100000e+08	4.089934e+13	0.000000e+00	4.461537e-01	7.043839e+14	1.418002e+15	3.860471e+14	1.611091e+04	5.204050e+03	2.897035e+03	0	1.315901e-03
4.200000e+08	3.976294e+13	0.000000e+00	4.461537e-01	6.885331e+14	1.397473e+15	3.840791e+14	1.604714e+04	5.197119e+03	2.893177e+03	0	1.303599e-03
4.300000e+08	3.866994e+13	0.000000e+00	4.461537e-01	6.732778e+14	1.377450e+15	3.821254e+14	1.598480e+04	5.190244e+03	2.889349e+03	0	1.291543e-03
4.400000e+08	3.761809e+13	0.000000e+00	4.461537e-01	6.585873e+14	1.357918e+15	3.801857e+14	1.592384e+04	5.183427e+03	2.885554e+03	0	1.279725e-03
4.500000e+08	3.660529e+13	0.000000e+00	4.461537e-01	6.444332e+14	1.338864e+15	3.782599e+14	1.586419e+04	5.176669e+03	2.881792e+03	0	1.268135e-03
4.600000e+08	3.562957e+13	0.000000e+00	4.461537e-01	6.307884e+14	1.320275e+15	3.763480e+14	1.580581e+04	5.169973e+03	2.878065e+03	0	1.256766e-03
4.700000e+08	3.468910e+13	0.000000e+00	4.461537e-01	6.176280e+14	1.302139e+15	3.744498e+14	1.574866e+04	5.163340e+03	2.874372e+03	0	1.245610e-03
4.800000e+08	3.378214e+13	0.000000e+00	4.461537e-01	6.049282e+14	1.284443e+15	3.725652e+14	1.569270e+04	5.156771e+03	2.870715e+03	0	1.234658e-03
4.900000e+08	3.290707e+13	0.000000e+00	4.461537e-01	5.926670e+14	1.267173e+15	3.706940e+14	1.563788e+04	5.150266e+03	2.867094e+03	0	1.223904e-03
5.000000e+08	3.206236e+13	0.000000e+00	4.461537e-01	5.808236e+14	1.250318e+15	3.688363e+14	1.558416e+04	5.143827e+03	2.863509e+03	0	1.213341e-03
5.100000e+08	3.124659e+13	0.000000e+00	4.461537e-01	5.693783e+14	1.233865e+15	3.669918e+14	1.553151e+04	5.137453e+03	2.859961e+03	0	1.202962e-03
5.200000e+08	3.045841e+13	0.000000e+00	4.461537e-01	5.583127e+14	1.217802e+15	3.651605e+14	1.547989e+04	5.131144e+03	2.856449e+03	0	1.192761e-03
5.300000e+08	2.969654e+13	0.000000e+00	4.461537e-01	5.476096e+14	1.202118e+15	3.633423e+14	1.542926e+04	5.124902e+03	2.852974e+03	0	1.182732e-03
5.400000e+08	2.895978e+13	0.000000e+00	4.461537e-01	5.372525e+14	1.186802e+15	3.615370e+14	1.537960e+04	5.118726e+03	2.849536e+03	0	1.172869e-03
5.500000e+08	2.824702e+13	0.000000e+00	4.461537e-01	5.272260e+14	1.171843e+15	3.597445e+14	1.533087e+04	5.112615e+03	2.846134e+03	0	1.163167e-03
5.600000e+08	2.755718e+13	0.000000e+00	4.461537e-01	5.175156e+14	1.157229e+15	3.579648e+14	1.528305e+04	5.106570e+03	2.842769e+03	0	1.153620e-03
5.700000e+08	2.688927e+13	0.000000e+00	4.461537e-01	5.081075e+14	1.142951e+15	3.561977e+14	1.523610e+04	5.100590e+03	2.839440e+03	0	1.144223e-03
5.800000e+08	2.624232e+13	0.000000e+00	4.461537e-01	4.989887e+14	1.128999e+15	3.544432e+14	1.519000e+04	5.094675e+03	2.836147e+03	0	1.134972e-03
5.900000e+08	2.561545e+13	0.000000e+00	4.461537e-01	4.901469e+14	1.115362e+15	3.527011e+14	1.514472e+04	5.088824e+03	2.832890e+03	0	1.125862e-03
6.000000e+08	2.500779e+13	0.000000e+00	4.461537e-01	4.815706e+14	1.102031e+15	3.509713e+14	1.510024e+04	5.083037e+03	2.829669e+03	0	1.116888e-03
6.100000e+08	2.441856e+13	0.000000e+00	4.461537e-01	4.732485e+14	1.088998e+15	3.492538e+14	1.505653e+04	5.077314e+03	2.826482e+03	0	1.108046e-03
6.200000e+08	2.384698e+13	0.000000e+00	4.461537e-01	4.651704e+14	1.076252e+15	3.475484e+14	1.501357e+04	5.071653e+03	2.823331e+03	0	1.099332e-03
6.300000e+08	2.329233e+13	0.000000e+00	4.461537e-01	4.573264e+14	1.063786e+15	3.458550e+14	1.497135e+04	5.066054e+03	2.820214e+03	0	1.090742e-03
6.400000e+08	2.275392e+13	0.000000e+00	4.461537e-01	4.497069e+14	1.051592e+15	3.441736e+14	1.492983e+04	5.060516e+03	2.817131e+03	0	1.082272e-03
6.500000e+08	2.223111e+13	0.000000e+00	4.461537e-01	4.423032e+14	1.039661e+15	3.425041e+14	1.488900e+04	5.055040e+03	2.814082e+03	0	1.073919e-03
6.600000e+08	2.172328e+13	0.000000e+00	4.461537e-01	4.351068e+14	1.027985e+15	3.408462e+14	1.484883e+04	5.049623e+03	2.811067e+03	0	1.065678e-03
6.700000e+08	2.122984e+13	0.000000e+00	4.461537e-01	4.281095e+14	1.016557e+15	3.392001e+14	1.480932e+04	5.044265e+03	2.808084e+03	0	1.057548e-03
6.800000e+08	2.075024e+13	0.000000e+00	4.461537e-01	4.213038e+14	1.005370e+15	3.375655e+14	1.477044e+04	5.038965e+03	2.805134e+03	0	1.049523e-03
6.900000e+08	2.028393e+13	0.000000e+00	4.461537e-01	4.146823e+14	9.944165e+14	3.359423e+14	1.473217e+04	5.033724e+03	2.802216e+03	0	1.041602e-03
7.000000e+08	1.983042e+13	0.000000e+00	4.461537e-01	4.082382e+14	9.836900e+14	3.343306e+14	1.469450e+04	5.028539e+03	2.799330e+03	0	1.033781e-03
7.100000e+08	1.938923e+13	0.000000e+00	4.461537e-01	4.019648e+14	9.731839e+14	3.327301e+14	1.465742e+04	5.023410e+03	2.796475e+03	0	1.026056e-03
7.200000e+08	1.895990e+13	0.000000e+00	4.461537e-01	3.958558e+14	9.628919e+14	3.311408e+14	1.462090e+04	5.018336e+03	2.793650e+03	0	1.018426e-03
7.300000e+08	1.854199e+13	0.000000e+00	4.461537e-01	3.899053e+14	9.528078e+14	3.295626e+14	1.458493e+04	5.013317e+03	2.790856e+03	0	1.010888e-03
7.400000e+08	1.813508e+13	0.000000e+00	4.461537e-01	3.841076e+14	9.429257e+14	3.279955e+14	1.454950e+04	5.008352e+03	2.788092e+03	0	1.003439e-03
7.500000e+08	1.773878e+13	0.000000e+00	4.461537e-01	3.784571e+14	9.332399e+14	3.264393e+14	1.451459e+04	5.003440e+03	2.785357e+03	0	9.960755e-04
7.600000e+08	1.735271e+13	0.000000e+00	4.461537e-01	3.729487e+14	9.237449e+14	3.248939e+14	1.448020e+04	4.998580e+03	2.782652e+03	0	9.887962e-04
7.700000e+08	1.697651e+13	0.000000e+00	4.461537e-01	3.675773e+14	9.144354e+14	3.233592e+14	1.444630e+04	4.993771e+03	2.779975e+03	0	9.815983e-04
7.800000e+08	1.660982e+13	0.000000e+00	4.461537e-01	3.623383e+14	9.053062e+14	3.218352e+14	1.441289e+04	4.989013e+03	2.777326e+03	0	9.744795e-04
7.900000e+08	1.625233e+13	0.000000e+00	4.461537e-01	3.572271e+14	8.963524e+14	3.203219e+14	1.437995e+04	4.984304e+03	2.774705e+03	0	9.674375e-04
8.000000e+08	1.590372e+13	0.000000e+00	4.461537e-01	3.522394e+14	8.875691e+14	3.188190e+14	1.434748e+04	4.979645e+03	2.772111e+03	0	9.604702e-04
8.100000e+08	1.556367e+13	0.000000e+00	4.461537e-01	3.473709e+14	8.789516e+14	3.173265e+14	1.431546e+04	4.975034e+03	2.769544e+03	0	9.535754e-04
8.200000e+08	1.523191e+13	0.000000e+00	4.461537e-01	3.426177e+14	8.704956e+14	3.158443e+14	1.428387e+04	4.970470e+03	2.767004e+03	0	9.467511e-04
8.300000e+08	1.490816e+13	0.000000e+00	4.461537e-01	3.379760e+14	8.621967e+14	3.143724e+14	1.425272e+04	4.965953e+03	2.764489e+03	0	9.399953e-04
8.400000e+08	1.459215e+13	0.000000e+00	4.461537e-01	3.334421e+14	8.540505e+14	3.129107e+14	1.422199e+04	4.961482e+03	2.762000e+03	0	9.333060e-04
8.500000e+08	1.428362e+13	0.000000e+00	4.461537e-01	3.290126e+14	8.460532e+14	3.114590e+14	1.419167e+04	4.957057e+03	2.759537e+03	0	9.266814e-04
8.600000e+08	1.398234e+13	0.000000e+00	4.461537e-01	3.246841e+14	8.382008e+14	3.100174e+14	1.416175e+04	4.952676e+03	2.757098e+03	0	9.201196e-04
8.700000e+08	1.368807e+13	0.000000e+00	4.461537e-01	3.204533e+14	8.304894e+14	3.085857e+14	1.413222e+04	4.948339e+03	2.754684e+03	0	9.136188e-04
8.800000e+08	1.340058e+13	0.000000e+00	4.461537e-01	3.163173e+14	8.229154e+14	3.071638e+14	1.410307e+04	4.944046e+03	2.752294e+03	0	9.071774e-04
8.900000e+08	1.311967e+13	0.000000e+00	4.461537e-01	3.122729e+14	8.154752e+14	3.057517e+14	1.407430e+04	4.939795e+03	2.749927e+03	0	9.007936e-04
9.000000e+08	1.284512e+13	0.000000e+00	4.461537e-01	3.083174e+14	8.081654e+14	3.043493e+14	1.404589e+04	4.935585e+03	2.747584e+03	0	8.944657e-04
9.100000e+08	1.257674e+13	0.000000e+00	4.461537e-01	3.044480e+14	8.009827e+14	3.029565e+14	1.401785e+04	4.931417e+03	2.745263e+03	0	8.881923e-04
9.200000e+08	1.231433e+13	0.000000e+00	4.461537e-01	3.006622e+14	7.939239e+14	3.015732e+14	1.399015e+04	4.927290e+03	2.742966e+03	0	8.819716e-04
9.300000e+08	1.205772e+13	0.000000e+00	4.461537e-01	2.969573e+14	7.869858e+14	3.001994e+14	1.396280e+04	4.923202e+03	2.740690e+03	0	8.758023e-04
9.400000e+08	1.180673e+13	0.000000e+00	4.461537e-01	2.933311e+14	7.801653e+14	2.988350e+14	1.393578e+04	4.919154e+03	2.738437e+03	0	8.696827e-04
9.500000e+08	1.156118e+13	0.000000e+00	4.461537e-01	2.897810e+14	7.734597e+14	2.974799e+14	1.390909e+04	4.915144e+03	2.736204e+03	0	8.636115e-04
9.600000e+08	1.132093e+13	0.000000e+00	4.461537e-01	2.863049e+14	7.668660e+14	2.961341e+14	1.388272e+04	4.911173e+03	2.733993e+03	0	8.575873e-04
9.700000e+08	1.108580e+13	0.000000e+00	4.461537e-01	2.829006e+14	7.603815e+14	2.947974e+14	1.385667e+04	4.907238e+03	2.731803e+03	0	8.516085e-04
9.800000e+08	1.085565e+13	0.000000e+00	4.461537e-01	2.795661e+14	7.540035e+14	2.934698e+14	1.383092e+04	4.903341e+03	2.729634e+03	0	8.456740e-04
9.900000e+08	1.063034e+13	0.000000e+00	4.461537e-01	2.762993e+14	7.477295e+14	2.921512e+14	1.380548e+04	4.899480e+03	2.727484e+03	0	8.397823e-04
1.000000e+09	1.040972e+13	0.000000e+00	4.461537e-01	2.730984e+14	7.415570e+14	2.908416e+14	1.378033e+04	4.895655e+03	2.725355e+03	0	8.339322e-04
1.010000e+09	1.019367e+13	0.000000e+00	4.461537e-01	2.699613e+14	7.354835e+14	2.895409e+14	1.375548e+04	4.891864e+03	2.723245e+03	0	8.281223e-04
1.020000e+09	9.982041e+12	0.000000e+00	4.461537e-01	2.668865e+14	7.295067e+14	2.882489e+14	1.373091e+04	4.888109e+03	2.721154e+03	0	8.223514e-04
1.030000e+09	9.774722e+12	0.000000e+00	4.461537e-01	2.638720e+14	7.236243e+14	2.869657e+14	1.370661e+04	4.884387e+03	2.719082e+03	0	8.166184e-04
1.040000e+09	9.571590e+12	0.000000e+00	4.461537e-01	2.609163e+14	7.178342e+14	2.856912e+14	1.368259e+04	4.880699e+03	2.717029e+03	0	8.109219e-04
1.050000e+09	9.372527e+12	0.000000e+00	4.461537e-01	2.580178e+14	7.121341e+14	2.844253e+14	1.365884e+04	4.877044e+03	2.714994e+03	0	8.052608e-04
1.060000e+09	9.177422e+12	0.000000e+00	4.461537e-01	2.551749e+14	7.065220e+14	2.831680e+14	1.363535e+04	4.873421e+03	2.712978e+03	0	7.996340e-04
1.070000e+09	8.986166e+12	0.000000e+00	4.461537e-01	2.523860e+14	7.009959e+14	2.819191e+14	1.361212e+04	4.869831e+03	2.710979e+03	0	7.940402e-04
1.080000e+09	8.798656e+12	0.000000e+00	4.461537e-01	2.496498e+14	6.955539e+14	2.806786e+14	1.358914e+04	4.866272e+03	2.708998e+03	0	7.884784e-04
1.090000e+09	8.614790e+12	0.000000e+00	4.461537e-01	2.469649e+14	6.901939e+14	2.794464e+14	1.356641e+04	4.862743e+03	2.707033e+03	0	7.829474e-04
1.100000e+09	8.434471e+12	0.000000e+00	4.461537e-01	2.443299e+14	6.849143e+14	2.782225e+14	1.354393e+04	4.859246e+03	2.705086e+03	0	7.774461e-04
1.110000e+09	8.257605e+12	0.000000e+00	4.461537e-01	2.417435e+14	6.797131e+14	2.770069e+14	1.352168e+04	4.855778e+03	2.703156e+03	0	7.719735e-04
1.120000e+09	8.084101e+12	0.000000e+00	4.461537e-01	2.392044e+14	6.745887e+14	2.757993e+14	1.349967e+04	4.852341e+03	2.701242e+03	0	7.665284e-04
1.130000e+09	7.913872e+12	0.000000e+00	4.461537e-01	2.367114e+14	6.695394e+14	2.745999e+14	1.347789e+04	4.848932e+03	2.699345e+03	0	7.611099e-04
1.140000e+09	7.746831e+12	0.000000e+00	4.461537e-01	2.342634e+14	6.645635e+14	2.734085e+14	1.345633e+04	4.845552e+03	2.697463e+03	0	7.557168e-04
1.150000e+09	7.582899e+12	0.000000e+00	4.461537e-01	2.318592e+14	6.596594e+14	2.722250e+14	1.343500e+04	4.842201e+03	2.695597e+03	0	7.503481e-04
1.160000e+09	7.421993e+12	0.000000e+00	4.461537e-01	2.294977e+14	6.548257e+14	2.710494e+14	1.341388e+04	4.838877e+03	2.693747e+03	0	7.450027e-04
1.170000e+09	7.264039e+12	0.000000e+00	4.461537e-01	2.271778e+14	6.500607e+14	2.698817e+14	1.339298e+04	4.835581e+03	2.691912e+03	0	7.396798e-04
1.180000e+09	7.108962e+12	0.000000e+00	4.461537e-01	2.248986e+14	6.453630e+14	2.687217e+14	1.337229e+04	4.832312e+03	2.690092e+03	0	7.343781e-04
1.190000e+09	6.956689e+12	0.000000e+00	4.461537e-01	2.226589e+14	6.407312e+14	2.675694e+14	1.335180e+04	4.829069e+03	2.688287e+03	0	7.290968e-04
1.200000e+09	6.807150e+12	0.000000e+00	4.461537e-01	2.204579e+14	6.361639e+14	2.664248e+14	1.333152e+04	4.825853e+03	2.686497e+03	0	7.238348e-04
1.210000e+09	6.660280e+12	0.000000e+00	4.461537e-01	2.182945e+14	6.316598e+14	2.652878e+14	1.331144e+04	4.822663e+03	2.684721e+03	0	7.185911e-04
1.220000e+09	6.516011e+12	0.000000e+00	4.461537e-01	2.161679e+14	6.272176e+14	2.641583e+14	1.329156e+04	4.819498e+03	2.682959e+03	0	7.133647e-04
1.230000e+09	6.374281e+12	0.000000e+00	4.461537e-01	2.140773e+14	6.228359e+14	2.630363e+14	1.327187e+04	4.816358e+03	2.681211e+03	0	7.081546e-04
1.240000e+09	6.235029e+12	0.000000e+00	4.461537e-01	2.120216e+14	6.185136e+14	2.619217e+14	1.325237e+04	4.813243e+03	2.679477e+03	0	7.029598e-04
1.250000e+09	6.098194e+12	0.000000e+00	4.461537e-01	2.100002e+14	6.142494e+14	2.608144e+14	1.323305e+04	4.810153e+03	2.677757e+03	0	6.977793e-04
1.260000e+09	5.963719e+12	0.000000e+00	4.461537e-01	2.080123e+14	6.100422e+14	2.597145e+14	1.321392e+04	4.807087e+03	2.676050e+03	0	6.926121e-04
1.270000e+09	5.831549e+12	0.000000e+00	4.461537e-01	2.060569e+14	6.058908e+14	2.586218e+14	1.319497e+04	4.804044e+03	2.674356e+03	0	6.874572e-04
1.280000e+09	5.701628e+12	0.000000e+00	4.461537e-01	2.041334e+14	6.017942e+14	2.575362e+14	1.317619e+04	4.801025e+03	2.672676e+03	0	6.823135e-04
1.290000e+09	5.573905e+12	0.000000e+00	4.461537e-01	2.022411e+14	5.977511e+14	2.564579e+14	1.315760e+04	4.798029e+03	2.671008e+03	0	6.771801e-04
1.300000e+09	5.448329e+12	0.000000e+00	4.461537e-01	2.003792e+14	5.937607e+14	2.553866e+14	1.313917e+04	4.795056e+03	2.669353e+03	0	6.720560e-04
1.310000e+09	5.324849e+12	0.000000e+00	4.461537e-01	1.985471e+14	5.898217e+14	2.543223e+14	1.312091e+04	4.792105e+03	2.667710e+03	0	6.669400e-04
1.320000e+09	5.203418e+12	0.000000e+00	4.461537e-01	1.967440e+14	5.859334e+14	2.532650e+14	1.310282e+04	4.789176e+03	2.666079e+03	0	6.618312e-04
1.330000e+09	5.083989e+12	0.000000e+00	4.461537e-01	1.949694e+14	5.820945e+14	2.522146e+14	1.308489e+04	4.786269e+03	2.664461e+03	0	6.567285e-04
1.340000e+09	4.966517e+12	0.000000e+00	4.461537e-01	1.932225e+14	5.783044e+14	2.511711e+14	1.306713e+04	4.783384e+03	2.662855e+03	0	6.516309e-04
1.350000e+09	4.850958e+12	0.000000e+00	4.461537e-01	1.915029e+14	5.745619e+14	2.501343e+14	1.304952e+04	4.780520e+03	2.661261e+03	0	6.465372e-04
1.360000e+09	4.737268e+12	0.000000e+00	4.461537e-01	1.898098e+14	5.708662e+14	2.491044e+14	1.303207e+04	4.777677e+03	2.659678e+03	0	6.414463e-04
