#t		Qconv[W]	Ri[Rp]		R*[Rp]		Qc[W]		Qm[W]		Qr[W]		Tcmb[K]		Tl[K]		Tup[K]		RiFlag		Bs[T]
0.000000e+00	2.253245e+14	0.000000e+00	4.418603e-01	3.277558e+15	2.066253e+15	4.912354e+14	2.281358e+04	5.384211e+03	2.975668e+03	0	2.352600e-03
1.000000e+07	2.120644e+14	0.000000e+00	4.418603e-01	3.095146e+15	2.124963e+15	4.885136e+14	2.252120e+04	5.419442e+03	2.995138e+03	0	2.305515e-03
2.000000e+07	1.999309e+14	0.000000e+00	4.418603e-01	2.928142e+15	2.171706e+15	4.858121e+14	2.224476e+04	5.449611e+03	3.011812e+03	0	2.260677e-03
3.000000e+07	1.887997e+14	0.000000e+00	4.418603e-01	2.774853e+15	2.207585e+15	4.831309e+14	2.198294e+04	5.475294e+03	3.026006e+03	0	2.217919e-03
4.000000e+07	1.785635e+14	0.000000e+00	4.418603e-01	2.633814e+15	2.233716e+15	4.804696e+14	2.173457e+04	5.497004e+03	3.038004e+03	0	2.177089e-03
5.000000e+07	1.691290e+14	0.000000e+00	4.418603e-01	2.503750e+15	2.251194e+15	4.778282e+14	2.149860e+04	5.515200e+03	3.048060e+03	0	2.138051e-03
6.000000e+07	1.604150e+14	0.000000e+00	4.418603e-01	2.383553e+15	2.261057e+15	4.752065e+14	2.127407e+04	5.530288e+03	3.056399e+03	0	2.100682e-03
7.000000e+07	1.523500e+14	0.000000e+00	4.418603e-01	2.272247e+15	2.264280e+15	4.726044e+14	2.106014e+04	5.542633e+03	3.063222e+03	0	2.064870e-03
8.000000e+07	1.448715e+14	0.000000e+00	4.418603e-01	2.168978e+15	2.261756e+15	4.700215e+14	2.085603e+04	5.552557e+03	3.068706e+03	0	2.030515e-03
9.000000e+07	1.379240e+14	0.000000e+00	4.418603e-01	2.072988e+15	2.254296e+15	4.674579e+14	2.066105e+04	5.560344e+03	3.073010e+03	0	1.997523e-03
1.000000e+08	1.314586e+14	0.000000e+00	4.418603e-01	1.983609e+15	2.242631e+15	4.649133e+14	2.047456e+04	5.566247e+03	3.076273e+03	0	1.965810e-03
1.100000e+08	1.254318e+14	0.000000e+00	4.418603e-01	1.900246e+15	2.227411e+15	4.623876e+14	2.029599e+04	5.570491e+03	3.078618e+03	0	1.935298e-03
1.200000e+08	1.198048e+14	0.000000e+00	4.418603e-01	1.822369e+15	2.209212e+15	4.598806e+14	2.012482e+04	5.573273e+03	3.080156e+03	0	1.905914e-03
1.300000e+08	1.145431e+14	0.000000e+00	4.418603e-01	1.749505e+15	2.188541e+15	4.573922e+14	1.996056e+04	5.574768e+03	3.080982e+03	0	1.877593e-03
1.400000e+08	1.096156e+14	0.000000e+00	4.418603e-01	1.681231e+15	2.165843e+15	4.549222e+14	1.980277e+04	5.575131e+03	3.081182e+03	0	1.850274e-03
1.500000e+08	1.049947e+14	0.000000e+00	4.418603e-01	1.617167e+15	2.141503e+15	4.524705e+14	1.965106e+04	5.574499e+03	3.080833e+03	0	1.823900e-03
1.600000e+08	1.006553e+14	0.000000e+00	4.418603e-01	1.556971e+15	2.115858e+15	4.500368e+14	1.950505e+04	5.572993e+03	3.080000e+03	0	1.798419e-03
1.700000e+08	9.657493e+13	0.000000e+00	4.418603e-01	1.500334e+15	2.089199e+15	4.476211e+14	1.936441e+04	5.570719e+03	3.078744e+03	0	1.773781e-03
1.800000e+08	9.273330e+13	0.000000e+00	4.418603e-01	1.446980e+15	2.061774e+15	4.452233e+14	1.922882e+04	5.567773e+03	3.077116e+03	0	1.749943e-03
1.900000e+08	8.911201e+13	0.000000e+00	4.418603e-01	1.396655e+15	2.033799e+15	4.428431e+14	1.909799e+04	5.564238e+03	3.075162e+03	0	1.726861e-03
2.000000e+08	8.569441e+13	0.000000e+00	4.418603e-01	1.349133e+15	2.005457e+15	4.404804e+14	1.897166e+04	5.560190e+03	3.072925e+03	0	1.704497e-03
2.100000e+08	8.246538e+13	0.000000e+00	4.418603e-01	1.304206e+15	1.976906e+15	4.381350e+14	1.884957e+04	5.555692e+03	3.070439e+03	0	1.682813e-03
2.200000e+08	7.941117e+13	0.000000e+00	4.418603e-01	1.261685e+15	1.948276e+15	4.358070e+14	1.873151e+04	5.550805e+03	3.067738e+03	0	1.661776e-03
2.300000e+08	7.651926e+13	0.000000e+00	4.418603e-01	1.221399e+15	1.919681e+15	4.334959e+14	1.861725e+04	5.545580e+03	3.064850e+03	0	1.641354e-03
2.400000e+08	7.377822e+13	0.000000e+00	4.418603e-01	1.183191e+15	1.891214e+15	4.312019e+14	1.850659e+04	5.540061e+03	3.061800e+03	0	1.621516e-03
2.500000e+08	7.117760e+13	0.000000e+00	4.418603e-01	1.146919e+15	1.862956e+15	4.289246e+14	1.839936e+04	5.534291e+03	3.058612e+03	0	1.602236e-03
2.600000e+08	6.870784e+13	0.000000e+00	4.418603e-01	1.112450e+15	1.834970e+15	4.266640e+14	1.829539e+04	5.528306e+03	3.055304e+03	0	1.583485e-03
2.700000e+08	6.636019e+13	0.000000e+00	4.418603e-01	1.079665e+15	1.807311e+15	4.244199e+14	1.819451e+04	5.522137e+03	3.051894e+03	0	1.565241e-03
2.800000e+08	6.412661e+13	0.000000e+00	4.418603e-01	1.048453e+15	1.780022e+15	4.221923e+14	1.809657e+04	5.515813e+03	3.048399e+03	0	1.547479e-03
2.900000e+08	6.199970e+13	0.000000e+00	4.418603e-01	1.018714e+15	1.753140e+15	4.199808e+14	1.800143e+04	5.509359e+03	3.044832e+03	0	1.530178e-03
3.000000e+08	5.997267e+13	0.000000e+00	4.418603e-01	9.903527e+14	1.726693e+15	4.177855e+14	1.790896e+04	5.502797e+03	3.041206e+03	0	1.513316e-03
3.100000e+08	5.803924e+13	0.000000e+00	4.418603e-01	9.632842e+14	1.700701e+15	4.156062e+14	1.781905e+04	5.496149e+03	3.037531e+03	0	1.496876e-03
3.200000e+08	5.619364e+13	0.000000e+00	4.418603e-01	9.374289e+14	1.675183e+15	4.134428e+14	1.773157e+04	5.489430e+03	3.033818e+03	0	1.480838e-03
3.300000e+08	5.443052e+13	0.000000e+00	4.418603e-01	9.127133e+14	1.650149e+15	4.112951e+14	1.764641e+04	5.482658e+03	3.030076e+03	0	1.465186e-03
3.400000e+08	5.274494e+13	0.000000e+00	4.418603e-01	8.890695e+14	1.625607e+15	4.091629e+14	1.756348e+04	5.475846e+03	3.026311e+03	0	1.449903e-03
3.500000e+08	5.113233e+13	0.000000e+00	4.418603e-01	8.664346e+14	1.601563e+15	4.070463e+14	1.748268e+04	5.469007e+03	3.022531e+03	0	1.434973e-03
3.600000e+08	4.958845e+13	0.000000e+00	4.418603e-01	8.447504e+14	1.578018e+15	4.049450e+14	1.740392e+04	5.462151e+03	3.018742e+03	0	1.420383e-03
3.700000e+08	4.810935e+13	0.000000e+00	4.418603e-01	8.239627e+14	1.554972e+15	4.028589e+14	1.732711e+04	5.455289e+03	3.014950e+03	0	1.406118e-03
3.800000e+08	4.669138e+13	0.000000e+00	4.418603e-01	8.040212e+14	1.532423e+15	4.007879e+14	1.725218e+04	5.448428e+03	3.011158e+03	0	1.392166e-03
3.900000e+08	4.533114e+13	0.000000e+00	4.418603e-01	7.848790e+14	1.510365e+15	3.987319e+14	1.717904e+04	5.441577e+03	3.007372e+03	0	1.378513e-03
4.000000e+08	4.402547e+13	0.000000e+00	4.418603e-01	7.664927e+14	1.488795e+15	3.966907e+14	1.710764e+04	5.434743e+03	3.003595e+03	0	1.365149e-03
4.100000e+08	4.277140e+13	0.000000e+00	4.418603e-01	7.488216e+14	1.467705e+15	3.946642e+14	1.703789e+04	5.427931e+03	2.999830e+03	0	1.352062e-03
4.200000e+08	4.156620e+13	0.000000e+00	4.418603e-01	7.318277e+14	1.447089e+15	3.926524e+14	1.696973e+04	5.421146e+03	2.996080e+03	0	1.339241e-03
4.300000e+08	4.040728e+13	0.000000e+00	4.418603e-01	7.154758e+14	1.426937e+15	3.906550e+14	1.690312e+04	5.414394e+03	2.992348e+03	0	1.326677e-03
4.400000e+08	3.929225e+13	0.000000e+00	4.418603e-01	6.997326e+14	1.407241e+15	3.886720e+14	1.683797e+04	5.407678e+03	2.988637e+03	0	1.314360e-03
4.500000e+08	3.821887e+13	0.000000e+00	4.418603e-01	6.845673e+14	1.387992e+15	3.867033e+14	1.677426e+04	5.401002e+03	2.984947e+03	0	1.302281e-03
4.600000e+08	3.718501e+13	0.000000e+00	4.418603e-01	6.699509e+14	1.369181e+15	3.847487e+14	1.671191e+04	5.394368e+03	2.981281e+03	0	1.290430e-03
4.700000e+08	3.618872e+13	0.000000e+00	4.418603e-01	6.558561e+14	1.350798e+15	3.828081e+14	1.665088e+04	5.387781e+03	2.977640e+03	0	1.278801e-03
4.800000e+08	3.522815e+13	0.000000e+00	4.418603e-01	6.422575e+14	1.332832e+15	3.808814e+14	1.659113e+04	5.381241e+03	2.974026e+03	0	1.267385e-03
4.900000e+08	3.430155e+13	0.000000e+00	4.418603e-01	6.291311e+14	1.315274e+15	3.789685e+14	1.653261e+04	5.374751e+03	2.970439e+03	0	1.256174e-03
5.000000e+08	3.340731e+13	0.000000e+00	4.418603e-01	6.164545e+14	1.298115e+15	3.770693e+14	1.647527e+04	5.368312e+03	2.966881e+03	0	1.245162e-03
5.100000e+08	3.254389e+13	0.000000e+00	4.418603e-01	6.042065e+14	1.281343e+15	3.751836e+14	1.641909e+04	5.361927e+03	2.963352e+03	0	1.234341e-03
5.200000e+08	3.170984e+13	0.000000e+00	4.418603e-01	5.923672e+14	1.264949e+15	3.733115e+14	1.636401e+04	5.355595e+03	2.959852e+03	0	1.223705e-03
5.300000e+08	3.090381e+13	0.000000e+00	4.418603e-01	5.809179e+14	1.248922e+15	3.714526e+14	1.631000e+04	5.349319e+03	2.956384e+03	0	1.213247e-03
5.400000e+08	3.012452e+13	0.000000e+00	4.418603e-01	5.698409e+14	1.233255e+15	3.696070e+14	1.625703e+04	5.343098e+03	2.952946e+03	0	1.202962e-03
5.500000e+08	2.937076e+13	0.000000e+00	4.418603e-01	5.591195e+14	1.217936e+15	3.677746e+14	1.620507e+04	5.336934e+03	2.949539e+03	0	1.192844e-03
5.600000e+08	2.864140e+13	0.000000e+00	4.418603e-01	5.487381e+14	1.202957e+15	3.659551e+14	1.615407e+04	5.330827e+03	2.946164e+03	0	1.182887e-03
5.700000e+08	2.793537e+13	0.000000e+00	4.418603e-01	5.386818e+14	1.188307e+15	3.641486e+14	1.610402e+04	5.324777e+03	2.942820e+03	0	1.173087e-03
5.800000e+08	2.725164e+13	0.000000e+00	4.418603e-01	5.289365e+14	1.173979e+15	3.623549e+14	1.605488e+04	5.318785e+03	2.939509e+03	0	1.163437e-03
5.900000e+08	2.658925e+13	0.000000e+00	4.418603e-01	5.194889e+14	1.159963e+15	3.605739e+14	1.600662e+04	5.312850e+03	2.936229e+03	0	1.153933e-03
6.000000e+08	2.594731e+13	0.000000e+00	4.418603e-01	5.103266e+14	1.146251e+15	3.588055e+14	1.595921e+04	5.306973e+03	2.932980e+03	0	1.144571e-03
6.100000e+08	2.532495e+13	0.000000e+00	4.418603e-01	5.014377e+14	1.132834e+15	3.570497e+14	1.591264e+04	5.301153e+03	2.929764e+03	0	1.135346e-03
6.200000e+08	2.472135e+13	0.000000e+00	4.418603e-01	4.928108e+14	1.119705e+15	3.553062e+14	1.586688e+04	5.295390e+03	2.926579e+03	0	1.126253e-03
6.300000e+08	2.413575e+13	0.000000e+00	4.418603e-01	4.844353e+14	1.106854e+15	3.535751e+14	1.582190e+04	5.289685e+03	2.923426e+03	0	1.117289e-03
6.400000e+08	2.356741e+13	0.000000e+00	4.418603e-01	4.763010e+14	1.094275e+15	3.518561e+14	1.577767e+04	5.284036e+03	2.920304e+03	0	1.108450e-03
6.500000e+08	2.301564e+13	0.000000e+00	4.418603e-01	4.683984e+14	1.081959e+15	3.501493e+14	1.573419e+04	5.278444e+03	2.917214e+03	0	1.099731e-03
6.600000e+08	2.247978e+13	0.000000e+00	4.418603e-01	4.607183e+14	1.069900e+15	3.484545e+14	1.569142e+04	5.272908e+03	2.914154e+03	0	1.091129e-03
6.700000e+08	2.195920e+13	0.000000e+00	4.418603e-01	4.532521e+14	1.058091e+15	3.467715e+14	1.564936e+04	5.267428e+03	2.911125e+03	0	1.082640e-03
6.800000e+08	2.145331e+13	0.000000e+00	4.418603e-01	4.459914e+14	1.046524e+15	3.451005e+14	1.560796e+04	5.262002e+03	2.908127e+03	0	1.074262e-03
6.900000e+08	2.096154e+13	0.000000e+00	4.418603e-01	4.389284e+14	1.035192e+15	3.434411e+14	1.556723e+04	5.256631e+03	2.905159e+03	0	1.065990e-03
7.000000e+08	2.048335e+13	0.000000e+00	4.418603e-01	4.320558e+14	1.024090e+15	3.417934e+14	1.552714e+04	5.251315e+03	2.902220e+03	0	1.057821e-03
7.100000e+08	2.001824e+13	0.000000e+00	4.418603e-01	4.253662e+14	1.013211e+15	3.401572e+14	1.548768e+04	5.246052e+03	2.899312e+03	0	1.049753e-03
7.200000e+08	1.956570e+13	0.000000e+00	4.418603e-01	4.188531e+14	1.002549e+15	3.385324e+14	1.544882e+04	5.240842e+03	2.896432e+03	0	1.041783e-03
7.300000e+08	1.912529e+13	0.000000e+00	4.418603e-01	4.125099e+14	9.920975e+14	3.369190e+14	1.541055e+04	5.235684e+03	2.893582e+03	0	1.033907e-03
7.400000e+08	1.869654e+13	0.000000e+00	4.418603e-01	4.063304e+14	9.818513e+14	3.353169e+14	1.537286e+04	5.230579e+03	2.890760e+03	0	1.026122e-03
7.500000e+08	1.827905e+13	0.000000e+00	4.418603e-01	4.003088e+14	9.718047e+14	3.337259e+14	1.533573e+04	5.225524e+03	2.887967e+03	0	1.018427e-03
7.600000e+08	1.787240e+13	0.000000e+00	4.418603e-01	3.944395e+14	9.619523e+14	3.321460e+14	1.529915e+04	5.220520e+03	2.885201e+03	0	1.010818e-03
7.700000e+08	1.747621e+13	0.000000e+00	4.418603e-01	3.887171e+14	9.522889e+14	3.305771e+14	1.526311e+04	5.215566e+03	2.882463e+03	0	1.003293e-03
7.800000e+08	1.709012e+13	0.000000e+00	4.418603e-01	3.831365e+14	9.428095e+14	3.290191e+14	1.522758e+04	5.210662e+03	2.879753e+03	0	9.958494e-04
7.900000e+08	1.671376e+13	0.000000e+00	4.418603e-01	3.776928e+14	9.335091e+14	3.274719e+14	1.519256e+04	5.205806e+03	2.877069e+03	0	9.884849e-04
8.000000e+08	1.634681e+13	0.000000e+00	4.418603e-01	3.723814e+14	9.243830e+14	3.259355e+14	1.515804e+04	5.200998e+03	2.874412e+03	0	9.811972e-04
8.100000e+08	1.598894e+13	0.000000e+00	4.418603e-01	3.671977e+14	9.154266e+14	3.244097e+14	1.512400e+04	5.196238e+03	2.871781e+03	0	9.739841e-04
8.200000e+08	1.563984e+13	0.000000e+00	4.418603e-01	3.621374e+14	9.066354e+14	3.228945e+14	1.509043e+04	5.191524e+03	2.869176e+03	0	9.668434e-04
8.300000e+08	1.529923e+13	0.000000e+00	4.418603e-01	3.571966e+14	8.980052e+14	3.213897e+14	1.505732e+04	5.186857e+03	2.866596e+03	0	9.597729e-04
8.400000e+08	1.496681e+13	0.000000e+00	4.418603e-01	3.523712e+14	8.895317e+14	3.198953e+14	1.502466e+04	5.182235e+03	2.864042e+03	0	9.527707e-04
8.500000e+08	1.464232e+13	0.000000e+00	4.418603e-01	3.476574e+14	8.812109e+14	3.184113e+14	1.499244e+04	5.177658e+03	2.861512e+03	0	9.458347e-04
8.600000e+08	1.432549e+13	0.000000e+00	4.418603e-01	3.430518e+14	8.730389e+14	3.169375e+14	1.496065e+04	5.173125e+03	2.859007e+03	0	9.389631e-04
8.700000e+08	1.401609e+13	0.000000e+00	4.418603e-01	3.385508e+14	8.650119e+14	3.154738e+14	1.492927e+04	5.168636e+03	2.856526e+03	0	9.321538e-04
8.800000e+08	1.371387e+13	0.000000e+00	4.418603e-01	3.341510e+14	8.571262e+14	3.140202e+14	1.489831e+04	5.164189e+03	2.854069e+03	0	9.254052e-04
8.900000e+08	1.341860e+13	0.000000e+00	4.418603e-01	3.298494e+14	8.493783e+14	3.125765e+14	1.486775e+04	5.159786e+03	2.851635e+03	0	9.187154e-04
9.000000e+08	1.313006e+13	0.000000e+00	4.418603e-01	3.256428e+14	8.417646e+14	3.111428e+14	1.483758e+04	5.155424e+03	2.849224e+03	0	9.120827e-04
9.100000e+08	1.284805e+13	0.000000e+00	4.418603e-01	3.215284e+14	8.342819e+14	3.097189e+14	1.480779e+04	5.151103e+03	2.846836e+03	0	9.055053e-04
9.200000e+08	1.257235e+13	0.000000e+00	4.418603e-01	3.175033e+14	8.269269e+14	3.083048e+14	1.477838e+04	5.146822e+03	2.844471e+03	0	8.989817e-04
9.300000e+08	1.230279e+13	0.000000e+00	4.418603e-01	3.135647e+14	8.196964e+14	3.069003e+14	1.474934e+04	5.142582e+03	2.842127e+03	0	8.925102e-04
9.400000e+08	1.203916e+13	0.000000e+00	4.418603e-01	3.097101e+14	8.125875e+14	3.055055e+14	1.472065e+04	5.138381e+03	2.839806e+03	0	8.860891e-04
9.500000e+08	1.178130e+13	0.000000e+00	4.418603e-01	3.059370e+14	8.055970e+14	3.041201e+14	1.469231e+04	5.134219e+03	2.837506e+03	0	8.797171e-04
9.600000e+08	1.152902e+13	0.000000e+00	4.418603e-01	3.022430e+14	7.987223e+14	3.027442e+14	1.466432e+04	5.130095e+03	2.835226e+03	0	8.733925e-04
9.700000e+08	1.128216e+13	0.000000e+00	4.418603e-01	2.986257e+14	7.919604e+14	3.013777e+14	1.463667e+04	5.126009e+03	2.832968e+03	0	8.671138e-04
9.800000e+08	1.104057e+13	0.000000e+00	4.418603e-01	2.950829e+14	7.853087e+14	3.000205e+14	1.460934e+04	5.121960e+03	2.830730e+03	0	8.608797e-04
9.900000e+08	1.080408e+13	0.000000e+00	4.418603e-01	2.916125e+14	7.787646e+14	2.986725e+14	1.458234e+04	5.117948e+03	2.828513e+03	0	8.546887e-04
1.000000e+09	1.057256e+13	0.000000e+00	4.418603e-01	2.882124e+14	7.723256e+14	2.973336e+14	1.455565e+04	5.113972e+03	2.826315e+03	0	8.485394e-04
1.010000e+09	1.034585e+13	0.000000e+00	4.418603e-01	2.848806e+14	7.659891e+14	2.960038e+14	1.452928e+04	5.110031e+03	2.824138e+03	0	8.424304e-04
1.020000e+09	1.012382e+13	0.000000e+00	4.418603e-01	2.816151e+14	7.597528e+14	2.946831e+14	1.450320e+04	5.106125e+03	2.821979e+03	0	8.363604e-04
1.030000e+09	9.906337e+12	0.000000e+00	4.418603e-01	2.784142e+14	7.536144e+14	2.933713e+14	1.447743e+04	5.102254e+03	2.819839e+03	0	8.303280e-04
1.040000e+09	9.693274e+12	0.000000e+00	4.418603e-01	2.752760e+14	7.475716e+14	2.920683e+14	1.445194e+04	5.098417e+03	2.817719e+03	0	8.243320e-04
1.050000e+09	9.484507e+12	0.000000e+00	4.418603e-01	2.721988e+14	7.416223e+14	2.907741e+14	1.442675e+04	5.094613e+03	2.815617e+03	0	8.183710e-04
1.060000e+09	9.279917e+12	0.000000e+00	4.418603e-01	2.691810e+14	7.357643e+14	2.894887e+14	1.440183e+04	5.090842e+03	2.813533e+03	0	8.124438e-04
1.070000e+09	9.079389e+12	0.000000e+00	4.418603e-01	2.662209e+14	7.299955e+14	2.882119e+14	1.437719e+04	5.087104e+03	2.811467e+03	0	8.065492e-04
1.080000e+09	8.882814e+12	0.000000e+00	4.418603e-01	2.633170e+14	7.243139e+14	2.869437e+14	1.435282e+04	5.083398e+03	2.809418e+03	0	8.006859e-04
1.090000e+09	8.690083e+12	0.000000e+00	4.418603e-01	2.604677e+14	7.187177e+14	2.856841e+14	1.432871e+04	5.079724e+03	2.807388e+03	0	7.948526e-04
1.100000e+09	8.501094e+12	0.000000e+00	4.418603e-01	2.576717e+14	7.132049e+14	2.844329e+14	1.430486e+04	5.076080e+03	2.805374e+03	0	7.890483e-04
1.110000e+09	8.315747e+12	0.000000e+00	4.418603e-01	2.549276e+14	7.077737e+14	2.831901e+14	1.428127e+04	5.072467e+03	2.803377e+03	0	7.832716e-04
1.120000e+09	8.133946e+12	0.000000e+00	4.418603e-01	2.522339e+14	7.024222e+14	2.819556e+14	1.425793e+04	5.068885e+03	2.801398e+03	0	7.775215e-04
1.130000e+09	7.955597e+12	0.000000e+00	4.418603e-01	2.495894e+14	6.971489e+14	2.807294e+14	1.423483e+04	5.065332e+03	2.799434e+03	0	7.717967e-04
1.140000e+09	7.780612e+12	0.000000e+00	4.418603e-01	2.469929e+14	6.919519e+14	2.795114e+14	1.421198e+04	5.061809e+03	2.797487e+03	0	7.660960e-04
1.150000e+09	7.608902e+12	0.000000e+00	4.418603e-01	2.444430e+14	6.868297e+14	2.783015e+14	1.418936e+04	5.058315e+03	2.795556e+03	0	7.604184e-04
1.160000e+09	7.440383e+12	0.000000e+00	4.418603e-01	2.419387e+14	6.817806e+14	2.770996e+14	1.416698e+04	5.054849e+03	2.793640e+03	0	7.547627e-04
1.170000e+09	7.274975e+12	0.000000e+00	4.418603e-01	2.394788e+14	6.768031e+14	2.759058e+14	1.414482e+04	5.051411e+03	2.791740e+03	0	7.491276e-04
1.180000e+09	7.112598e+12	0.000000e+00	4.418603e-01	2.370621e+14	6.718957e+14	2.747200e+14	1.412289e+04	5.048001e+03	2.789856e+03	0	7.435121e-04
1.190000e+09	6.953176e+12	0.000000e+00	4.418603e-01	2.346877e+14	6.670569e+14	2.735420e+14	1.410118e+04	5.044619e+03	2.787986e+03	0	7.379151e-04
1.200000e+09	6.796636e+12	0.000000e+00	4.418603e-01	2.323544e+14	6.622854e+14	2.723718e+14	1.407968e+04	5.041263e+03	2.786132e+03	0	7.323353e-04
1.210000e+09	6.642906e+12	0.000000e+00	4.418603e-01	2.300612e+14	6.575797e+14	2.712094e+14	1.405840e+04	5.037934e+03	2.784292e+03	0	7.267717e-04
1.220000e+09	6.491916e+12	0.000000e+00	4.418603e-01	2.278073e+14	6.529384e+14	2.700547e+14	1.403733e+04	5.034631e+03	2.782467e+03	0	7.212231e-04
1.230000e+09	6.343600e+12	0.000000e+00	4.418603e-01	2.255915e+14	6.483603e+14	2.689076e+14	1.401646e+04	5.031354e+03	2.780656e+03	0	7.156883e-04
1.240000e+09	6.197893e+12	0.000000e+00	4.418603e-01	2.234132e+14	6.438440e+14	2.677681e+14	1.399580e+04	5.028103e+03	2.778859e+03	0	7.101662e-04
1.250000e+09	6.054732e+12	0.000000e+00	4.418603e-01	2.212712e+14	6.393884e+14	2.666362e+14	1.397533e+04	5.024876e+03	2.777075e+03	0	7.046557e-04
1.260000e+09	5.914056e+12	0.000000e+00	4.418603e-01	2.191649e+14	6.349922e+14	2.655117e+14	1.395506e+04	5.021675e+03	2.775306e+03	0	6.991555e-04
1.270000e+09	5.775805e+12	0.000000e+00	4.418603e-01	2.170933e+14	6.306542e+14	2.643946e+14	1.393498e+04	5.018497e+03	2.773550e+03	0	6.936645e-04
1.280000e+09	5.639922e+12	0.000000e+00	4.418603e-01	2.150556e+14	6.263733e+14	2.632849e+14	1.391510e+04	5.015344e+03	2.771808e+03	0	6.881815e-04
1.290000e+09	5.506353e+12	0.000000e+00	4.418603e-01	2.130511e+14	6.221484e+14	2.621824e+14	1.389539e+04	5.012215e+03	2.770078e+03	0	6.827054e-04
1.300000e+09	5.375042e+12	0.000000e+00	4.418603e-01	2.110791e+14	6.179784e+14	2.610872e+14	1.387587e+04	5.009109e+03	2.768362e+03	0	6.772348e-04
1.310000e+09	5.245937e+12	0.000000e+00	4.418603e-01	2.091386e+14	6.138621e+14	2.599992e+14	1.385653e+04	5.006027e+03	2.766658e+03	0	6.717685e-04
1.320000e+09	5.118988e+12	0.000000e+00	4.418603e-01	2.072291e+14	6.097986e+14	2.589182e+14	1.383737e+04	5.002967e+03	2.764967e+03	0	6.663054e-04
1.330000e+09	4.994145e+12	0.000000e+00	4.418603e-01	2.053499e+14	6.057869e+14	2.578444e+14	1.381838e+04	4.999929e+03	2.763288e+03	0	6.608441e-04
1.340000e+09	4.871360e+12	0.000000e+00	4.418603e-01	2.035003e+14	6.018259e+14	2.567776e+14	1.379957e+04	4.996914e+03	2.761622e+03	0	6.553833e-04
1.350000e+09	4.750587e+12	0.000000e+00	4.418603e-01	2.016795e+14	5.979148e+14	2.557177e+14	1.378092e+04	4.993921e+03	2.759968e+03	0	6.499217e-04
1.360000e+09	4.631781e+12	0.000000e+00	4.418603e-01	1.998870e+14	5.940525e+14	2.546648e+14	1.376244e+04	4.990950e+03	2.758325e+03	0	6.444580e-04
