#t		Qconv[W]	Ri[Rp]		R*[Rp]		Qc[W]		Qm[W]		Qr[W]		Tcmb[K]		Tl[K]		Tup[K]		RiFlag		Bs[T]
0.000000e+00	3.093785e+14	0.000000e+00	4.496123e-01	4.078625e+15	2.155990e+15	5.389689e+14	2.421386e+04	5.535718e+03	3.003579e+03	0	2.565632e-03
1.000000e+07	2.917415e+14	0.000000e+00	4.496123e-01	3.859773e+15	2.248388e+15	5.359826e+14	2.390600e+04	5.582386e+03	3.028901e+03	0	2.515921e-03
2.000000e+07	2.755329e+14	0.000000e+00	4.496123e-01	3.658535e+15	2.326783e+15	5.330187e+14	2.361434e+04	5.623068e+03	3.050974e+03	0	2.468437e-03
3.000000e+07	2.606030e+14	0.000000e+00	4.496123e-01	3.473069e+15	2.391935e+15	5.300769e+14	2.333759e+04	5.658376e+03	3.070131e+03	0	2.423022e-03
4.000000e+07	2.468216e+14	0.000000e+00	4.496123e-01	3.301774e+15	2.444766e+15	5.271570e+14	2.307461e+04	5.688868e+03	3.086676e+03	0	2.379535e-03
5.000000e+07	2.340749e+14	0.000000e+00	4.496123e-01	3.143250e+15	2.486287e+15	5.242590e+14	2.282437e+04	5.715053e+03	3.100884e+03	0	2.337846e-03
6.000000e+07	2.222628e+14	0.000000e+00	4.496123e-01	2.996267e+15	2.517546e+15	5.213825e+14	2.258594e+04	5.737392e+03	3.113004e+03	0	2.297841e-03
7.000000e+07	2.112974e+14	0.000000e+00	4.496123e-01	2.859741e+15	2.539588e+15	5.185275e+14	2.235847e+04	5.756301e+03	3.123264e+03	0	2.259413e-03
8.000000e+07	2.011005e+14	0.000000e+00	4.496123e-01	2.732711e+15	2.553425e+15	5.156937e+14	2.214119e+04	5.772154e+03	3.131866e+03	0	2.222467e-03
9.000000e+07	1.916030e+14	0.000000e+00	4.496123e-01	2.614324e+15	2.560019e+15	5.128810e+14	2.193341e+04	5.785288e+03	3.138992e+03	0	2.186914e-03
1.000000e+08	1.827431e+14	0.000000e+00	4.496123e-01	2.503820e+15	2.560267e+15	5.100891e+14	2.173449e+04	5.796005e+03	3.144806e+03	0	2.152672e-03
1.100000e+08	1.744657e+14	0.000000e+00	4.496123e-01	2.400521e+15	2.554994e+15	5.073180e+14	2.154386e+04	5.804574e+03	3.149456e+03	0	2.119667e-03
1.200000e+08	1.667215e+14	0.000000e+00	4.496123e-01	2.303818e+15	2.544955e+15	5.045674e+14	2.136097e+04	5.811236e+03	3.153070e+03	0	2.087829e-03
1.300000e+08	1.594661e+14	0.000000e+00	4.496123e-01	2.213164e+15	2.530829e+15	5.018372e+14	2.118535e+04	5.816206e+03	3.155767e+03	0	2.057092e-03
1.400000e+08	1.526596e+14	0.000000e+00	4.496123e-01	2.128068e+15	2.513227e+15	4.991271e+14	2.101654e+04	5.819677e+03	3.157650e+03	0	2.027398e-03
1.500000e+08	1.462662e+14	0.000000e+00	4.496123e-01	2.048086e+15	2.492691e+15	4.964372e+14	2.085414e+04	5.821818e+03	3.158812e+03	0	1.998691e-03
1.600000e+08	1.402532e+14	0.000000e+00	4.496123e-01	1.972817e+15	2.469703e+15	4.937670e+14	2.069776e+04	5.822783e+03	3.159336e+03	0	1.970918e-03
1.700000e+08	1.345912e+14	0.000000e+00	4.496123e-01	1.901899e+15	2.444689e+15	4.911166e+14	2.054705e+04	5.822707e+03	3.159295e+03	0	1.944031e-03
1.800000e+08	1.292537e+14	0.000000e+00	4.496123e-01	1.835003e+15	2.418019e+15	4.884858e+14	2.040169e+04	5.821711e+03	3.158754e+03	0	1.917985e-03
1.900000e+08	1.242163e+14	0.000000e+00	4.496123e-01	1.771829e+15	2.390022e+15	4.858743e+14	2.026138e+04	5.819902e+03	3.157772e+03	0	1.892738e-03
2.000000e+08	1.194571e+14	0.000000e+00	4.496123e-01	1.712105e+15	2.360979e+15	4.832820e+14	2.012585e+04	5.817375e+03	3.156402e+03	0	1.868250e-03
2.100000e+08	1.149559e+14	0.000000e+00	4.496123e-01	1.655583e+15	2.331140e+15	4.807088e+14	1.999483e+04	5.814217e+03	3.154688e+03	0	1.844483e-03
2.200000e+08	1.106945e+14	0.000000e+00	4.496123e-01	1.602036e+15	2.300716e+15	4.781545e+14	1.986808e+04	5.810502e+03	3.152672e+03	0	1.821404e-03
2.300000e+08	1.066560e+14	0.000000e+00	4.496123e-01	1.551259e+15	2.269891e+15	4.756189e+14	1.974539e+04	5.806299e+03	3.150392e+03	0	1.798979e-03
2.400000e+08	1.028251e+14	0.000000e+00	4.496123e-01	1.503061e+15	2.238825e+15	4.731019e+14	1.962655e+04	5.801668e+03	3.147879e+03	0	1.777177e-03
2.500000e+08	9.918780e+13	0.000000e+00	4.496123e-01	1.457268e+15	2.207652e+15	4.706034e+14	1.951136e+04	5.796662e+03	3.145163e+03	0	1.755970e-03
2.600000e+08	9.573120e+13	0.000000e+00	4.496123e-01	1.413722e+15	2.176489e+15	4.681231e+14	1.939964e+04	5.791329e+03	3.142270e+03	0	1.735330e-03
2.700000e+08	9.244343e+13	0.000000e+00	4.496123e-01	1.372275e+15	2.145432e+15	4.656610e+14	1.929122e+04	5.785713e+03	3.139222e+03	0	1.715232e-03
2.800000e+08	8.931360e+13	0.000000e+00	4.496123e-01	1.332793e+15	2.114566e+15	4.632168e+14	1.918595e+04	5.779850e+03	3.136041e+03	0	1.695652e-03
2.900000e+08	8.633165e+13	0.000000e+00	4.496123e-01	1.295151e+15	2.083959e+15	4.607905e+14	1.908368e+04	5.773776e+03	3.132745e+03	0	1.676567e-03
3.000000e+08	8.348833e+13	0.000000e+00	4.496123e-01	1.259235e+15	2.053669e+15	4.583819e+14	1.898427e+04	5.767519e+03	3.129351e+03	0	1.657956e-03
3.100000e+08	8.077508e+13	0.000000e+00	4.496123e-01	1.224939e+15	2.023746e+15	4.559908e+14	1.888759e+04	5.761109e+03	3.125872e+03	0	1.639797e-03
3.200000e+08	7.818400e+13	0.000000e+00	4.496123e-01	1.192165e+15	1.994227e+15	4.536172e+14	1.879352e+04	5.754567e+03	3.122323e+03	0	1.622072e-03
3.300000e+08	7.570775e+13	0.000000e+00	4.496123e-01	1.160822e+15	1.965145e+15	4.512607e+14	1.870195e+04	5.747917e+03	3.118715e+03	0	1.604764e-03
3.400000e+08	7.333957e+13	0.000000e+00	4.496123e-01	1.130827e+15	1.936525e+15	4.489214e+14	1.861275e+04	5.741177e+03	3.115058e+03	0	1.587853e-03
3.500000e+08	7.107317e+13	0.000000e+00	4.496123e-01	1.102101e+15	1.908387e+15	4.465991e+14	1.852585e+04	5.734365e+03	3.111362e+03	0	1.571326e-03
3.600000e+08	6.890270e+13	0.000000e+00	4.496123e-01	1.074571e+15	1.880746e+15	4.442936e+14	1.844113e+04	5.727495e+03	3.107634e+03	0	1.555165e-03
3.700000e+08	6.682273e+13	0.000000e+00	4.496123e-01	1.048172e+15	1.853612e+15	4.420048e+14	1.835851e+04	5.720582e+03	3.103883e+03	0	1.539356e-03
3.800000e+08	6.482823e+13	0.000000e+00	4.496123e-01	1.022839e+15	1.826993e+15	4.397326e+14	1.827790e+04	5.713638e+03	3.100115e+03	0	1.523886e-03
3.900000e+08	6.291449e+13	0.000000e+00	4.496123e-01	9.985155e+14	1.800893e+15	4.374768e+14	1.819922e+04	5.706673e+03	3.096336e+03	0	1.508740e-03
4.000000e+08	6.107712e+13	0.000000e+00	4.496123e-01	9.751462e+14	1.775313e+15	4.352372e+14	1.812240e+04	5.699697e+03	3.092551e+03	0	1.493908e-03
4.100000e+08	5.931203e+13	0.000000e+00	4.496123e-01	9.526805e+14	1.750252e+15	4.330139e+14	1.804737e+04	5.692719e+03	3.088765e+03	0	1.479376e-03
4.200000e+08	5.761542e+13	0.000000e+00	4.496123e-01	9.310710e+14	1.725709e+15	4.308065e+14	1.797405e+04	5.685747e+03	3.084982e+03	0	1.465133e-03
4.300000e+08	5.598371e+13	0.000000e+00	4.496123e-01	9.102734e+14	1.701680e+15	4.286151e+14	1.790238e+04	5.678787e+03	3.081206e+03	0	1.451170e-03
4.400000e+08	5.441356e+13	0.000000e+00	4.496123e-01	8.902463e+14	1.678158e+15	4.264394e+14	1.783229e+04	5.671845e+03	3.077440e+03	0	1.437474e-03
4.500000e+08	5.290184e+13	0.000000e+00	4.496123e-01	8.709509e+14	1.655138e+15	4.242794e+14	1.776374e+04	5.664928e+03	3.073686e+03	0	1.424037e-03
4.600000e+08	5.144564e+13	0.000000e+00	4.496123e-01	8.523506e+14	1.632613e+15	4.221348e+14	1.769666e+04	5.658038e+03	3.069948e+03	0	1.410849e-03
4.700000e+08	5.004219e+13	0.000000e+00	4.496123e-01	8.344114e+14	1.610573e+15	4.200057e+14	1.763101e+04	5.651182e+03	3.066228e+03	0	1.397901e-03
4.800000e+08	4.868893e+13	0.000000e+00	4.496123e-01	8.171013e+14	1.589012e+15	4.178918e+14	1.756672e+04	5.644361e+03	3.062527e+03	0	1.385185e-03
4.900000e+08	4.738344e+13	0.000000e+00	4.496123e-01	8.003901e+14	1.567919e+15	4.157930e+14	1.750376e+04	5.637580e+03	3.058848e+03	0	1.372692e-03
5.000000e+08	4.612343e+13	0.000000e+00	4.496123e-01	7.842495e+14	1.547285e+15	4.137092e+14	1.744208e+04	5.630842e+03	3.055192e+03	0	1.360415e-03
5.100000e+08	4.490676e+13	0.000000e+00	4.496123e-01	7.686528e+14	1.527101e+15	4.116404e+14	1.738164e+04	5.624148e+03	3.051560e+03	0	1.348347e-03
5.200000e+08	4.373142e+13	0.000000e+00	4.496123e-01	7.535750e+14	1.507358e+15	4.095863e+14	1.732239e+04	5.617501e+03	3.047954e+03	0	1.336479e-03
5.300000e+08	4.259552e+13	0.000000e+00	4.496123e-01	7.389925e+14	1.488044e+15	4.075468e+14	1.726429e+04	5.610904e+03	3.044374e+03	0	1.324806e-03
5.400000e+08	4.149725e+13	0.000000e+00	4.496123e-01	7.248828e+14	1.469150e+15	4.055219e+14	1.720731e+04	5.604356e+03	3.040821e+03	0	1.313321e-03
5.500000e+08	4.043494e+13	0.000000e+00	4.496123e-01	7.112251e+14	1.450666e+15	4.035113e+14	1.715141e+04	5.597860e+03	3.037297e+03	0	1.302017e-03
5.600000e+08	3.940699e+13	0.000000e+00	4.496123e-01	6.979994e+14	1.432582e+15	4.015151e+14	1.709656e+04	5.591417e+03	3.033801e+03	0	1.290888e-03
5.700000e+08	3.841189e+13	0.000000e+00	4.496123e-01	6.851869e+14	1.414889e+15	3.995330e+14	1.704272e+04	5.585028e+03	3.030334e+03	0	1.279930e-03
5.800000e+08	3.744821e+13	0.000000e+00	4.496123e-01	6.727700e+14	1.397576e+15	3.975650e+14	1.698986e+04	5.578693e+03	3.026897e+03	0	1.269135e-03
5.900000e+08	3.651462e+13	0.000000e+00	4.496123e-01	6.607317e+14	1.380634e+15	3.956110e+14	1.693795e+04	5.572414e+03	3.023490e+03	0	1.258500e-03
6.000000e+08	3.560984e+13	0.000000e+00	4.496123e-01	6.490563e+14	1.364053e+15	3.936708e+14	1.688697e+04	5.566189e+03	3.020113e+03	0	1.248018e-03
6.100000e+08	3.473265e+13	0.000000e+00	4.496123e-01	6.377287e+14	1.347824e+15	3.917443e+14	1.683688e+04	5.560021e+03	3.016766e+03	0	1.237685e-03
6.200000e+08	3.388193e+13	0.000000e+00	4.496123e-01	6.267345e+14	1.331938e+15	3.898314e+14	1.678767e+04	5.553909e+03	3.013450e+03	0	1.227497e-03
6.300000e+08	3.305658e+13	0.000000e+00	4.496123e-01	6.160603e+14	1.316386e+15	3.879321e+14	1.673929e+04	5.547853e+03	3.010164e+03	0	1.217448e-03
6.400000e+08	3.225557e+13	0.000000e+00	4.496123e-01	6.056932e+14	1.301159e+15	3.860461e+14	1.669173e+04	5.541854e+03	3.006909e+03	0	1.207534e-03
6.500000e+08	3.147793e+13	0.000000e+00	4.496123e-01	5.956210e+14	1.286249e+15	3.841734e+14	1.664498e+04	5.535910e+03	3.003684e+03	0	1.197750e-03
6.600000e+08	3.072274e+13	0.000000e+00	4.496123e-01	5.858321e+14	1.271647e+15	3.823139e+14	1.659899e+04	5.530023e+03	3.000489e+03	0	1.188094e-03
6.700000e+08	2.998910e+13	0.000000e+00	4.496123e-01	5.763156e+14	1.257344e+15	3.804674e+14	1.655375e+04	5.524191e+03	2.997325e+03	0	1.178561e-03
6.800000e+08	2.927619e+13	0.000000e+00	4.496123e-01	5.670609e+14	1.243334e+15	3.786340e+14	1.650925e+04	5.518415e+03	2.994191e+03	0	1.169147e-03
6.900000e+08	2.858320e+13	0.000000e+00	4.496123e-01	5.580581e+14	1.229608e+15	3.768134e+14	1.646545e+04	5.512695e+03	2.991087e+03	0	1.159848e-03
7.000000e+08	2.790938e+13	0.000000e+00	4.496123e-01	5.492976e+14	1.216158e+15	3.750055e+14	1.642235e+04	5.507029e+03	2.988013e+03	0	1.150662e-03
7.100000e+08	2.725401e+13	0.000000e+00	4.496123e-01	5.407706e+14	1.202978e+15	3.732103e+14	1.637992e+04	5.501418e+03	2.984969e+03	0	1.141584e-03
7.200000e+08	2.661639e+13	0.000000e+00	4.496123e-01	5.324682e+14	1.190060e+15	3.714277e+14	1.633815e+04	5.495861e+03	2.981954e+03	0	1.132611e-03
7.300000e+08	2.599587e+13	0.000000e+00	4.496123e-01	5.243824e+14	1.177397e+15	3.696575e+14	1.629701e+04	5.490358e+03	2.978968e+03	0	1.123740e-03
7.400000e+08	2.539184e+13	0.000000e+00	4.496123e-01	5.165054e+14	1.164982e+15	3.678997e+14	1.625650e+04	5.484909e+03	2.976011e+03	0	1.114968e-03
7.500000e+08	2.480368e+13	0.000000e+00	4.496123e-01	5.088295e+14	1.152809e+15	3.661541e+14	1.621659e+04	5.479512e+03	2.973083e+03	0	1.106292e-03
7.600000e+08	2.423083e+13	0.000000e+00	4.496123e-01	5.013478e+14	1.140872e+15	3.644207e+14	1.617727e+04	5.474167e+03	2.970183e+03	0	1.097709e-03
7.700000e+08	2.367275e+13	0.000000e+00	4.496123e-01	4.940533e+14	1.129164e+15	3.626994e+14	1.613853e+04	5.468874e+03	2.967311e+03	0	1.089216e-03
7.800000e+08	2.312892e+13	0.000000e+00	4.496123e-01	4.869396e+14	1.117680e+15	3.609900e+14	1.610034e+04	5.463632e+03	2.964467e+03	0	1.080810e-03
7.900000e+08	2.259884e+13	0.000000e+00	4.496123e-01	4.800005e+14	1.106412e+15	3.592925e+14	1.606271e+04	5.458440e+03	2.961650e+03	0	1.072489e-03
8.000000e+08	2.208204e+13	0.000000e+00	4.496123e-01	4.732300e+14	1.095357e+15	3.576067e+14	1.602560e+04	5.453299e+03	2.958860e+03	0	1.064251e-03
8.100000e+08	2.157806e+13	0.000000e+00	4.496123e-01	4.666223e+14	1.084508e+15	3.559327e+14	1.598902e+04	5.448207e+03	2.956098e+03	0	1.056092e-03
8.200000e+08	2.108648e+13	0.000000e+00	4.496123e-01	4.601722e+14	1.073860e+15	3.542702e+14	1.595295e+04	5.443164e+03	2.953361e+03	0	1.048010e-03
8.300000e+08	2.060686e+13	0.000000e+00	4.496123e-01	4.538742e+14	1.063407e+15	3.526192e+14	1.591737e+04	5.438169e+03	2.950651e+03	0	1.040004e-03
8.400000e+08	2.013882e+13	0.000000e+00	4.496123e-01	4.477235e+14	1.053146e+15	3.509797e+14	1.588228e+04	5.433222e+03	2.947967e+03	0	1.032069e-03
8.500000e+08	1.968197e+13	0.000000e+00	4.496123e-01	4.417152e+14	1.043070e+15	3.493514e+14	1.584766e+04	5.428322e+03	2.945308e+03	0	1.024206e-03
8.600000e+08	1.923595e+13	0.000000e+00	4.496123e-01	4.358448e+14	1.033176e+15	3.477344e+14	1.581350e+04	5.423468e+03	2.942675e+03	0	1.016410e-03
8.700000e+08	1.880041e+13	0.000000e+00	4.496123e-01	4.301078e+14	1.023458e+15	3.461285e+14	1.577980e+04	5.418660e+03	2.940066e+03	0	1.008680e-03
8.800000e+08	1.837500e+13	0.000000e+00	4.496123e-01	4.245000e+14	1.013913e+15	3.445336e+14	1.574654e+04	5.413897e+03	2.937482e+03	0	1.001014e-03
8.900000e+08	1.795942e+13	0.000000e+00	4.496123e-01	4.190174e+14	1.004535e+15	3.429497e+14	1.571370e+04	5.409179e+03	2.934922e+03	0	9.934097e-04
9.000000e+08	1.755335e+13	0.000000e+00	4.496123e-01	4.136560e+14	9.953215e+14	3.413767e+14	1.568130e+04	5.404505e+03	2.932386e+03	0	9.858653e-04
9.100000e+08	1.715648e+13	0.000000e+00	4.496123e-01	4.084121e+14	9.862673e+14	3.398144e+14	1.564930e+04	5.399875e+03	2.929873e+03	0	9.783788e-04
9.200000e+08	1.676854e+13	0.000000e+00	4.496123e-01	4.032821e+14	9.773690e+14	3.382629e+14	1.561771e+04	5.395287e+03	2.927384e+03	0	9.709482e-04
9.300000e+08	1.638926e+13	0.000000e+00	4.496123e-01	3.982626e+14	9.686226e+14	3.367219e+14	1.558651e+04	5.390742e+03	2.924918e+03	0	9.635717e-04
9.400000e+08	1.601836e+13	0.000000e+00	4.496123e-01	3.933503e+14	9.600244e+14	3.351915e+14	1.555570e+04	5.386238e+03	2.922474e+03	0	9.562475e-04
9.500000e+08	1.565559e+13	0.000000e+00	4.496123e-01	3.885418e+14	9.515709e+14	3.336716e+14	1.552527e+04	5.381775e+03	2.920053e+03	0	9.489736e-04
9.600000e+08	1.530072e+13	0.000000e+00	4.496123e-01	3.838343e+14	9.432586e+14	3.321620e+14	1.549520e+04	5.377353e+03	2.917654e+03	0	9.417484e-04
9.700000e+08	1.495350e+13	0.000000e+00	4.496123e-01	3.792247e+14	9.350841e+14	3.306627e+14	1.546551e+04	5.372971e+03	2.915276e+03	0	9.345702e-04
9.800000e+08	1.461371e+13	0.000000e+00	4.496123e-01	3.747101e+14	9.270442e+14	3.291736e+14	1.543616e+04	5.368629e+03	2.912920e+03	0	9.274371e-04
9.900000e+08	1.428113e+13	0.000000e+00	4.496123e-01	3.702878e+14	9.191356e+14	3.276946e+14	1.540717e+04	5.364325e+03	2.910585e+03	0	9.203475e-04
1.000000e+09	1.395556e+13	0.000000e+00	4.496123e-01	3.659553e+14	9.113552e+14	3.262256e+14	1.537851e+04	5.360060e+03	2.908270e+03	0	9.132998e-04
1.010000e+09	1.363679e+13	0.000000e+00	4.496123e-01	3.617098e+14	9.037001e+14	3.247666e+14	1.535019e+04	5.355832e+03	2.905977e+03	0	9.062923e-04
1.020000e+09	1.332462e+13	0.000000e+00	4.496123e-01	3.575491e+14	8.961674e+14	3.233175e+14	1.532219e+04	5.351642e+03	2.903703e+03	0	8.993234e-04
1.030000e+09	1.301887e+13	0.000000e+00	4.496123e-01	3.534707e+14	8.887542e+14	3.218782e+14	1.529452e+04	5.347488e+03	2.901449e+03	0	8.923915e-04
1.040000e+09	1.271937e+13	0.000000e+00	4.496123e-01	3.494723e+14	8.814578e+14	3.204487e+14	1.526716e+04	5.343371e+03	2.899215e+03	0	8.854950e-04
1.050000e+09	1.242593e+13	0.000000e+00	4.496123e-01	3.455517e+14	8.742755e+14	3.190288e+14	1.524011e+04	5.339289e+03	2.897001e+03	0	8.786324e-04
1.060000e+09	1.213838e+13	0.000000e+00	4.496123e-01	3.417069e+14	8.672047e+14	3.176184e+14	1.521336e+04	5.335243e+03	2.894805e+03	0	8.718020e-04
1.070000e+09	1.185657e+13	0.000000e+00	4.496123e-01	3.379357e+14	8.602429e+14	3.162176e+14	1.518691e+04	5.331231e+03	2.892629e+03	0	8.650024e-04
1.080000e+09	1.158034e+13	0.000000e+00	4.496123e-01	3.342362e+14	8.533877e+14	3.148262e+14	1.516075e+04	5.327254e+03	2.890471e+03	0	8.582320e-04
1.090000e+09	1.130954e+13	0.000000e+00	4.496123e-01	3.306065e+14	8.466367e+14	3.134441e+14	1.513488e+04	5.323310e+03	2.888331e+03	0	8.514893e-04
1.100000e+09	1.104401e+13	0.000000e+00	4.496123e-01	3.270447e+14	8.399876e+14	3.120713e+14	1.510928e+04	5.319400e+03	2.886209e+03	0	8.447728e-04
1.110000e+09	1.078363e+13	0.000000e+00	4.496123e-01	3.235491e+14	8.334381e+14	3.107078e+14	1.508396e+04	5.315522e+03	2.884105e+03	0	8.380809e-04
1.120000e+09	1.052825e+13	0.000000e+00	4.496123e-01	3.201179e+14	8.269860e+14	3.093533e+14	1.505891e+04	5.311677e+03	2.882019e+03	0	8.314122e-04
1.130000e+09	1.027775e+13	0.000000e+00	4.496123e-01	3.167494e+14	8.206293e+14	3.080080e+14	1.503412e+04	5.307863e+03	2.879950e+03	0	8.247652e-04
1.140000e+09	1.003199e+13	0.000000e+00	4.496123e-01	3.134421e+14	8.143659e+14	3.066716e+14	1.500959e+04	5.304081e+03	2.877898e+03	0	8.181382e-04
1.150000e+09	9.790857e+12	0.000000e+00	4.496123e-01	3.101944e+14	8.081937e+14	3.053441e+14	1.498532e+04	5.300330e+03	2.875862e+03	0	8.115299e-04
1.160000e+09	9.554226e+12	0.000000e+00	4.496123e-01	3.070048e+14	8.021109e+14	3.040255e+14	1.496130e+04	5.296610e+03	2.873844e+03	0	8.049387e-04
1.170000e+09	9.321984e+12	0.000000e+00	4.496123e-01	3.038717e+14	7.961155e+14	3.027157e+14	1.493753e+04	5.292920e+03	2.871842e+03	0	7.983630e-04
1.180000e+09	9.094020e+12	0.000000e+00	4.496123e-01	3.007939e+14	7.902057e+14	3.014146e+14	1.491399e+04	5.289259e+03	2.869855e+03	0	7.918014e-04
1.190000e+09	8.870225e+12	0.000000e+00	4.496123e-01	2.977700e+14	7.843797e+14	3.001221e+14	1.489070e+04	5.285628e+03	2.867885e+03	0	7.852522e-04
1.200000e+09	8.650496e+12	0.000000e+00	4.496123e-01	2.947985e+14	7.786357e+14	2.988383e+14	1.486763e+04	5.282026e+03	2.865931e+03	0	7.787140e-04
1.210000e+09	8.434732e+12	0.000000e+00	4.496123e-01	2.918783e+14	7.729720e+14	2.975629e+14	1.484480e+04	5.278452e+03	2.863992e+03	0	7.721850e-04
1.220000e+09	8.222835e+12	0.000000e+00	4.496123e-01	2.890081e+14	7.673871e+14	2.962960e+14	1.482219e+04	5.274906e+03	2.862068e+03	0	7.656638e-04
1.230000e+09	8.014709e+12	0.000000e+00	4.496123e-01	2.861866e+14	7.618792e+14	2.950375e+14	1.479981e+04	5.271389e+03	2.860159e+03	0	7.591487e-04
1.240000e+09	7.810264e+12	0.000000e+00	4.496123e-01	2.834128e+14	7.564468e+14	2.937873e+14	1.477764e+04	5.267898e+03	2.858265e+03	0	7.526381e-04
1.250000e+09	7.609410e+12	0.000000e+00	4.496123e-01	2.806855e+14	7.510884e+14	2.925453e+14	1.475569e+04	5.264435e+03	2.856386e+03	0	7.461302e-04
1.260000e+09	7.412062e+12	0.000000e+00	4.496123e-01	2.780036e+14	7.458025e+14	2.913115e+14	1.473394e+04	5.260998e+03	2.854521e+03	0	7.396234e-04
1.270000e+09	7.218135e+12	0.000000e+00	4.496123e-01	2.753660e+14	7.405876e+14	2.900859e+14	1.471241e+04	5.257587e+03	2.852671e+03	0	7.331159e-04
1.280000e+09	7.027548e+12	0.000000e+00	4.496123e-01	2.727717e+14	7.354424e+14	2.888683e+14	1.469107e+04	5.254202e+03	2.850834e+03	0	7.266059e-04
1.290000e+09	6.840223e+12	0.000000e+00	4.496123e-01	2.702197e+14	7.303654e+14	2.876588e+14	1.466994e+04	5.250843e+03	2.849012e+03	0	7.200915e-04
1.300000e+09	6.656084e+12	0.000000e+00	4.496123e-01	2.677090e+14	7.253553e+14	2.864571e+14	1.464901e+04	5.247509e+03	2.847203e+03	0	7.135710e-04
1.310000e+09	6.475056e+12	0.000000e+00	4.496123e-01	2.652388e+14	7.204109e+14	2.852634e+14	1.462826e+04	5.244200e+03	2.845407e+03	0	7.070424e-04
1.320000e+09	6.297068e+12	0.000000e+00	4.496123e-01	2.628080e+14	7.155308e+14	2.840774e+14	1.460771e+04	5.240916e+03	2.843625e+03	0	7.005037e-04
1.330000e+09	6.122049e+12	0.000000e+00	4.496123e-01	2.604158e+14	7.107138e+14	2.828992e+14	1.458735e+04	5.237656e+03	2.841856e+03	0	6.939527e-04
1.340000e+09	5.949933e+12	0.000000e+00	4.496123e-01	2.580613e+14	7.059587e+14	2.817287e+14	1.456717e+04	5.234419e+03	2.840100e+03	0	6.873875e-04
1.350000e+09	5.780654e+12	0.000000e+00	4.496123e-01	2.557437e+14	7.012643e+14	2.805659e+14	1.454718e+04	5.231207e+03	2.838357e+03	0	6.808058e-04
1.360000e+09	5.614147e+12	0.000000e+00	4.496123e-01	2.534621e+14	6.966294e+14	2.794106e+14	1.452736e+04	5.228017e+03	2.836627e+03	0	6.742054e-04
