#t		Qconv[W]	Ri[Rp]		R*[Rp]		Qc[W]		Qm[W]		Qr[W]		Tcmb[K]		Tl[K]		Tup[K]		RiFlag		Bs[T]
0.000000e+00	1.124054e+14	0.000000e+00	7.712418e-01	1.872941e+15	1.488901e+15	5.243394e+13	1.064921e+04	3.948023e+03	2.113114e+03	0	1.405934e-03
1.000000e+07	1.056541e+14	0.000000e+00	7.712418e-01	1.761418e+15	1.599100e+15	5.214342e+13	1.046801e+04	4.018818e+03	2.151007e+03	0	1.377203e-03
2.000000e+07	9.948622e+13	0.000000e+00	7.712418e-01	1.659521e+15	1.638323e+15	5.185507e+13	1.029743e+04	4.053421e+03	2.169527e+03	0	1.349864e-03
3.000000e+07	9.386281e+13	0.000000e+00	7.712418e-01	1.566609e+15	1.631779e+15	5.156887e+13	1.013655e+04	4.065193e+03	2.175828e+03	0	1.323936e-03
4.000000e+07	8.872772e+13	0.000000e+00	7.712418e-01	1.481753e+15	1.598234e+15	5.128481e+13	9.984541e+03	4.062977e+03	2.174642e+03	0	1.299338e-03
5.000000e+07	8.402574e+13	0.000000e+00	7.712418e-01	1.404045e+15	1.550029e+15	5.100287e+13	9.840639e+03	4.052370e+03	2.168964e+03	0	1.275968e-03
6.000000e+07	7.970784e+13	0.000000e+00	7.712418e-01	1.332675e+15	1.494778e+15	5.072304e+13	9.704171e+03	4.036849e+03	2.160657e+03	0	1.253727e-03
7.000000e+07	7.573166e+13	0.000000e+00	7.712418e-01	1.266945e+15	1.437004e+15	5.044528e+13	9.574538e+03	4.018555e+03	2.150866e+03	0	1.232523e-03
8.000000e+07	7.206080e+13	0.000000e+00	7.712418e-01	1.206254e+15	1.379310e+15	5.016959e+13	9.451207e+03	3.998805e+03	2.140295e+03	0	1.212278e-03
9.000000e+07	6.866382e+13	0.000000e+00	7.712418e-01	1.150085e+15	1.323142e+15	4.989595e+13	9.333702e+03	3.978407e+03	2.129377e+03	0	1.192921e-03
1.000000e+08	6.551344e+13	0.000000e+00	7.712418e-01	1.097986e+15	1.269257e+15	4.962435e+13	9.221593e+03	3.957858e+03	2.118379e+03	0	1.174391e-03
1.100000e+08	6.258579e+13	0.000000e+00	7.712418e-01	1.049565e+15	1.218008e+15	4.935476e+13	9.114494e+03	3.937461e+03	2.107462e+03	0	1.156630e-03
1.200000e+08	5.985995e+13	0.000000e+00	7.712418e-01	1.004475e+15	1.169512e+15	4.908716e+13	9.012057e+03	3.917398e+03	2.096723e+03	0	1.139588e-03
1.300000e+08	5.731742e+13	0.000000e+00	7.712418e-01	9.624128e+14	1.123752e+15	4.882155e+13	8.913964e+03	3.897774e+03	2.086220e+03	0	1.123220e-03
1.400000e+08	5.494184e+13	0.000000e+00	7.712418e-01	9.231069e+14	1.080636e+15	4.855791e+13	8.819927e+03	3.878648e+03	2.075983e+03	0	1.107482e-03
1.500000e+08	5.271862e+13	0.000000e+00	7.712418e-01	8.863175e+14	1.040032e+15	4.829621e+13	8.729684e+03	3.860048e+03	2.066027e+03	0	1.092338e-03
1.600000e+08	5.063479e+13	0.000000e+00	7.712418e-01	8.518301e+14	1.001795e+15	4.803645e+13	8.642994e+03	3.841983e+03	2.056359e+03	0	1.077752e-03
1.700000e+08	4.867871e+13	0.000000e+00	7.712418e-01	8.194529e+14	9.657713e+14	4.777860e+13	8.559638e+03	3.824451e+03	2.046975e+03	0	1.063691e-03
1.800000e+08	4.683997e+13	0.000000e+00	7.712418e-01	7.890139e+14	9.318109e+14	4.752265e+13	8.479413e+03	3.807441e+03	2.037870e+03	0	1.050126e-03
1.900000e+08	4.510919e+13	0.000000e+00	7.712418e-01	7.603583e+14	8.997701e+14	4.726859e+13	8.402135e+03	3.790939e+03	2.029038e+03	0	1.037029e-03
2.000000e+08	4.347792e+13	0.000000e+00	7.712418e-01	7.333467e+14	8.695132e+14	4.701640e+13	8.327632e+03	3.774927e+03	2.020468e+03	0	1.024374e-03
2.100000e+08	4.193851e+13	0.000000e+00	7.712418e-01	7.078530e+14	8.409136e+14	4.676606e+13	8.255747e+03	3.759387e+03	2.012150e+03	0	1.012139e-03
2.200000e+08	4.048407e+13	0.000000e+00	7.712418e-01	6.837632e+14	8.138541e+14	4.651757e+13	8.186335e+03	3.744300e+03	2.004075e+03	0	1.000301e-03
2.300000e+08	3.910833e+13	0.000000e+00	7.712418e-01	6.609738e+14	7.882262e+14	4.627089e+13	8.119260e+03	3.729648e+03	1.996233e+03	0	9.888389e-04
2.400000e+08	3.780558e+13	0.000000e+00	7.712418e-01	6.393909e+14	7.639303e+14	4.602602e+13	8.054398e+03	3.715411e+03	1.988613e+03	0	9.777349e-04
2.500000e+08	3.657065e+13	0.000000e+00	7.712418e-01	6.189287e+14	7.408745e+14	4.578295e+13	7.991632e+03	3.701573e+03	1.981206e+03	0	9.669708e-04
2.600000e+08	3.539880e+13	0.000000e+00	7.712418e-01	5.995092e+14	7.189744e+14	4.554166e+13	7.930855e+03	3.688116e+03	1.974003e+03	0	9.565302e-04
2.700000e+08	3.428572e+13	0.000000e+00	7.712418e-01	5.810611e+14	6.981526e+14	4.530213e+13	7.871967e+03	3.675023e+03	1.966996e+03	0	9.463975e-04
2.800000e+08	3.322744e+13	0.000000e+00	7.712418e-01	5.635190e+14	6.783376e+14	4.506435e+13	7.814873e+03	3.662279e+03	1.960175e+03	0	9.365583e-04
2.900000e+08	3.222035e+13	0.000000e+00	7.712418e-01	5.468231e+14	6.594640e+14	4.482830e+13	7.759487e+03	3.649870e+03	1.953533e+03	0	9.269990e-04
3.000000e+08	3.126112e+13	0.000000e+00	7.712418e-01	5.309185e+14	6.414712e+14	4.459398e+13	7.705727e+03	3.637780e+03	1.947062e+03	0	9.177069e-04
3.100000e+08	3.034669e+13	0.000000e+00	7.712418e-01	5.157547e+14	6.243037e+14	4.436136e+13	7.653516e+03	3.625997e+03	1.940756e+03	0	9.086701e-04
3.200000e+08	2.947424e+13	0.000000e+00	7.712418e-01	5.012852e+14	6.079101e+14	4.413044e+13	7.602783e+03	3.614508e+03	1.934606e+03	0	8.998774e-04
3.300000e+08	2.864118e+13	0.000000e+00	7.712418e-01	4.874671e+14	5.922430e+14	4.390119e+13	7.553461e+03	3.603302e+03	1.928608e+03	0	8.913182e-04
3.400000e+08	2.784512e+13	0.000000e+00	7.712418e-01	4.742607e+14	5.772586e+14	4.367361e+13	7.505486e+03	3.592366e+03	1.922755e+03	0	8.829826e-04
3.500000e+08	2.708383e+13	0.000000e+00	7.712418e-01	4.616297e+14	5.629163e+14	4.344768e+13	7.458800e+03	3.581690e+03	1.917041e+03	0	8.748612e-04
3.600000e+08	2.635527e+13	0.000000e+00	7.712418e-01	4.495400e+14	5.491786e+14	4.322339e+13	7.413348e+03	3.571264e+03	1.911461e+03	0	8.669451e-04
3.700000e+08	2.565753e+13	0.000000e+00	7.712418e-01	4.379603e+14	5.360107e+14	4.300072e+13	7.369075e+03	3.561078e+03	1.906009e+03	0	8.592261e-04
3.800000e+08	2.498887e+13	0.000000e+00	7.712418e-01	4.268615e+14	5.233801e+14	4.277967e+13	7.325934e+03	3.551124e+03	1.900681e+03	0	8.516962e-04
3.900000e+08	2.434764e+13	0.000000e+00	7.712418e-01	4.162165e+14	5.112570e+14	4.256021e+13	7.283877e+03	3.541391e+03	1.895472e+03	0	8.443479e-04
4.000000e+08	2.373231e+13	0.000000e+00	7.712418e-01	4.060003e+14	4.996133e+14	4.234234e+13	7.242861e+03	3.531873e+03	1.890377e+03	0	8.371742e-04
4.100000e+08	2.314148e+13	0.000000e+00	7.712418e-01	3.961894e+14	4.884231e+14	4.212603e+13	7.202844e+03	3.522561e+03	1.885393e+03	0	8.301684e-04
4.200000e+08	2.257382e+13	0.000000e+00	7.712418e-01	3.867620e+14	4.776619e+14	4.191129e+13	7.163786e+03	3.513448e+03	1.880515e+03	0	8.233242e-04
4.300000e+08	2.202811e+13	0.000000e+00	7.712418e-01	3.776978e+14	4.673074e+14	4.169810e+13	7.125651e+03	3.504527e+03	1.875740e+03	0	8.166354e-04
4.400000e+08	2.150319e+13	0.000000e+00	7.712418e-01	3.689778e+14	4.573382e+14	4.148643e+13	7.088403e+03	3.495790e+03	1.871065e+03	0	8.100965e-04
4.500000e+08	2.099799e+13	0.000000e+00	7.712418e-01	3.605842e+14	4.477346e+14	4.127629e+13	7.052008e+03	3.487233e+03	1.866484e+03	0	8.037020e-04
4.600000e+08	2.051150e+13	0.000000e+00	7.712418e-01	3.525004e+14	4.384782e+14	4.106766e+13	7.016436e+03	3.478847e+03	1.861996e+03	0	7.974466e-04
4.700000e+08	2.004279e+13	0.000000e+00	7.712418e-01	3.447109e+14	4.295516e+14	4.086052e+13	6.981655e+03	3.470629e+03	1.857597e+03	0	7.913256e-04
4.800000e+08	1.959097e+13	0.000000e+00	7.712418e-01	3.372011e+14	4.209386e+14	4.065487e+13	6.947637e+03	3.462572e+03	1.853285e+03	0	7.853341e-04
4.900000e+08	1.915522e+13	0.000000e+00	7.712418e-01	3.299574e+14	4.126240e+14	4.045069e+13	6.914355e+03	3.454670e+03	1.849055e+03	0	7.794678e-04
5.000000e+08	1.873475e+13	0.000000e+00	7.712418e-01	3.229668e+14	4.045934e+14	4.024797e+13	6.881783e+03	3.446919e+03	1.844907e+03	0	7.737224e-04
5.100000e+08	1.832885e+13	0.000000e+00	7.712418e-01	3.162174e+14	3.968334e+14	4.004670e+13	6.849897e+03	3.439314e+03	1.840836e+03	0	7.680938e-04
5.200000e+08	1.793683e+13	0.000000e+00	7.712418e-01	3.096979e+14	3.893315e+14	3.984686e+13	6.818672e+03	3.431850e+03	1.836842e+03	0	7.625782e-04
5.300000e+08	1.755803e+13	0.000000e+00	7.712418e-01	3.033975e+14	3.820756e+14	3.964845e+13	6.788087e+03	3.424523e+03	1.832920e+03	0	7.571718e-04
5.400000e+08	1.719186e+13	0.000000e+00	7.712418e-01	2.973062e+14	3.750547e+14	3.945146e+13	6.758120e+03	3.417329e+03	1.829069e+03	0	7.518712e-04
5.500000e+08	1.683774e+13	0.000000e+00	7.712418e-01	2.914145e+14	3.682581e+14	3.925586e+13	6.728751e+03	3.410263e+03	1.825288e+03	0	7.466729e-04
5.600000e+08	1.649513e+13	0.000000e+00	7.712418e-01	2.857135e+14	3.616759e+14	3.906166e+13	6.699960e+03	3.403322e+03	1.821572e+03	0	7.415738e-04
5.700000e+08	1.616352e+13	0.000000e+00	7.712418e-01	2.801948e+14	3.552986e+14	3.886883e+13	6.671729e+03	3.396502e+03	1.817922e+03	0	7.365707e-04
5.800000e+08	1.584243e+13	0.000000e+00	7.712418e-01	2.748505e+14	3.491175e+14	3.867737e+13	6.644039e+03	3.389799e+03	1.814335e+03	0	7.316607e-04
5.900000e+08	1.553140e+13	0.000000e+00	7.712418e-01	2.696729e+14	3.431240e+14	3.848727e+13	6.616875e+03	3.383210e+03	1.810808e+03	0	7.268409e-04
6.000000e+08	1.523001e+13	0.000000e+00	7.712418e-01	2.646550e+14	3.373103e+14	3.829852e+13	6.590219e+03	3.376732e+03	1.807341e+03	0	7.221086e-04
6.100000e+08	1.493784e+13	0.000000e+00	7.712418e-01	2.597901e+14	3.316688e+14	3.811110e+13	6.564056e+03	3.370361e+03	1.803931e+03	0	7.174612e-04
6.200000e+08	1.465452e+13	0.000000e+00	7.712418e-01	2.550717e+14	3.261925e+14	3.792500e+13	6.538371e+03	3.364095e+03	1.800577e+03	0	7.128963e-04
6.300000e+08	1.437967e+13	0.000000e+00	7.712418e-01	2.504938e+14	3.208745e+14	3.774022e+13	6.513150e+03	3.357930e+03	1.797277e+03	0	7.084113e-04
6.400000e+08	1.411296e+13	0.000000e+00	7.712418e-01	2.460508e+14	3.157085e+14	3.755674e+13	6.488379e+03	3.351864e+03	1.794030e+03	0	7.040041e-04
6.500000e+08	1.385405e+13	0.000000e+00	7.712418e-01	2.417371e+14	3.106884e+14	3.737456e+13	6.464045e+03	3.345894e+03	1.790835e+03	0	6.996723e-04
6.600000e+08	1.360262e+13	0.000000e+00	7.712418e-01	2.375476e+14	3.058085e+14	3.719365e+13	6.440134e+03	3.340017e+03	1.787690e+03	0	6.954139e-04
6.700000e+08	1.335839e+13	0.000000e+00	7.712418e-01	2.334774e+14	3.010632e+14	3.701402e+13	6.416636e+03	3.334232e+03	1.784593e+03	0	6.912268e-04
6.800000e+08	1.312108e+13	0.000000e+00	7.712418e-01	2.295219e+14	2.964473e+14	3.683565e+13	6.393539e+03	3.328534e+03	1.781543e+03	0	6.871091e-04
6.900000e+08	1.289041e+13	0.000000e+00	7.712418e-01	2.256765e+14	2.919560e+14	3.665853e+13	6.370830e+03	3.322923e+03	1.778540e+03	0	6.830587e-04
7.000000e+08	1.266613e+13	0.000000e+00	7.712418e-01	2.219372e+14	2.875845e+14	3.648265e+13	6.348500e+03	3.317396e+03	1.775582e+03	0	6.790740e-04
7.100000e+08	1.244800e+13	0.000000e+00	7.712418e-01	2.182999e+14	2.833282e+14	3.630801e+13	6.326538e+03	3.311951e+03	1.772667e+03	0	6.751532e-04
7.200000e+08	1.223579e+13	0.000000e+00	7.712418e-01	2.147608e+14	2.791831e+14	3.613458e+13	6.304933e+03	3.306585e+03	1.769795e+03	0	6.712945e-04
7.300000e+08	1.202927e+13	0.000000e+00	7.712418e-01	2.113162e+14	2.751449e+14	3.596237e+13	6.283678e+03	3.301297e+03	1.766965e+03	0	6.674964e-04
7.400000e+08	1.182825e+13	0.000000e+00	7.712418e-01	2.079627e+14	2.712098e+14	3.579136e+13	6.262761e+03	3.296085e+03	1.764175e+03	0	6.637572e-04
7.500000e+08	1.163251e+13	0.000000e+00	7.712418e-01	2.046969e+14	2.673741e+14	3.562154e+13	6.242174e+03	3.290947e+03	1.761425e+03	0	6.600755e-04
7.600000e+08	1.144187e+13	0.000000e+00	7.712418e-01	2.015157e+14	2.636342e+14	3.545291e+13	6.221910e+03	3.285881e+03	1.758714e+03	0	6.564498e-04
7.700000e+08	1.125615e+13	0.000000e+00	7.712418e-01	1.984162e+14	2.599869e+14	3.528544e+13	6.201958e+03	3.280885e+03	1.756040e+03	0	6.528786e-04
7.800000e+08	1.107517e+13	0.000000e+00	7.712418e-01	1.953954e+14	2.564288e+14	3.511915e+13	6.182312e+03	3.275957e+03	1.753403e+03	0	6.493606e-04
7.900000e+08	1.089877e+13	0.000000e+00	7.712418e-01	1.924505e+14	2.529569e+14	3.495400e+13	6.162963e+03	3.271097e+03	1.750801e+03	0	6.458946e-04
8.000000e+08	1.072678e+13	0.000000e+00	7.712418e-01	1.895790e+14	2.495682e+14	3.479000e+13	6.143905e+03	3.266303e+03	1.748235e+03	0	6.424791e-04
8.100000e+08	1.055907e+13	0.000000e+00	7.712418e-01	1.867783e+14	2.462600e+14	3.462714e+13	6.125129e+03	3.261572e+03	1.745703e+03	0	6.391130e-04
8.200000e+08	1.039547e+13	0.000000e+00	7.712418e-01	1.840461e+14	2.430295e+14	3.446541e+13	6.106630e+03	3.256903e+03	1.743204e+03	0	6.357951e-04
8.300000e+08	1.023586e+13	0.000000e+00	7.712418e-01	1.813799e+14	2.398742e+14	3.430479e+13	6.088400e+03	3.252296e+03	1.740738e+03	0	6.325243e-04
8.400000e+08	1.008009e+13	0.000000e+00	7.712418e-01	1.787777e+14	2.367916e+14	3.414528e+13	6.070432e+03	3.247748e+03	1.738304e+03	0	6.292994e-04
8.500000e+08	9.928047e+12	0.000000e+00	7.712418e-01	1.762373e+14	2.337792e+14	3.398688e+13	6.052721e+03	3.243259e+03	1.735901e+03	0	6.261193e-04
8.600000e+08	9.779604e+12	0.000000e+00	7.712418e-01	1.737567e+14	2.308350e+14	3.382956e+13	6.035261e+03	3.238826e+03	1.733529e+03	0	6.229831e-04
8.700000e+08	9.634644e+12	0.000000e+00	7.712418e-01	1.713340e+14	2.279566e+14	3.367333e+13	6.018045e+03	3.234449e+03	1.731186e+03	0	6.198896e-04
8.800000e+08	9.493054e+12	0.000000e+00	7.712418e-01	1.689672e+14	2.251420e+14	3.351817e+13	6.001069e+03	3.230127e+03	1.728873e+03	0	6.168380e-04
8.900000e+08	9.354727e+12	0.000000e+00	7.712418e-01	1.666547e+14	2.223892e+14	3.336408e+13	5.984325e+03	3.225858e+03	1.726588e+03	0	6.138273e-04
9.000000e+08	9.219559e+12	0.000000e+00	7.712418e-01	1.643946e+14	2.196962e+14	3.321105e+13	5.967810e+03	3.221641e+03	1.724331e+03	0	6.108565e-04
9.100000e+08	9.087452e+12	0.000000e+00	7.712418e-01	1.621854e+14	2.170613e+14	3.305907e+13	5.951518e+03	3.217476e+03	1.722101e+03	0	6.079248e-04
9.200000e+08	8.958311e+12	0.000000e+00	7.712418e-01	1.600255e+14	2.144826e+14	3.290812e+13	5.935444e+03	3.213360e+03	1.719898e+03	0	6.050313e-04
9.300000e+08	8.832043e+12	0.000000e+00	7.712418e-01	1.579133e+14	2.119585e+14	3.275821e+13	5.919582e+03	3.209293e+03	1.717721e+03	0	6.021752e-04
9.400000e+08	8.708561e+12	0.000000e+00	7.712418e-01	1.558475e+14	2.094873e+14	3.260933e+13	5.903930e+03	3.205274e+03	1.715570e+03	0	5.993557e-04
9.500000e+08	8.587780e+12	0.000000e+00	7.712418e-01	1.538265e+14	2.070674e+14	3.246146e+13	5.888481e+03	3.201302e+03	1.713444e+03	0	5.965719e-04
9.600000e+08	8.469620e+12	0.000000e+00	7.712418e-01	1.518491e+14	2.046973e+14	3.231459e+13	5.873231e+03	3.197376e+03	1.711343e+03	0	5.938231e-04
9.700000e+08	8.354001e+12	0.000000e+00	7.712418e-01	1.499139e+14	2.023756e+14	3.216873e+13	5.858177e+03	3.193495e+03	1.709266e+03	0	5.911087e-04
9.800000e+08	8.240849e+12	0.000000e+00	7.712418e-01	1.480198e+14	2.001009e+14	3.202386e+13	5.843314e+03	3.189658e+03	1.707212e+03	0	5.884277e-04
9.900000e+08	8.130092e+12	0.000000e+00	7.712418e-01	1.461655e+14	1.978718e+14	3.187998e+13	5.828638e+03	3.185864e+03	1.705182e+03	0	5.857797e-04
1.000000e+09	8.021659e+12	0.000000e+00	7.712418e-01	1.443498e+14	1.956870e+14	3.173707e+13	5.814145e+03	3.182113e+03	1.703174e+03	0	5.831638e-04
1.010000e+09	7.915483e+12	0.000000e+00	7.712418e-01	1.425716e+14	1.935452e+14	3.159513e+13	5.799831e+03	3.178403e+03	1.701188e+03	0	5.805794e-04
1.020000e+09	7.811501e+12	0.000000e+00	7.712418e-01	1.408300e+14	1.914453e+14	3.145416e+13	5.785693e+03	3.174734e+03	1.699224e+03	0	5.780259e-04
1.030000e+09	7.709648e+12	0.000000e+00	7.712418e-01	1.391237e+14	1.893861e+14	3.131413e+13	5.771727e+03	3.171105e+03	1.697282e+03	0	5.755027e-04
1.040000e+09	7.609866e+12	0.000000e+00	7.712418e-01	1.374519e+14	1.873664e+14	3.117506e+13	5.757929e+03	3.167515e+03	1.695360e+03	0	5.730091e-04
1.050000e+09	7.512096e+12	0.000000e+00	7.712418e-01	1.358136e+14	1.853852e+14	3.103692e+13	5.744297e+03	3.163963e+03	1.693459e+03	0	5.705445e-04
1.060000e+09	7.416283e+12	0.000000e+00	7.712418e-01	1.342079e+14	1.834414e+14	3.089971e+13	5.730826e+03	3.160449e+03	1.691579e+03	0	5.681084e-04
1.070000e+09	7.322372e+12	0.000000e+00	7.712418e-01	1.326337e+14	1.815341e+14	3.076343e+13	5.717514e+03	3.156972e+03	1.689718e+03	0	5.657003e-04
1.080000e+09	7.230312e+12	0.000000e+00	7.712418e-01	1.310904e+14	1.796622e+14	3.062807e+13	5.704357e+03	3.153532e+03	1.687876e+03	0	5.633196e-04
1.090000e+09	7.140052e+12	0.000000e+00	7.712418e-01	1.295771e+14	1.778249e+14	3.049361e+13	5.691353e+03	3.150127e+03	1.686054e+03	0	5.609657e-04
1.100000e+09	7.051544e+12	0.000000e+00	7.712418e-01	1.280928e+14	1.760211e+14	3.036006e+13	5.678499e+03	3.146757e+03	1.684250e+03	0	5.586381e-04
1.110000e+09	6.964740e+12	0.000000e+00	7.712418e-01	1.266370e+14	1.742500e+14	3.022740e+13	5.665791e+03	3.143421e+03	1.682465e+03	0	5.563364e-04
1.120000e+09	6.879596e+12	0.000000e+00	7.712418e-01	1.252088e+14	1.725109e+14	3.009564e+13	5.653227e+03	3.140120e+03	1.680698e+03	0	5.540600e-04
1.130000e+09	6.796068e+12	0.000000e+00	7.712418e-01	1.238075e+14	1.708028e+14	2.996475e+13	5.640804e+03	3.136851e+03	1.678948e+03	0	5.518085e-04
1.140000e+09	6.714114e+12	0.000000e+00	7.712418e-01	1.224324e+14	1.691249e+14	2.983474e+13	5.628520e+03	3.133615e+03	1.677216e+03	0	5.495814e-04
1.150000e+09	6.633693e+12	0.000000e+00	7.712418e-01	1.210828e+14	1.674766e+14	2.970560e+13	5.616371e+03	3.130410e+03	1.675501e+03	0	5.473783e-04
1.160000e+09	6.554764e+12	0.000000e+00	7.712418e-01	1.197581e+14	1.658570e+14	2.957732e+13	5.604357e+03	3.127237e+03	1.673803e+03	0	5.451987e-04
1.170000e+09	6.477291e+12	0.000000e+00	7.712418e-01	1.184575e+14	1.642655e+14	2.944989e+13	5.592473e+03	3.124095e+03	1.672121e+03	0	5.430422e-04
1.180000e+09	6.401235e+12	0.000000e+00	7.712418e-01	1.171807e+14	1.627013e+14	2.932331e+13	5.580717e+03	3.120984e+03	1.670455e+03	0	5.409084e-04
1.190000e+09	6.326562e+12	0.000000e+00	7.712418e-01	1.159268e+14	1.611638e+14	2.919758e+13	5.569088e+03	3.117902e+03	1.668806e+03	0	5.387969e-04
1.200000e+09	6.253236e+12	0.000000e+00	7.712418e-01	1.146954e+14	1.596523e+14	2.907267e+13	5.557583e+03	3.114849e+03	1.667172e+03	0	5.367072e-04
1.210000e+09	6.181224e+12	0.000000e+00	7.712418e-01	1.134858e+14	1.581662e+14	2.894860e+13	5.546200e+03	3.111825e+03	1.665553e+03	0	5.346390e-04
1.220000e+09	6.110494e+12	0.000000e+00	7.712418e-01	1.122976e+14	1.567049e+14	2.882535e+13	5.534936e+03	3.108830e+03	1.663950e+03	0	5.325919e-04
1.230000e+09	6.041013e+12	0.000000e+00	7.712418e-01	1.111303e+14	1.552677e+14	2.870291e+13	5.523790e+03	3.105862e+03	1.662362e+03	0	5.305656e-04
1.240000e+09	5.972752e+12	0.000000e+00	7.712418e-01	1.099832e+14	1.538542e+14	2.858128e+13	5.512759e+03	3.102921e+03	1.660788e+03	0	5.285596e-04
1.250000e+09	5.905681e+12	0.000000e+00	7.712418e-01	1.088560e+14	1.524638e+14	2.846046e+13	5.501841e+03	3.100008e+03	1.659228e+03	0	5.265737e-04
1.260000e+09	5.839771e+12	0.000000e+00	7.712418e-01	1.077482e+14	1.510958e+14	2.834043e+13	5.491036e+03	3.097121e+03	1.657683e+03	0	5.246074e-04
1.270000e+09	5.774995e+12	0.000000e+00	7.712418e-01	1.066592e+14	1.497499e+14	2.822119e+13	5.480339e+03	3.094260e+03	1.656152e+03	0	5.226605e-04
1.280000e+09	5.711326e+12	0.000000e+00	7.712418e-01	1.055887e+14	1.484254e+14	2.810274e+13	5.469751e+03	3.091425e+03	1.654634e+03	0	5.207326e-04
1.290000e+09	5.648736e+12	0.000000e+00	7.712418e-01	1.045362e+14	1.471220e+14	2.798507e+13	5.459268e+03	3.088615e+03	1.653130e+03	0	5.188234e-04
1.300000e+09	5.587203e+12	0.000000e+00	7.712418e-01	1.035012e+14	1.458391e+14	2.786817e+13	5.448890e+03	3.085829e+03	1.651640e+03	0	5.169326e-04
1.310000e+09	5.526699e+12	0.000000e+00	7.712418e-01	1.024835e+14	1.445762e+14	2.775203e+13	5.438614e+03	3.083068e+03	1.650162e+03	0	5.150599e-04
1.320000e+09	5.467203e+12	0.000000e+00	7.712418e-01	1.014825e+14	1.433330e+14	2.763666e+13	5.428439e+03	3.080332e+03	1.648697e+03	0	5.132050e-04
1.330000e+09	5.408690e+12	0.000000e+00	7.712418e-01	1.004980e+14	1.421089e+14	2.752203e+13	5.418362e+03	3.077618e+03	1.647245e+03	0	5.113676e-04
1.340000e+09	5.351138e+12	0.000000e+00	7.712418e-01	9.952948e+13	1.409035e+14	2.740816e+13	5.408383e+03	3.074928e+03	1.645805e+03	0	5.095473e-04
1.350000e+09	5.294526e+12	0.000000e+00	7.712418e-01	9.857662e+13	1.397165e+14	2.729503e+13	5.398501e+03	3.072261e+03	1.644378e+03	0	5.077441e-04
1.360000e+09	5.238832e+12	0.000000e+00	7.712418e-01	9.763908e+13	1.385475e+14	2.718264e+13	5.388712e+03	3.069617e+03	1.642962e+03	0	5.059574e-04
