#t		Qconv[W]	Ri[Rp]		R*[Rp]		Qc[W]		Qm[W]		Qr[W]		Tcmb[K]		Tl[K]		Tup[K]		RiFlag		Bs[T]
0.000000e+00	2.815604e+14	0.000000e+00	7.581699e-01	3.548577e+15	2.121218e+15	9.221739e+13	1.323810e+04	4.558870e+03	2.274721e+03	0	1.874920e-03
1.000000e+07	2.678852e+14	0.000000e+00	7.581699e-01	3.379051e+15	2.481675e+15	9.170644e+13	1.304907e+04	4.709791e+03	2.350026e+03	0	1.844061e-03
2.000000e+07	2.548332e+14	0.000000e+00	7.581699e-01	3.217252e+15	2.714995e+15	9.119931e+13	1.286894e+04	4.806863e+03	2.398461e+03	0	1.813612e-03
3.000000e+07	2.425772e+14	0.000000e+00	7.581699e-01	3.065306e+15	2.841307e+15	9.069596e+13	1.269733e+04	4.864723e+03	2.427332e+03	0	1.784058e-03
4.000000e+07	2.311478e+14	0.000000e+00	7.581699e-01	2.923584e+15	2.888413e+15	9.019638e+13	1.253371e+04	4.895316e+03	2.442597e+03	0	1.755587e-03
5.000000e+07	2.205115e+14	0.000000e+00	7.581699e-01	2.791672e+15	2.881441e+15	8.970053e+13	1.237756e+04	4.907493e+03	2.448672e+03	0	1.728234e-03
6.000000e+07	2.106112e+14	0.000000e+00	7.581699e-01	2.668865e+15	2.839671e+15	8.920836e+13	1.222836e+04	4.907469e+03	2.448660e+03	0	1.701973e-03
7.000000e+07	2.013855e+14	0.000000e+00	7.581699e-01	2.554404e+15	2.776708e+15	8.871987e+13	1.208565e+04	4.899482e+03	2.444675e+03	0	1.676750e-03
8.000000e+07	1.927755e+14	0.000000e+00	7.581699e-01	2.447558e+15	2.701710e+15	8.823501e+13	1.194898e+04	4.886375e+03	2.438135e+03	0	1.652505e-03
9.000000e+07	1.847271e+14	0.000000e+00	7.581699e-01	2.347662e+15	2.620659e+15	8.775375e+13	1.181795e+04	4.870042e+03	2.429986e+03	0	1.629180e-03
1.000000e+08	1.771918e+14	0.000000e+00	7.581699e-01	2.254115e+15	2.537376e+15	8.727607e+13	1.169221e+04	4.851741e+03	2.420854e+03	0	1.606720e-03
1.100000e+08	1.701261e+14	0.000000e+00	7.581699e-01	2.166381e+15	2.454257e+15	8.680193e+13	1.157142e+04	4.832306e+03	2.411157e+03	0	1.585073e-03
1.200000e+08	1.634912e+14	0.000000e+00	7.581699e-01	2.083978e+15	2.372763e+15	8.633130e+13	1.145528e+04	4.812293e+03	2.401171e+03	0	1.564193e-03
1.300000e+08	1.572521e+14	0.000000e+00	7.581699e-01	2.006476e+15	2.293753e+15	8.586416e+13	1.134351e+04	4.792069e+03	2.391080e+03	0	1.544037e-03
1.400000e+08	1.513775e+14	0.000000e+00	7.581699e-01	1.933485e+15	2.217700e+15	8.540048e+13	1.123585e+04	4.771878e+03	2.381005e+03	0	1.524565e-03
1.500000e+08	1.458390e+14	0.000000e+00	7.581699e-01	1.864657e+15	2.144829e+15	8.494022e+13	1.113206e+04	4.751878e+03	2.371026e+03	0	1.505741e-03
1.600000e+08	1.406111e+14	0.000000e+00	7.581699e-01	1.799675e+15	2.075211e+15	8.448337e+13	1.103193e+04	4.732173e+03	2.361194e+03	0	1.487529e-03
1.700000e+08	1.356706e+14	0.000000e+00	7.581699e-01	1.738253e+15	2.008817e+15	8.402988e+13	1.093525e+04	4.712829e+03	2.351542e+03	0	1.469899e-03
1.800000e+08	1.309965e+14	0.000000e+00	7.581699e-01	1.680131e+15	1.945563e+15	8.357974e+13	1.084183e+04	4.693883e+03	2.342088e+03	0	1.452821e-03
1.900000e+08	1.265697e+14	0.000000e+00	7.581699e-01	1.625072e+15	1.885328e+15	8.313292e+13	1.075151e+04	4.675358e+03	2.332845e+03	0	1.436268e-03
2.000000e+08	1.223727e+14	0.000000e+00	7.581699e-01	1.572860e+15	1.827973e+15	8.268938e+13	1.066412e+04	4.657264e+03	2.323817e+03	0	1.420214e-03
2.100000e+08	1.183897e+14	0.000000e+00	7.581699e-01	1.523300e+15	1.773353e+15	8.224910e+13	1.057951e+04	4.639601e+03	2.315004e+03	0	1.404635e-03
2.200000e+08	1.146060e+14	0.000000e+00	7.581699e-01	1.476211e+15	1.721320e+15	8.181206e+13	1.049754e+04	4.622367e+03	2.306404e+03	0	1.389509e-03
2.300000e+08	1.110085e+14	0.000000e+00	7.581699e-01	1.431428e+15	1.671729e+15	8.137822e+13	1.041808e+04	4.605553e+03	2.298014e+03	0	1.374815e-03
2.400000e+08	1.075847e+14	0.000000e+00	7.581699e-01	1.388800e+15	1.624438e+15	8.094757e+13	1.034100e+04	4.589149e+03	2.289830e+03	0	1.360533e-03
2.500000e+08	1.043236e+14	0.000000e+00	7.581699e-01	1.348188e+15	1.579316e+15	8.052007e+13	1.026621e+04	4.573145e+03	2.281844e+03	0	1.346645e-03
2.600000e+08	1.012148e+14	0.000000e+00	7.581699e-01	1.309465e+15	1.536235e+15	8.009570e+13	1.019357e+04	4.557529e+03	2.274052e+03	0	1.333133e-03
2.700000e+08	9.824868e+13	0.000000e+00	7.581699e-01	1.272511e+15	1.495076e+15	7.967443e+13	1.012301e+04	4.542287e+03	2.266447e+03	0	1.319982e-03
2.800000e+08	9.541657e+13	0.000000e+00	7.581699e-01	1.237219e+15	1.455727e+15	7.925624e+13	1.005442e+04	4.527408e+03	2.259023e+03	0	1.307174e-03
2.900000e+08	9.271032e+13	0.000000e+00	7.581699e-01	1.203488e+15	1.418083e+15	7.884110e+13	9.987720e+03	4.512878e+03	2.251773e+03	0	1.294698e-03
3.000000e+08	9.012242e+13	0.000000e+00	7.581699e-01	1.171226e+15	1.382047e+15	7.842898e+13	9.922820e+03	4.498686e+03	2.244692e+03	0	1.282537e-03
3.100000e+08	8.764594e+13	0.000000e+00	7.581699e-01	1.140346e+15	1.347527e+15	7.801987e+13	9.859645e+03	4.484819e+03	2.237773e+03	0	1.270680e-03
3.200000e+08	8.527443e+13	0.000000e+00	7.581699e-01	1.110768e+15	1.314438e+15	7.761373e+13	9.798123e+03	4.471267e+03	2.231010e+03	0	1.259115e-03
3.300000e+08	8.300190e+13	0.000000e+00	7.581699e-01	1.082419e+15	1.282700e+15	7.721055e+13	9.738183e+03	4.458017e+03	2.224399e+03	0	1.247829e-03
3.400000e+08	8.082281e+13	0.000000e+00	7.581699e-01	1.055229e+15	1.252238e+15	7.681030e+13	9.679762e+03	4.445059e+03	2.217934e+03	0	1.236812e-03
3.500000e+08	7.873199e+13	0.000000e+00	7.581699e-01	1.029135e+15	1.222984e+15	7.641295e+13	9.622796e+03	4.432383e+03	2.211609e+03	0	1.226053e-03
3.600000e+08	7.672461e+13	0.000000e+00	7.581699e-01	1.004077e+15	1.194873e+15	7.601848e+13	9.567227e+03	4.419979e+03	2.205420e+03	0	1.215544e-03
3.700000e+08	7.479621e+13	0.000000e+00	7.581699e-01	9.800000e+14	1.167844e+15	7.562687e+13	9.513002e+03	4.407837e+03	2.199361e+03	0	1.205273e-03
3.800000e+08	7.294258e+13	0.000000e+00	7.581699e-01	9.568512e+14	1.141840e+15	7.523809e+13	9.460067e+03	4.395949e+03	2.193429e+03	0	1.195233e-03
3.900000e+08	7.115982e+13	0.000000e+00	7.581699e-01	9.345827e+14	1.116809e+15	7.485212e+13	9.408373e+03	4.384306e+03	2.187620e+03	0	1.185415e-03
4.000000e+08	6.944428e+13	0.000000e+00	7.581699e-01	9.131490e+14	1.092700e+15	7.446894e+13	9.357874e+03	4.372898e+03	2.181928e+03	0	1.175812e-03
4.100000e+08	6.779254e+13	0.000000e+00	7.581699e-01	8.925079e+14	1.069468e+15	7.408852e+13	9.308524e+03	4.361720e+03	2.176350e+03	0	1.166415e-03
4.200000e+08	6.620139e+13	0.000000e+00	7.581699e-01	8.726196e+14	1.047070e+15	7.371085e+13	9.260282e+03	4.350762e+03	2.170882e+03	0	1.157217e-03
4.300000e+08	6.466783e+13	0.000000e+00	7.581699e-01	8.534469e+14	1.025463e+15	7.333589e+13	9.213107e+03	4.340018e+03	2.165521e+03	0	1.148211e-03
4.400000e+08	6.318904e+13	0.000000e+00	7.581699e-01	8.349549e+14	1.004610e+15	7.296363e+13	9.166962e+03	4.329480e+03	2.160264e+03	0	1.139391e-03
4.500000e+08	6.176239e+13	0.000000e+00	7.581699e-01	8.171109e+14	9.844743e+14	7.259405e+13	9.121809e+03	4.319143e+03	2.155106e+03	0	1.130751e-03
4.600000e+08	6.038537e+13	0.000000e+00	7.581699e-01	7.998840e+14	9.650227e+14	7.222712e+13	9.077615e+03	4.308999e+03	2.150044e+03	0	1.122284e-03
4.700000e+08	5.905567e+13	0.000000e+00	7.581699e-01	7.832452e+14	9.462229e+14	7.186282e+13	9.034347e+03	4.299044e+03	2.145077e+03	0	1.113985e-03
4.800000e+08	5.777107e+13	0.000000e+00	7.581699e-01	7.671673e+14	9.280450e+14	7.150113e+13	8.991972e+03	4.289270e+03	2.140200e+03	0	1.105849e-03
4.900000e+08	5.652951e+13	0.000000e+00	7.581699e-01	7.516245e+14	9.104607e+14	7.114203e+13	8.950462e+03	4.279672e+03	2.135411e+03	0	1.097869e-03
5.000000e+08	5.532903e+13	0.000000e+00	7.581699e-01	7.365927e+14	8.934432e+14	7.078550e+13	8.909788e+03	4.270245e+03	2.130707e+03	0	1.090042e-03
5.100000e+08	5.416779e+13	0.000000e+00	7.581699e-01	7.220490e+14	8.769674e+14	7.043152e+13	8.869921e+03	4.260985e+03	2.126087e+03	0	1.082362e-03
5.200000e+08	5.304406e+13	0.000000e+00	7.581699e-01	7.079719e+14	8.610096e+14	7.008006e+13	8.830837e+03	4.251885e+03	2.121546e+03	0	1.074825e-03
5.300000e+08	5.195618e+13	0.000000e+00	7.581699e-01	6.943409e+14	8.455472e+14	6.973111e+13	8.792510e+03	4.242941e+03	2.117084e+03	0	1.067427e-03
5.400000e+08	5.090261e+13	0.000000e+00	7.581699e-01	6.811368e+14	8.305590e+14	6.938465e+13	8.754917e+03	4.234149e+03	2.112697e+03	0	1.060162e-03
5.500000e+08	4.988188e+13	0.000000e+00	7.581699e-01	6.683415e+14	8.160249e+14	6.904065e+13	8.718034e+03	4.225505e+03	2.108383e+03	0	1.053028e-03
5.600000e+08	4.889260e+13	0.000000e+00	7.581699e-01	6.559375e+14	8.019259e+14	6.869909e+13	8.681839e+03	4.217003e+03	2.104142e+03	0	1.046020e-03
5.700000e+08	4.793346e+13	0.000000e+00	7.581699e-01	6.439088e+14	7.882439e+14	6.835996e+13	8.646313e+03	4.208641e+03	2.099969e+03	0	1.039135e-03
5.800000e+08	4.700320e+13	0.000000e+00	7.581699e-01	6.322396e+14	7.749620e+14	6.802324e+13	8.611434e+03	4.200414e+03	2.095864e+03	0	1.032369e-03
5.900000e+08	4.610065e+13	0.000000e+00	7.581699e-01	6.209155e+14	7.620639e+14	6.768890e+13	8.577183e+03	4.192319e+03	2.091825e+03	0	1.025718e-03
6.000000e+08	4.522468e+13	0.000000e+00	7.581699e-01	6.099224e+14	7.495341e+14	6.735693e+13	8.543543e+03	4.184352e+03	2.087850e+03	0	1.019180e-03
6.100000e+08	4.437423e+13	0.000000e+00	7.581699e-01	5.992472e+14	7.373582e+14	6.702731e+13	8.510494e+03	4.176509e+03	2.083936e+03	0	1.012751e-03
6.200000e+08	4.354829e+13	0.000000e+00	7.581699e-01	5.888773e+14	7.255223e+14	6.670002e+13	8.478021e+03	4.168788e+03	2.080084e+03	0	1.006428e-03
6.300000e+08	4.274590e+13	0.000000e+00	7.581699e-01	5.788007e+14	7.140132e+14	6.637504e+13	8.446107e+03	4.161184e+03	2.076290e+03	0	1.000208e-03
6.400000e+08	4.196615e+13	0.000000e+00	7.581699e-01	5.690062e+14	7.028183e+14	6.605235e+13	8.414735e+03	4.153696e+03	2.072553e+03	0	9.940891e-04
6.500000e+08	4.120816e+13	0.000000e+00	7.581699e-01	5.594829e+14	6.919257e+14	6.573193e+13	8.383892e+03	4.146320e+03	2.068873e+03	0	9.880677e-04
6.600000e+08	4.047111e+13	0.000000e+00	7.581699e-01	5.502206e+14	6.813241e+14	6.541377e+13	8.353562e+03	4.139053e+03	2.065247e+03	0	9.821413e-04
6.700000e+08	3.975421e+13	0.000000e+00	7.581699e-01	5.412094e+14	6.710027e+14	6.509785e+13	8.323732e+03	4.131892e+03	2.061674e+03	0	9.763076e-04
6.800000e+08	3.905671e+13	0.000000e+00	7.581699e-01	5.324401e+14	6.609511e+14	6.478414e+13	8.294387e+03	4.124835e+03	2.058153e+03	0	9.705640e-04
6.900000e+08	3.837789e+13	0.000000e+00	7.581699e-01	5.239038e+14	6.511595e+14	6.447263e+13	8.265516e+03	4.117880e+03	2.054682e+03	0	9.649082e-04
7.000000e+08	3.771709e+13	0.000000e+00	7.581699e-01	5.155920e+14	6.416185e+14	6.416331e+13	8.237105e+03	4.111022e+03	2.051261e+03	0	9.593380e-04
7.100000e+08	3.707363e+13	0.000000e+00	7.581699e-01	5.074966e+14	6.323193e+14	6.385616e+13	8.209142e+03	4.104262e+03	2.047887e+03	0	9.538512e-04
7.200000e+08	3.644690e+13	0.000000e+00	7.581699e-01	4.996099e+14	6.232532e+14	6.355115e+13	8.181616e+03	4.097595e+03	2.044561e+03	0	9.484457e-04
7.300000e+08	3.583631e+13	0.000000e+00	7.581699e-01	4.919245e+14	6.144122e+14	6.324827e+13	8.154516e+03	4.091020e+03	2.041280e+03	0	9.431195e-04
7.400000e+08	3.524130e+13	0.000000e+00	7.581699e-01	4.844334e+14	6.057883e+14	6.294751e+13	8.127830e+03	4.084535e+03	2.038044e+03	0	9.378706e-04
7.500000e+08	3.466131e+13	0.000000e+00	7.581699e-01	4.771298e+14	5.973742e+14	6.264884e+13	8.101549e+03	4.078137e+03	2.034852e+03	0	9.326971e-04
7.600000e+08	3.409584e+13	0.000000e+00	7.581699e-01	4.700074e+14	5.891627e+14	6.235226e+13	8.075663e+03	4.071824e+03	2.031702e+03	0	9.275972e-04
7.700000e+08	3.354438e+13	0.000000e+00	7.581699e-01	4.630599e+14	5.811470e+14	6.205774e+13	8.050160e+03	4.065595e+03	2.028594e+03	0	9.225690e-04
7.800000e+08	3.300646e+13	0.000000e+00	7.581699e-01	4.562814e+14	5.733205e+14	6.176526e+13	8.025033e+03	4.059448e+03	2.025527e+03	0	9.176110e-04
7.900000e+08	3.248163e+13	0.000000e+00	7.581699e-01	4.496663e+14	5.656771e+14	6.147482e+13	8.000272e+03	4.053380e+03	2.022499e+03	0	9.127214e-04
8.000000e+08	3.196946e+13	0.000000e+00	7.581699e-01	4.432092e+14	5.582107e+14	6.118639e+13	7.975868e+03	4.047390e+03	2.019510e+03	0	9.078987e-04
8.100000e+08	3.146952e+13	0.000000e+00	7.581699e-01	4.369049e+14	5.509155e+14	6.089996e+13	7.951813e+03	4.041477e+03	2.016560e+03	0	9.031412e-04
8.200000e+08	3.098142e+13	0.000000e+00	7.581699e-01	4.307485e+14	5.437862e+14	6.061551e+13	7.928099e+03	4.035638e+03	2.013646e+03	0	8.984475e-04
8.300000e+08	3.050477e+13	0.000000e+00	7.581699e-01	4.247351e+14	5.368173e+14	6.033303e+13	7.904717e+03	4.029872e+03	2.010769e+03	0	8.938162e-04
8.400000e+08	3.003921e+13	0.000000e+00	7.581699e-01	4.188603e+14	5.300039e+14	6.005250e+13	7.881660e+03	4.024177e+03	2.007928e+03	0	8.892457e-04
8.500000e+08	2.958438e+13	0.000000e+00	7.581699e-01	4.131196e+14	5.233410e+14	5.977390e+13	7.858921e+03	4.018552e+03	2.005121e+03	0	8.847348e-04
8.600000e+08	2.913995e+13	0.000000e+00	7.581699e-01	4.075087e+14	5.168240e+14	5.949723e+13	7.836492e+03	4.012995e+03	2.002348e+03	0	8.802821e-04
8.700000e+08	2.870559e+13	0.000000e+00	7.581699e-01	4.020238e+14	5.104484e+14	5.922246e+13	7.814366e+03	4.007506e+03	1.999609e+03	0	8.758864e-04
8.800000e+08	2.828099e+13	0.000000e+00	7.581699e-01	3.966608e+14	5.042099e+14	5.894958e+13	7.792537e+03	4.002081e+03	1.996903e+03	0	8.715464e-04
8.900000e+08	2.786585e+13	0.000000e+00	7.581699e-01	3.914161e+14	4.981043e+14	5.867857e+13	7.770997e+03	3.996721e+03	1.994228e+03	0	8.672608e-04
9.000000e+08	2.745988e+13	0.000000e+00	7.581699e-01	3.862861e+14	4.921277e+14	5.840943e+13	7.749741e+03	3.991424e+03	1.991585e+03	0	8.630285e-04
9.100000e+08	2.706280e+13	0.000000e+00	7.581699e-01	3.812672e+14	4.862763e+14	5.814213e+13	7.728763e+03	3.986188e+03	1.988973e+03	0	8.588484e-04
9.200000e+08	2.667435e+13	0.000000e+00	7.581699e-01	3.763563e+14	4.805463e+14	5.787666e+13	7.708056e+03	3.981013e+03	1.986390e+03	0	8.547194e-04
9.300000e+08	2.629427e+13	0.000000e+00	7.581699e-01	3.715500e+14	4.749342e+14	5.761301e+13	7.687614e+03	3.975897e+03	1.983838e+03	0	8.506404e-04
9.400000e+08	2.592231e+13	0.000000e+00	7.581699e-01	3.668454e+14	4.694366e+14	5.735115e+13	7.667433e+03	3.970838e+03	1.981314e+03	0	8.466103e-04
9.500000e+08	2.555824e+13	0.000000e+00	7.581699e-01	3.622394e+14	4.640502e+14	5.709109e+13	7.647505e+03	3.965837e+03	1.978818e+03	0	8.426281e-04
9.600000e+08	2.520183e+13	0.000000e+00	7.581699e-01	3.577293e+14	4.587719e+14	5.683280e+13	7.627828e+03	3.960891e+03	1.976350e+03	0	8.386929e-04
9.700000e+08	2.485285e+13	0.000000e+00	7.581699e-01	3.533122e+14	4.535985e+14	5.657627e+13	7.608394e+03	3.956000e+03	1.973909e+03	0	8.348037e-04
9.800000e+08	2.451110e+13	0.000000e+00	7.581699e-01	3.489855e+14	4.485271e+14	5.632148e+13	7.589199e+03	3.951162e+03	1.971496e+03	0	8.309595e-04
9.900000e+08	2.417636e+13	0.000000e+00	7.581699e-01	3.447467e+14	4.435550e+14	5.606843e+13	7.570238e+03	3.946376e+03	1.969108e+03	0	8.271595e-04
1.000000e+09	2.384845e+13	0.000000e+00	7.581699e-01	3.405933e+14	4.386793e+14	5.581709e+13	7.551506e+03	3.941643e+03	1.966746e+03	0	8.234028e-04
1.010000e+09	2.352717e+13	0.000000e+00	7.581699e-01	3.365230e+14	4.338974e+14	5.556746e+13	7.533000e+03	3.936959e+03	1.964409e+03	0	8.196885e-04
1.020000e+09	2.321234e+13	0.000000e+00	7.581699e-01	3.325333e+14	4.292068e+14	5.531952e+13	7.514713e+03	3.932326e+03	1.962097e+03	0	8.160158e-04
1.030000e+09	2.290377e+13	0.000000e+00	7.581699e-01	3.286223e+14	4.246050e+14	5.507325e+13	7.496643e+03	3.927741e+03	1.959809e+03	0	8.123839e-04
1.040000e+09	2.260131e+13	0.000000e+00	7.581699e-01	3.247876e+14	4.200897e+14	5.482865e+13	7.478784e+03	3.923203e+03	1.957545e+03	0	8.087919e-04
1.050000e+09	2.230477e+13	0.000000e+00	7.581699e-01	3.210272e+14	4.156585e+14	5.458571e+13	7.461133e+03	3.918713e+03	1.955305e+03	0	8.052392e-04
1.060000e+09	2.201402e+13	0.000000e+00	7.581699e-01	3.173392e+14	4.113092e+14	5.434440e+13	7.443685e+03	3.914269e+03	1.953087e+03	0	8.017249e-04
1.070000e+09	2.172888e+13	0.000000e+00	7.581699e-01	3.137216e+14	4.070397e+14	5.410472e+13	7.426437e+03	3.909870e+03	1.950892e+03	0	7.982484e-04
1.080000e+09	2.144921e+13	0.000000e+00	7.581699e-01	3.101726e+14	4.028479e+14	5.386665e+13	7.409385e+03	3.905515e+03	1.948719e+03	0	7.948089e-04
1.090000e+09	2.117487e+13	0.000000e+00	7.581699e-01	3.066904e+14	3.987319e+14	5.363018e+13	7.392525e+03	3.901204e+03	1.946568e+03	0	7.914058e-04
1.100000e+09	2.090572e+13	0.000000e+00	7.581699e-01	3.032732e+14	3.946896e+14	5.339529e+13	7.375854e+03	3.896936e+03	1.944439e+03	0	7.880383e-04
1.110000e+09	2.064162e+13	0.000000e+00	7.581699e-01	2.999193e+14	3.907192e+14	5.316199e+13	7.359368e+03	3.892710e+03	1.942330e+03	0	7.847058e-04
1.120000e+09	2.038244e+13	0.000000e+00	7.581699e-01	2.966272e+14	3.868189e+14	5.293024e+13	7.343063e+03	3.888525e+03	1.940242e+03	0	7.814077e-04
1.130000e+09	2.012806e+13	0.000000e+00	7.581699e-01	2.933953e+14	3.829870e+14	5.270005e+13	7.326937e+03	3.884381e+03	1.938174e+03	0	7.781434e-04
1.140000e+09	1.987836e+13	0.000000e+00	7.581699e-01	2.902220e+14	3.792217e+14	5.247140e+13	7.310986e+03	3.880277e+03	1.936127e+03	0	7.749121e-04
1.150000e+09	1.963321e+13	0.000000e+00	7.581699e-01	2.871059e+14	3.755215e+14	5.224427e+13	7.295207e+03	3.876212e+03	1.934098e+03	0	7.717135e-04
1.160000e+09	1.939251e+13	0.000000e+00	7.581699e-01	2.840455e+14	3.718846e+14	5.201866e+13	7.279596e+03	3.872186e+03	1.932090e+03	0	7.685468e-04
1.170000e+09	1.915614e+13	0.000000e+00	7.581699e-01	2.810395e+14	3.683097e+14	5.179455e+13	7.264151e+03	3.868198e+03	1.930100e+03	0	7.654114e-04
1.180000e+09	1.892399e+13	0.000000e+00	7.581699e-01	2.780865e+14	3.647951e+14	5.157193e+13	7.248870e+03	3.864247e+03	1.928128e+03	0	7.623070e-04
1.190000e+09	1.869597e+13	0.000000e+00	7.581699e-01	2.751853e+14	3.613395e+14	5.135079e+13	7.233748e+03	3.860333e+03	1.926175e+03	0	7.592328e-04
1.200000e+09	1.847197e+13	0.000000e+00	7.581699e-01	2.723346e+14	3.579414e+14	5.113112e+13	7.218783e+03	3.856456e+03	1.924240e+03	0	7.561884e-04
1.210000e+09	1.825189e+13	0.000000e+00	7.581699e-01	2.695331e+14	3.545994e+14	5.091291e+13	7.203973e+03	3.852613e+03	1.922323e+03	0	7.531733e-04
1.220000e+09	1.803564e+13	0.000000e+00	7.581699e-01	2.667797e+14	3.513124e+14	5.069614e+13	7.189315e+03	3.848806e+03	1.920423e+03	0	7.501869e-04
1.230000e+09	1.782313e+13	0.000000e+00	7.581699e-01	2.640732e+14	3.480789e+14	5.048081e+13	7.174806e+03	3.845033e+03	1.918541e+03	0	7.472288e-04
1.240000e+09	1.761427e+13	0.000000e+00	7.581699e-01	2.614126e+14	3.448978e+14	5.026690e+13	7.160444e+03	3.841294e+03	1.916675e+03	0	7.442985e-04
1.250000e+09	1.740897e+13	0.000000e+00	7.581699e-01	2.587968e+14	3.417678e+14	5.005440e+13	7.146225e+03	3.837588e+03	1.914826e+03	0	7.413956e-04
1.260000e+09	1.720715e+13	0.000000e+00	7.581699e-01	2.562247e+14	3.386878e+14	4.984330e+13	7.132149e+03	3.833915e+03	1.912993e+03	0	7.385195e-04
1.270000e+09	1.700873e+13	0.000000e+00	7.581699e-01	2.536953e+14	3.356566e+14	4.963360e+13	7.118212e+03	3.830274e+03	1.911177e+03	0	7.356698e-04
1.280000e+09	1.681363e+13	0.000000e+00	7.581699e-01	2.512076e+14	3.326732e+14	4.942527e+13	7.104413e+03	3.826665e+03	1.909376e+03	0	7.328462e-04
1.290000e+09	1.662178e+13	0.000000e+00	7.581699e-01	2.487607e+14	3.297364e+14	4.921831e+13	7.090748e+03	3.823087e+03	1.907591e+03	0	7.300481e-04
1.300000e+09	1.643309e+13	0.000000e+00	7.581699e-01	2.463536e+14	3.268453e+14	4.901271e+13	7.077215e+03	3.819540e+03	1.905821e+03	0	7.272751e-04
1.310000e+09	1.624750e+13	0.000000e+00	7.581699e-01	2.439855e+14	3.239988e+14	4.880846e+13	7.063814e+03	3.816023e+03	1.904066e+03	0	7.245269e-04
1.320000e+09	1.606494e+13	0.000000e+00	7.581699e-01	2.416554e+14	3.211960e+14	4.860555e+13	7.050540e+03	3.812537e+03	1.902326e+03	0	7.218030e-04
1.330000e+09	1.588534e+13	0.000000e+00	7.581699e-01	2.393626e+14	3.184358e+14	4.840396e+13	7.037394e+03	3.809079e+03	1.900601e+03	0	7.191031e-04
1.340000e+09	1.570864e+13	0.000000e+00	7.581699e-01	2.371062e+14	3.157175e+14	4.820369e+13	7.024371e+03	3.805651e+03	1.898891e+03	0	7.164267e-04
1.350000e+09	1.553476e+13	0.000000e+00	7.581699e-01	2.348853e+14	3.130400e+14	4.800473e+13	7.011471e+03	3.802251e+03	1.897194e+03	0	7.137736e-04
1.360000e+09	1.536365e+13	0.000000e+00	7.581699e-01	2.326993e+14	3.104025e+14	4.780706e+13	6.998691e+03	3.798879e+03	1.895512e+03	0	7.111433e-04
