#t		Qconv[W]	Ri[Rp]		R*[Rp]		Qc[W]		Qm[W]		Qr[W]		Tcmb[K]		Tl[K]		Tup[K]		RiFlag		Bs[T]
0.000000e+00	7.102306e+14	0.000000e+00	7.549671e-01	6.643051e+15	2.904984e+15	2.005497e+14	1.840571e+04	5.636537e+03	2.604929e+03	0	2.483168e-03
1.000000e+07	6.976901e+14	0.000000e+00	7.549671e-01	6.533145e+15	3.533234e+15	1.994385e+14	1.828298e+04	5.833460e+03	2.695937e+03	0	2.468466e-03
2.000000e+07	6.837564e+14	0.000000e+00	7.549671e-01	6.411600e+15	4.090723e+15	1.983356e+14	1.816227e+04	5.991716e+03	2.769075e+03	0	2.451923e-03
3.000000e+07	6.689618e+14	0.000000e+00	7.549671e-01	6.282900e+15	4.554350e+15	1.972410e+14	1.804380e+04	6.115254e+03	2.826168e+03	0	2.434109e-03
4.000000e+07	6.537239e+14	0.000000e+00	7.549671e-01	6.150560e+15	4.917727e+15	1.961545e+14	1.792768e+04	6.209066e+03	2.869523e+03	0	2.415485e-03
5.000000e+07	6.383483e+14	0.000000e+00	7.549671e-01	6.017150e+15	5.186228e+15	1.950762e+14	1.781399e+04	6.278338e+03	2.901538e+03	0	2.396397e-03
6.000000e+07	6.230473e+14	0.000000e+00	7.549671e-01	5.884456e+15	5.371678e+15	1.940058e+14	1.770275e+04	6.327906e+03	2.924446e+03	0	2.377095e-03
7.000000e+07	6.079624e+14	0.000000e+00	7.549671e-01	5.753669e+15	5.488247e+15	1.929435e+14	1.759394e+04	6.361977e+03	2.940191e+03	0	2.357754e-03
8.000000e+07	5.931845e+14	0.000000e+00	7.549671e-01	5.625550e+15	5.549863e+15	1.918890e+14	1.748754e+04	6.384042e+03	2.950389e+03	0	2.338494e-03
9.000000e+07	5.787694e+14	0.000000e+00	7.549671e-01	5.500568e+15	5.568905e+15	1.908424e+14	1.738349e+04	6.396911e+03	2.956336e+03	0	2.319395e-03
1.000000e+08	5.647490e+14	0.000000e+00	7.549671e-01	5.378987e+15	5.555724e+15	1.898036e+14	1.728174e+04	6.402795e+03	2.959056e+03	0	2.300513e-03
1.100000e+08	5.511391e+14	0.000000e+00	7.549671e-01	5.260939e+15	5.518645e+15	1.887724e+14	1.718222e+04	6.403408e+03	2.959339e+03	0	2.281883e-03
1.200000e+08	5.379451e+14	0.000000e+00	7.549671e-01	5.146465e+15	5.464185e+15	1.877489e+14	1.708487e+04	6.400065e+03	2.957794e+03	0	2.263526e-03
1.300000e+08	5.251649e+14	0.000000e+00	7.549671e-01	5.035548e+15	5.397358e+15	1.867330e+14	1.698962e+04	6.393770e+03	2.954885e+03	0	2.245457e-03
1.400000e+08	5.127921e+14	0.000000e+00	7.549671e-01	4.928130e+15	5.321967e+15	1.857246e+14	1.689642e+04	6.385286e+03	2.950964e+03	0	2.227683e-03
1.500000e+08	5.008174e+14	0.000000e+00	7.549671e-01	4.824131e+15	5.240874e+15	1.847237e+14	1.680519e+04	6.375191e+03	2.946298e+03	0	2.210206e-03
1.600000e+08	4.892293e+14	0.000000e+00	7.549671e-01	4.723451e+15	5.156212e+15	1.837302e+14	1.671587e+04	6.363922e+03	2.941090e+03	0	2.193026e-03
1.700000e+08	4.780155e+14	0.000000e+00	7.549671e-01	4.625986e+15	5.069563e+15	1.827439e+14	1.662840e+04	6.351809e+03	2.935493e+03	0	2.176140e-03
1.800000e+08	4.671630e+14	0.000000e+00	7.549671e-01	4.531624e+15	4.982091e+15	1.817650e+14	1.654273e+04	6.339105e+03	2.929621e+03	0	2.159546e-03
1.900000e+08	4.566586e+14	0.000000e+00	7.549671e-01	4.440252e+15	4.894648e+15	1.807933e+14	1.645879e+04	6.325997e+03	2.923563e+03	0	2.143237e-03
2.000000e+08	4.464893e+14	0.000000e+00	7.549671e-01	4.351758e+15	4.807851e+15	1.798287e+14	1.637654e+04	6.312631e+03	2.917386e+03	0	2.127208e-03
2.100000e+08	4.366421e+14	0.000000e+00	7.549671e-01	4.266031e+15	4.722143e+15	1.788712e+14	1.629592e+04	6.299114e+03	2.911139e+03	0	2.111453e-03
2.200000e+08	4.271045e+14	0.000000e+00	7.549671e-01	4.182964e+15	4.637834e+15	1.779207e+14	1.621687e+04	6.285529e+03	2.904861e+03	0	2.095966e-03
2.300000e+08	4.178641e+14	0.000000e+00	7.549671e-01	4.102453e+15	4.555139e+15	1.769772e+14	1.613936e+04	6.271939e+03	2.898581e+03	0	2.080741e-03
2.400000e+08	4.089093e+14	0.000000e+00	7.549671e-01	4.024395e+15	4.474200e+15	1.760407e+14	1.606333e+04	6.258391e+03	2.892319e+03	0	2.065770e-03
2.500000e+08	4.002287e+14	0.000000e+00	7.549671e-01	3.948696e+15	4.395105e+15	1.751110e+14	1.598873e+04	6.244918e+03	2.886093e+03	0	2.051047e-03
2.600000e+08	3.918114e+14	0.000000e+00	7.549671e-01	3.875261e+15	4.317901e+15	1.741881e+14	1.591553e+04	6.231549e+03	2.879914e+03	0	2.036567e-03
2.700000e+08	3.836470e+14	0.000000e+00	7.549671e-01	3.804002e+15	4.242608e+15	1.732719e+14	1.584369e+04	6.218301e+03	2.873792e+03	0	2.022322e-03
2.800000e+08	3.757256e+14	0.000000e+00	7.549671e-01	3.734833e+15	4.169223e+15	1.723625e+14	1.577316e+04	6.205190e+03	2.867732e+03	0	2.008306e-03
2.900000e+08	3.680377e+14	0.000000e+00	7.549671e-01	3.667674e+15	4.097729e+15	1.714596e+14	1.570390e+04	6.192225e+03	2.861740e+03	0	1.994514e-03
3.000000e+08	3.605741e+14	0.000000e+00	7.549671e-01	3.602446e+15	4.028095e+15	1.705634e+14	1.563588e+04	6.179413e+03	2.855820e+03	0	1.980939e-03
3.100000e+08	3.533262e+14	0.000000e+00	7.549671e-01	3.539075e+15	3.960285e+15	1.696737e+14	1.556907e+04	6.166760e+03	2.849972e+03	0	1.967576e-03
3.200000e+08	3.462858e+14	0.000000e+00	7.549671e-01	3.477491e+15	3.894256e+15	1.687904e+14	1.550342e+04	6.154267e+03	2.844198e+03	0	1.954420e-03
3.300000e+08	3.394450e+14	0.000000e+00	7.549671e-01	3.417626e+15	3.829961e+15	1.679136e+14	1.543891e+04	6.141936e+03	2.838499e+03	0	1.941464e-03
3.400000e+08	3.327961e+14	0.000000e+00	7.549671e-01	3.359416e+15	3.767353e+15	1.670432e+14	1.537551e+04	6.129767e+03	2.832876e+03	0	1.928704e-03
3.500000e+08	3.263321e+14	0.000000e+00	7.549671e-01	3.302798e+15	3.706382e+15	1.661790e+14	1.531318e+04	6.117761e+03	2.827327e+03	0	1.916135e-03
3.600000e+08	3.200460e+14	0.000000e+00	7.549671e-01	3.247715e+15	3.646998e+15	1.653211e+14	1.525189e+04	6.105914e+03	2.821852e+03	0	1.903752e-03
3.700000e+08	3.139313e+14	0.000000e+00	7.549671e-01	3.194110e+15	3.589152e+15	1.644695e+14	1.519162e+04	6.094227e+03	2.816451e+03	0	1.891550e-03
3.800000e+08	3.079818e+14	0.000000e+00	7.549671e-01	3.141929e+15	3.532794e+15	1.636240e+14	1.513235e+04	6.082696e+03	2.811122e+03	0	1.879524e-03
3.900000e+08	3.021915e+14	0.000000e+00	7.549671e-01	3.091122e+15	3.477877e+15	1.627846e+14	1.507403e+04	6.071320e+03	2.805864e+03	0	1.867671e-03
4.000000e+08	2.965547e+14	0.000000e+00	7.549671e-01	3.041639e+15	3.424354e+15	1.619513e+14	1.501665e+04	6.060096e+03	2.800677e+03	0	1.855985e-03
4.100000e+08	2.910658e+14	0.000000e+00	7.549671e-01	2.993434e+15	3.372179e+15	1.611240e+14	1.496019e+04	6.049022e+03	2.795559e+03	0	1.844463e-03
4.200000e+08	2.857198e+14	0.000000e+00	7.549671e-01	2.946462e+15	3.321308e+15	1.603026e+14	1.490462e+04	6.038094e+03	2.790509e+03	0	1.833101e-03
4.300000e+08	2.805117e+14	0.000000e+00	7.549671e-01	2.900681e+15	3.271698e+15	1.594872e+14	1.484991e+04	6.027311e+03	2.785525e+03	0	1.821895e-03
4.400000e+08	2.754365e+14	0.000000e+00	7.549671e-01	2.856048e+15	3.223308e+15	1.586776e+14	1.479605e+04	6.016668e+03	2.780607e+03	0	1.810840e-03
4.500000e+08	2.704899e+14	0.000000e+00	7.549671e-01	2.812526e+15	3.176098e+15	1.578739e+14	1.474302e+04	6.006165e+03	2.775753e+03	0	1.799934e-03
4.600000e+08	2.656673e+14	0.000000e+00	7.549671e-01	2.770077e+15	3.130029e+15	1.570759e+14	1.469079e+04	5.995797e+03	2.770961e+03	0	1.789173e-03
4.700000e+08	2.609647e+14	0.000000e+00	7.549671e-01	2.728665e+15	3.085065e+15	1.562836e+14	1.463934e+04	5.985562e+03	2.766231e+03	0	1.778553e-03
4.800000e+08	2.563781e+14	0.000000e+00	7.549671e-01	2.688255e+15	3.041169e+15	1.554970e+14	1.458866e+04	5.975457e+03	2.761561e+03	0	1.768072e-03
4.900000e+08	2.519034e+14	0.000000e+00	7.549671e-01	2.648815e+15	2.998308e+15	1.547161e+14	1.453873e+04	5.965480e+03	2.756950e+03	0	1.757725e-03
5.000000e+08	2.475372e+14	0.000000e+00	7.549671e-01	2.610312e+15	2.956447e+15	1.539407e+14	1.448953e+04	5.955629e+03	2.752397e+03	0	1.747510e-03
5.100000e+08	2.432759e+14	0.000000e+00	7.549671e-01	2.572717e+15	2.915557e+15	1.531709e+14	1.444104e+04	5.945899e+03	2.747901e+03	0	1.737424e-03
5.200000e+08	2.391160e+14	0.000000e+00	7.549671e-01	2.536000e+15	2.875605e+15	1.524066e+14	1.439324e+04	5.936290e+03	2.743460e+03	0	1.727464e-03
5.300000e+08	2.350543e+14	0.000000e+00	7.549671e-01	2.500134e+15	2.836563e+15	1.516477e+14	1.434612e+04	5.926799e+03	2.739074e+03	0	1.717628e-03
5.400000e+08	2.310877e+14	0.000000e+00	7.549671e-01	2.465092e+15	2.798402e+15	1.508942e+14	1.429967e+04	5.917423e+03	2.734740e+03	0	1.707911e-03
5.500000e+08	2.272132e+14	0.000000e+00	7.549671e-01	2.430847e+15	2.761095e+15	1.501461e+14	1.425386e+04	5.908159e+03	2.730459e+03	0	1.698312e-03
5.600000e+08	2.234279e+14	0.000000e+00	7.549671e-01	2.397375e+15	2.724616e+15	1.494033e+14	1.420869e+04	5.899007e+03	2.726230e+03	0	1.688828e-03
5.700000e+08	2.197291e+14	0.000000e+00	7.549671e-01	2.364653e+15	2.688939e+15	1.486658e+14	1.416414e+04	5.889963e+03	2.722050e+03	0	1.679457e-03
5.800000e+08	2.161140e+14	0.000000e+00	7.549671e-01	2.332657e+15	2.654041e+15	1.479335e+14	1.412019e+04	5.881025e+03	2.717919e+03	0	1.670195e-03
5.900000e+08	2.125802e+14	0.000000e+00	7.549671e-01	2.301366e+15	2.619898e+15	1.472064e+14	1.407684e+04	5.872191e+03	2.713837e+03	0	1.661042e-03
6.000000e+08	2.091251e+14	0.000000e+00	7.549671e-01	2.270758e+15	2.586488e+15	1.464845e+14	1.403406e+04	5.863459e+03	2.709801e+03	0	1.651993e-03
6.100000e+08	2.057464e+14	0.000000e+00	7.549671e-01	2.240813e+15	2.553789e+15	1.457676e+14	1.399185e+04	5.854828e+03	2.705812e+03	0	1.643049e-03
6.200000e+08	2.024419e+14	0.000000e+00	7.549671e-01	2.211511e+15	2.521780e+15	1.450558e+14	1.395020e+04	5.846294e+03	2.701868e+03	0	1.634205e-03
6.300000e+08	1.992093e+14	0.000000e+00	7.549671e-01	2.182834e+15	2.490441e+15	1.443491e+14	1.390908e+04	5.837857e+03	2.697969e+03	0	1.625459e-03
6.400000e+08	1.960465e+14	0.000000e+00	7.549671e-01	2.154763e+15	2.459753e+15	1.436473e+14	1.386850e+04	5.829515e+03	2.694114e+03	0	1.616811e-03
6.500000e+08	1.929515e+14	0.000000e+00	7.549671e-01	2.127281e+15	2.429698e+15	1.429505e+14	1.382844e+04	5.821265e+03	2.690301e+03	0	1.608258e-03
6.600000e+08	1.899223e+14	0.000000e+00	7.549671e-01	2.100371e+15	2.400256e+15	1.422586e+14	1.378889e+04	5.813105e+03	2.686530e+03	0	1.599797e-03
6.700000e+08	1.869570e+14	0.000000e+00	7.549671e-01	2.074016e+15	2.371411e+15	1.415715e+14	1.374983e+04	5.805035e+03	2.682801e+03	0	1.591428e-03
6.800000e+08	1.840539e+14	0.000000e+00	7.549671e-01	2.048202e+15	2.343147e+15	1.408893e+14	1.371126e+04	5.797053e+03	2.679112e+03	0	1.583147e-03
6.900000e+08	1.812111e+14	0.000000e+00	7.549671e-01	2.022912e+15	2.315446e+15	1.402118e+14	1.367318e+04	5.789156e+03	2.675462e+03	0	1.574954e-03
7.000000e+08	1.784270e+14	0.000000e+00	7.549671e-01	1.998133e+15	2.288295e+15	1.395391e+14	1.363556e+04	5.781344e+03	2.671852e+03	0	1.566847e-03
7.100000e+08	1.756999e+14	0.000000e+00	7.549671e-01	1.973850e+15	2.261676e+15	1.388711e+14	1.359839e+04	5.773614e+03	2.668279e+03	0	1.558823e-03
7.200000e+08	1.730283e+14	0.000000e+00	7.549671e-01	1.950049e+15	2.235577e+15	1.382078e+14	1.356168e+04	5.765966e+03	2.664745e+03	0	1.550881e-03
7.300000e+08	1.704105e+14	0.000000e+00	7.549671e-01	1.926718e+15	2.209983e+15	1.375491e+14	1.352541e+04	5.758397e+03	2.661247e+03	0	1.543021e-03
7.400000e+08	1.678453e+14	0.000000e+00	7.549671e-01	1.903844e+15	2.184880e+15	1.368951e+14	1.348958e+04	5.750907e+03	2.657785e+03	0	1.535239e-03
7.500000e+08	1.653311e+14	0.000000e+00	7.549671e-01	1.881414e+15	2.160255e+15	1.362455e+14	1.345416e+04	5.743494e+03	2.654359e+03	0	1.527535e-03
7.600000e+08	1.628665e+14	0.000000e+00	7.549671e-01	1.859417e+15	2.136097e+15	1.356005e+14	1.341916e+04	5.736156e+03	2.650968e+03	0	1.519907e-03
7.700000e+08	1.604503e+14	0.000000e+00	7.549671e-01	1.837841e+15	2.112392e+15	1.349600e+14	1.338457e+04	5.728892e+03	2.647611e+03	0	1.512353e-03
7.800000e+08	1.580812e+14	0.000000e+00	7.549671e-01	1.816676e+15	2.089129e+15	1.343240e+14	1.335038e+04	5.721702e+03	2.644288e+03	0	1.504872e-03
7.900000e+08	1.557579e+14	0.000000e+00	7.549671e-01	1.795910e+15	2.066296e+15	1.336923e+14	1.331658e+04	5.714583e+03	2.640998e+03	0	1.497464e-03
8.000000e+08	1.534792e+14	0.000000e+00	7.549671e-01	1.775533e+15	2.043883e+15	1.330651e+14	1.328317e+04	5.707535e+03	2.637741e+03	0	1.490125e-03
8.100000e+08	1.512440e+14	0.000000e+00	7.549671e-01	1.755535e+15	2.021878e+15	1.324421e+14	1.325013e+04	5.700556e+03	2.634515e+03	0	1.482856e-03
8.200000e+08	1.490511e+14	0.000000e+00	7.549671e-01	1.735908e+15	2.000272e+15	1.318235e+14	1.321747e+04	5.693645e+03	2.631321e+03	0	1.475654e-03
8.300000e+08	1.468995e+14	0.000000e+00	7.549671e-01	1.716640e+15	1.979054e+15	1.312092e+14	1.318517e+04	5.686801e+03	2.628158e+03	0	1.468519e-03
8.400000e+08	1.447881e+14	0.000000e+00	7.549671e-01	1.697723e+15	1.958215e+15	1.305991e+14	1.315322e+04	5.680023e+03	2.625026e+03	0	1.461450e-03
8.500000e+08	1.427159e+14	0.000000e+00	7.549671e-01	1.679149e+15	1.937745e+15	1.299933e+14	1.312163e+04	5.673309e+03	2.621923e+03	0	1.454444e-03
8.600000e+08	1.406819e+14	0.000000e+00	7.549671e-01	1.660908e+15	1.917635e+15	1.293916e+14	1.309038e+04	5.666659e+03	2.618850e+03	0	1.447501e-03
8.700000e+08	1.386852e+14	0.000000e+00	7.549671e-01	1.642993e+15	1.897877e+15	1.287940e+14	1.305947e+04	5.660072e+03	2.615806e+03	0	1.440621e-03
8.800000e+08	1.367248e+14	0.000000e+00	7.549671e-01	1.625396e+15	1.878461e+15	1.282006e+14	1.302889e+04	5.653546e+03	2.612790e+03	0	1.433800e-03
8.900000e+08	1.347999e+14	0.000000e+00	7.549671e-01	1.608109e+15	1.859381e+15	1.276112e+14	1.299864e+04	5.647081e+03	2.609802e+03	0	1.427040e-03
9.000000e+08	1.329095e+14	0.000000e+00	7.549671e-01	1.591124e+15	1.840626e+15	1.270259e+14	1.296871e+04	5.640676e+03	2.606842e+03	0	1.420338e-03
9.100000e+08	1.310529e+14	0.000000e+00	7.549671e-01	1.574434e+15	1.822191e+15	1.264446e+14	1.293909e+04	5.634329e+03	2.603909e+03	0	1.413693e-03
9.200000e+08	1.292292e+14	0.000000e+00	7.549671e-01	1.558032e+15	1.804067e+15	1.258672e+14	1.290979e+04	5.628040e+03	2.601002e+03	0	1.407105e-03
9.300000e+08	1.274376e+14	0.000000e+00	7.549671e-01	1.541912e+15	1.786247e+15	1.252939e+14	1.288078e+04	5.621808e+03	2.598122e+03	0	1.400572e-03
9.400000e+08	1.256775e+14	0.000000e+00	7.549671e-01	1.526066e+15	1.768724e+15	1.247244e+14	1.285208e+04	5.615632e+03	2.595268e+03	0	1.394094e-03
9.500000e+08	1.239479e+14	0.000000e+00	7.549671e-01	1.510489e+15	1.751491e+15	1.241588e+14	1.282367e+04	5.609511e+03	2.592439e+03	0	1.387669e-03
9.600000e+08	1.222482e+14	0.000000e+00	7.549671e-01	1.495173e+15	1.734541e+15	1.235971e+14	1.279555e+04	5.603444e+03	2.589635e+03	0	1.381297e-03
9.700000e+08	1.205778e+14	0.000000e+00	7.549671e-01	1.480113e+15	1.717868e+15	1.230392e+14	1.276772e+04	5.597430e+03	2.586856e+03	0	1.374977e-03
9.800000e+08	1.189359e+14	0.000000e+00	7.549671e-01	1.465304e+15	1.701466e+15	1.224851e+14	1.274016e+04	5.591469e+03	2.584101e+03	0	1.368707e-03
9.900000e+08	1.173218e+14	0.000000e+00	7.549671e-01	1.450738e+15	1.685328e+15	1.219348e+14	1.271288e+04	5.585560e+03	2.581370e+03	0	1.362488e-03
1.000000e+09	1.157350e+14	0.000000e+00	7.549671e-01	1.436412e+15	1.669448e+15	1.213882e+14	1.268587e+04	5.579701e+03	2.578662e+03	0	1.356317e-03
1.010000e+09	1.141748e+14	0.000000e+00	7.549671e-01	1.422319e+15	1.653822e+15	1.208453e+14	1.265912e+04	5.573893e+03	2.575978e+03	0	1.350195e-03
1.020000e+09	1.126406e+14	0.000000e+00	7.549671e-01	1.408454e+15	1.638442e+15	1.203061e+14	1.263264e+04	5.568135e+03	2.573317e+03	0	1.344120e-03
1.030000e+09	1.111318e+14	0.000000e+00	7.549671e-01	1.394812e+15	1.623305e+15	1.197705e+14	1.260641e+04	5.562425e+03	2.570678e+03	0	1.338091e-03
1.040000e+09	1.096479e+14	0.000000e+00	7.549671e-01	1.381388e+15	1.608404e+15	1.192386e+14	1.258044e+04	5.556763e+03	2.568061e+03	0	1.332109e-03
1.050000e+09	1.081882e+14	0.000000e+00	7.549671e-01	1.368178e+15	1.593734e+15	1.187102e+14	1.255471e+04	5.551148e+03	2.565467e+03	0	1.326171e-03
1.060000e+09	1.067523e+14	0.000000e+00	7.549671e-01	1.355176e+15	1.579290e+15	1.181854e+14	1.252924e+04	5.545580e+03	2.562893e+03	0	1.320278e-03
1.070000e+09	1.053397e+14	0.000000e+00	7.549671e-01	1.342378e+15	1.565068e+15	1.176642e+14	1.250400e+04	5.540058e+03	2.560341e+03	0	1.314428e-03
1.080000e+09	1.039498e+14	0.000000e+00	7.549671e-01	1.329780e+15	1.551062e+15	1.171465e+14	1.247900e+04	5.534582e+03	2.557810e+03	0	1.308622e-03
1.090000e+09	1.025821e+14	0.000000e+00	7.549671e-01	1.317378e+15	1.537268e+15	1.166322e+14	1.245423e+04	5.529150e+03	2.555300e+03	0	1.302857e-03
1.100000e+09	1.012361e+14	0.000000e+00	7.549671e-01	1.305167e+15	1.523683e+15	1.161214e+14	1.242970e+04	5.523762e+03	2.552810e+03	0	1.297134e-03
1.110000e+09	9.991146e+13	0.000000e+00	7.549671e-01	1.293143e+15	1.510300e+15	1.156140e+14	1.240539e+04	5.518417e+03	2.550340e+03	0	1.291451e-03
1.120000e+09	9.860762e+13	0.000000e+00	7.549671e-01	1.281302e+15	1.497116e+15	1.151100e+14	1.238130e+04	5.513115e+03	2.547889e+03	0	1.285809e-03
1.130000e+09	9.732417e+13	0.000000e+00	7.549671e-01	1.269641e+15	1.484128e+15	1.146094e+14	1.235744e+04	5.507855e+03	2.545459e+03	0	1.280206e-03
1.140000e+09	9.606067e+13	0.000000e+00	7.549671e-01	1.258155e+15	1.471330e+15	1.141121e+14	1.233379e+04	5.502637e+03	2.543047e+03	0	1.274642e-03
1.150000e+09	9.481670e+13	0.000000e+00	7.549671e-01	1.246841e+15	1.458719e+15	1.136182e+14	1.231035e+04	5.497460e+03	2.540654e+03	0	1.269116e-03
1.160000e+09	9.359186e+13	0.000000e+00	7.549671e-01	1.235696e+15	1.446291e+15	1.131275e+14	1.228713e+04	5.492323e+03	2.538280e+03	0	1.263627e-03
1.170000e+09	9.238575e+13	0.000000e+00	7.549671e-01	1.224716e+15	1.434042e+15	1.126402e+14	1.226411e+04	5.487226e+03	2.535925e+03	0	1.258176e-03
1.180000e+09	9.119797e+13	0.000000e+00	7.549671e-01	1.213897e+15	1.421970e+15	1.121560e+14	1.224129e+04	5.482169e+03	2.533588e+03	0	1.252760e-03
1.190000e+09	9.002816e+13	0.000000e+00	7.549671e-01	1.203237e+15	1.410070e+15	1.116751e+14	1.221868e+04	5.477150e+03	2.531268e+03	0	1.247381e-03
1.200000e+09	8.887594e+13	0.000000e+00	7.549671e-01	1.192732e+15	1.398338e+15	1.111974e+14	1.219626e+04	5.472170e+03	2.528967e+03	0	1.242036e-03
1.210000e+09	8.774096e+13	0.000000e+00	7.549671e-01	1.182378e+15	1.386772e+15	1.107228e+14	1.217404e+04	5.467227e+03	2.526682e+03	0	1.236727e-03
1.220000e+09	8.662286e+13	0.000000e+00	7.549671e-01	1.172174e+15	1.375369e+15	1.102514e+14	1.215201e+04	5.462322e+03	2.524416e+03	0	1.231451e-03
1.230000e+09	8.552132e+13	0.000000e+00	7.549671e-01	1.162116e+15	1.364124e+15	1.097831e+14	1.213018e+04	5.457454e+03	2.522166e+03	0	1.226209e-03
1.240000e+09	8.443599e+13	0.000000e+00	7.549671e-01	1.152201e+15	1.353035e+15	1.093179e+14	1.210852e+04	5.452622e+03	2.519932e+03	0	1.220999e-03
1.250000e+09	8.336655e+13	0.000000e+00	7.549671e-01	1.142427e+15	1.342100e+15	1.088558e+14	1.208706e+04	5.447825e+03	2.517716e+03	0	1.215823e-03
1.260000e+09	8.231269e+13	0.000000e+00	7.549671e-01	1.132790e+15	1.331314e+15	1.083967e+14	1.206577e+04	5.443065e+03	2.515516e+03	0	1.210678e-03
1.270000e+09	8.127410e+13	0.000000e+00	7.549671e-01	1.123288e+15	1.320676e+15	1.079406e+14	1.204466e+04	5.438339e+03	2.513331e+03	0	1.205564e-03
1.280000e+09	8.025049e+13	0.000000e+00	7.549671e-01	1.113918e+15	1.310181e+15	1.074876e+14	1.202373e+04	5.433647e+03	2.511163e+03	0	1.200482e-03
1.290000e+09	7.924156e+13	0.000000e+00	7.549671e-01	1.104678e+15	1.299829e+15	1.070375e+14	1.200298e+04	5.428990e+03	2.509011e+03	0	1.195429e-03
1.300000e+09	7.824702e+13	0.000000e+00	7.549671e-01	1.095565e+15	1.289615e+15	1.065904e+14	1.198239e+04	5.424366e+03	2.506874e+03	0	1.190407e-03
1.310000e+09	7.726660e+13	0.000000e+00	7.549671e-01	1.086577e+15	1.279538e+15	1.061462e+14	1.196198e+04	5.419775e+03	2.504752e+03	0	1.185414e-03
1.320000e+09	7.630002e+13	0.000000e+00	7.549671e-01	1.077712e+15	1.269594e+15	1.057049e+14	1.194173e+04	5.415217e+03	2.502646e+03	0	1.180451e-03
1.330000e+09	7.534703e+13	0.000000e+00	7.549671e-01	1.068967e+15	1.259782e+15	1.052665e+14	1.192165e+04	5.410692e+03	2.500554e+03	0	1.175515e-03
1.340000e+09	7.440736e+13	0.000000e+00	7.549671e-01	1.060340e+15	1.250098e+15	1.048309e+14	1.190172e+04	5.406198e+03	2.498478e+03	0	1.170608e-03
1.350000e+09	7.348076e+13	0.000000e+00	7.549671e-01	1.051828e+15	1.240541e+15	1.043982e+14	1.188196e+04	5.401736e+03	2.496416e+03	0	1.165729e-03
1.360000e+09	7.256699e+13	0.000000e+00	7.549671e-01	1.043430e+15	1.231108e+15	1.039684e+14	1.186236e+04	5.397305e+03	2.494368e+03	0	1.160876e-03
