#t		Qconv[W]	Ri[Rp]		R*[Rp]		Qc[W]		Qm[W]		Qr[W]		Tcmb[K]		Tl[K]		Tup[K]		RiFlag		Bs[T]
0.000000e+00	7.231598e+14	0.000000e+00	7.549671e-01	6.736795e+15	2.890328e+15	2.106034e+14	1.874949e+04	5.716649e+03	2.630583e+03	0	2.494851e-03
1.000000e+07	7.118736e+14	0.000000e+00	7.549671e-01	6.638958e+15	3.505797e+15	2.094365e+14	1.863413e+04	5.911066e+03	2.720047e+03	0	2.481804e-03
2.000000e+07	6.991133e+14	0.000000e+00	7.549671e-01	6.529033e+15	4.060958e+15	2.082783e+14	1.852043e+04	6.069635e+03	2.793014e+03	0	2.466886e-03
3.000000e+07	6.853736e+14	0.000000e+00	7.549671e-01	6.411107e+15	4.532525e+15	2.071288e+14	1.840860e+04	6.195545e+03	2.850953e+03	0	2.450618e-03
4.000000e+07	6.710571e+14	0.000000e+00	7.549671e-01	6.288506e+15	4.911849e+15	2.059879e+14	1.829877e+04	6.293027e+03	2.895810e+03	0	2.433434e-03
5.000000e+07	6.564707e+14	0.000000e+00	7.549671e-01	6.163766e+15	5.201317e+15	2.048554e+14	1.819103e+04	6.366632e+03	2.929681e+03	0	2.415674e-03
6.000000e+07	6.418367e+14	0.000000e+00	7.549671e-01	6.038720e+15	5.409989e+15	2.037315e+14	1.808542e+04	6.420727e+03	2.954573e+03	0	2.397589e-03
7.000000e+07	6.273103e+14	0.000000e+00	7.549671e-01	5.914650e+15	5.549924e+15	2.026158e+14	1.798193e+04	6.459211e+03	2.972282e+03	0	2.379363e-03
8.000000e+07	6.129967e+14	0.000000e+00	7.549671e-01	5.792421e+15	5.633672e+15	2.015085e+14	1.788056e+04	6.485397e+03	2.984332e+03	0	2.361126e-03
9.000000e+07	5.989644e+14	0.000000e+00	7.549671e-01	5.672599e+15	5.672843e+15	2.004094e+14	1.778126e+04	6.502008e+03	2.991976e+03	0	2.342971e-03
1.000000e+08	5.852570e+14	0.000000e+00	7.549671e-01	5.555540e+15	5.677468e+15	1.993185e+14	1.768401e+04	6.511229e+03	2.996219e+03	0	2.324959e-03
1.100000e+08	5.718999e+14	0.000000e+00	7.549671e-01	5.441452e+15	5.655836e+15	1.982357e+14	1.758875e+04	6.514784e+03	2.997855e+03	0	2.307136e-03
1.200000e+08	5.589065e+14	0.000000e+00	7.549671e-01	5.330444e+15	5.614597e+15	1.971609e+14	1.749544e+04	6.514021e+03	2.997503e+03	0	2.289529e-03
1.300000e+08	5.462818e+14	0.000000e+00	7.549671e-01	5.222556e+15	5.558977e+15	1.960941e+14	1.740402e+04	6.509981e+03	2.995645e+03	0	2.272159e-03
1.400000e+08	5.340252e+14	0.000000e+00	7.549671e-01	5.117778e+15	5.493024e+15	1.950351e+14	1.731444e+04	6.503469e+03	2.992648e+03	0	2.255037e-03
1.500000e+08	5.221318e+14	0.000000e+00	7.549671e-01	5.016070e+15	5.419839e+15	1.939840e+14	1.722664e+04	6.495100e+03	2.988797e+03	0	2.238171e-03
1.600000e+08	5.105946e+14	0.000000e+00	7.549671e-01	4.917371e+15	5.341781e+15	1.929406e+14	1.714058e+04	6.485349e+03	2.984310e+03	0	2.221563e-03
1.700000e+08	4.994047e+14	0.000000e+00	7.549671e-01	4.821605e+15	5.260629e+15	1.919050e+14	1.705620e+04	6.474577e+03	2.979353e+03	0	2.205214e-03
1.800000e+08	4.885521e+14	0.000000e+00	7.549671e-01	4.728689e+15	5.177719e+15	1.908770e+14	1.697345e+04	6.463063e+03	2.974055e+03	0	2.189123e-03
1.900000e+08	4.780262e+14	0.000000e+00	7.549671e-01	4.638533e+15	5.094051e+15	1.898565e+14	1.689229e+04	6.451019e+03	2.968512e+03	0	2.173287e-03
2.000000e+08	4.678163e+14	0.000000e+00	7.549671e-01	4.551046e+15	5.010363e+15	1.888436e+14	1.681267e+04	6.438608e+03	2.962801e+03	0	2.157703e-03
2.100000e+08	4.579113e+14	0.000000e+00	7.549671e-01	4.466135e+15	4.927202e+15	1.878381e+14	1.673454e+04	6.425956e+03	2.956979e+03	0	2.142366e-03
2.200000e+08	4.483006e+14	0.000000e+00	7.549671e-01	4.383711e+15	4.844962e+15	1.868400e+14	1.665786e+04	6.413157e+03	2.951090e+03	0	2.127272e-03
2.300000e+08	4.389733e+14	0.000000e+00	7.549671e-01	4.303684e+15	4.763931e+15	1.858492e+14	1.658259e+04	6.400286e+03	2.945167e+03	0	2.112415e-03
2.400000e+08	4.299193e+14	0.000000e+00	7.549671e-01	4.225965e+15	4.684308e+15	1.848657e+14	1.650869e+04	6.387398e+03	2.939236e+03	0	2.097791e-03
2.500000e+08	4.211283e+14	0.000000e+00	7.549671e-01	4.150471e+15	4.606231e+15	1.838894e+14	1.643611e+04	6.374536e+03	2.933318e+03	0	2.083393e-03
2.600000e+08	4.125906e+14	0.000000e+00	7.549671e-01	4.077119e+15	4.529789e+15	1.829202e+14	1.636482e+04	6.361734e+03	2.927427e+03	0	2.069218e-03
2.700000e+08	4.042969e+14	0.000000e+00	7.549671e-01	4.005831e+15	4.455034e+15	1.819581e+14	1.629478e+04	6.349015e+03	2.921574e+03	0	2.055259e-03
2.800000e+08	3.962381e+14	0.000000e+00	7.549671e-01	3.936530e+15	4.381994e+15	1.810031e+14	1.622596e+04	6.336399e+03	2.915769e+03	0	2.041512e-03
2.900000e+08	3.884055e+14	0.000000e+00	7.549671e-01	3.869144e+15	4.310674e+15	1.800550e+14	1.615833e+04	6.323898e+03	2.910016e+03	0	2.027970e-03
3.000000e+08	3.807908e+14	0.000000e+00	7.549671e-01	3.803603e+15	4.241065e+15	1.791138e+14	1.609185e+04	6.311524e+03	2.904322e+03	0	2.014630e-03
3.100000e+08	3.733861e+14	0.000000e+00	7.549671e-01	3.739839e+15	4.173148e+15	1.781795e+14	1.602649e+04	6.299284e+03	2.898690e+03	0	2.001486e-03
3.200000e+08	3.661836e+14	0.000000e+00	7.549671e-01	3.677789e+15	4.106896e+15	1.772520e+14	1.596222e+04	6.287182e+03	2.893121e+03	0	1.988533e-03
3.300000e+08	3.591762e+14	0.000000e+00	7.549671e-01	3.617390e+15	4.042275e+15	1.763312e+14	1.589901e+04	6.275222e+03	2.887617e+03	0	1.975767e-03
3.400000e+08	3.523567e+14	0.000000e+00	7.549671e-01	3.558585e+15	3.979247e+15	1.754171e+14	1.583683e+04	6.263405e+03	2.882180e+03	0	1.963182e-03
3.500000e+08	3.457185e+14	0.000000e+00	7.549671e-01	3.501316e+15	3.917774e+15	1.745097e+14	1.577566e+04	6.251733e+03	2.876809e+03	0	1.950776e-03
3.600000e+08	3.392551e+14	0.000000e+00	7.549671e-01	3.445529e+15	3.857814e+15	1.736088e+14	1.571546e+04	6.240206e+03	2.871504e+03	0	1.938542e-03
3.700000e+08	3.329604e+14	0.000000e+00	7.549671e-01	3.391173e+15	3.799326e+15	1.727144e+14	1.565623e+04	6.228822e+03	2.866266e+03	0	1.926478e-03
3.800000e+08	3.268286e+14	0.000000e+00	7.549671e-01	3.338198e+15	3.742266e+15	1.718265e+14	1.559792e+04	6.217582e+03	2.861093e+03	0	1.914579e-03
3.900000e+08	3.208540e+14	0.000000e+00	7.549671e-01	3.286557e+15	3.686593e+15	1.709451e+14	1.554052e+04	6.206483e+03	2.855986e+03	0	1.902840e-03
4.000000e+08	3.150312e+14	0.000000e+00	7.549671e-01	3.236205e+15	3.632265e+15	1.700700e+14	1.548400e+04	6.195523e+03	2.850943e+03	0	1.891259e-03
4.100000e+08	3.093550e+14	0.000000e+00	7.549671e-01	3.187098e+15	3.579243e+15	1.692012e+14	1.542834e+04	6.184702e+03	2.845963e+03	0	1.879831e-03
4.200000e+08	3.038205e+14	0.000000e+00	7.549671e-01	3.139194e+15	3.527484e+15	1.683387e+14	1.537353e+04	6.174017e+03	2.841046e+03	0	1.868554e-03
4.300000e+08	2.984230e+14	0.000000e+00	7.549671e-01	3.092453e+15	3.476952e+15	1.674824e+14	1.531953e+04	6.163465e+03	2.836191e+03	0	1.857422e-03
4.400000e+08	2.931579e+14	0.000000e+00	7.549671e-01	3.046837e+15	3.427607e+15	1.666322e+14	1.526634e+04	6.153044e+03	2.831396e+03	0	1.846434e-03
4.500000e+08	2.880209e+14	0.000000e+00	7.549671e-01	3.002310e+15	3.379414e+15	1.657882e+14	1.521392e+04	6.142753e+03	2.826660e+03	0	1.835585e-03
4.600000e+08	2.830077e+14	0.000000e+00	7.549671e-01	2.958835e+15	3.332337e+15	1.649502e+14	1.516227e+04	6.132588e+03	2.821983e+03	0	1.824873e-03
4.700000e+08	2.781144e+14	0.000000e+00	7.549671e-01	2.916380e+15	3.286340e+15	1.641182e+14	1.511136e+04	6.122548e+03	2.817362e+03	0	1.814294e-03
4.800000e+08	2.733371e+14	0.000000e+00	7.549671e-01	2.874911e+15	3.241392e+15	1.632922e+14	1.506118e+04	6.112629e+03	2.812798e+03	0	1.803846e-03
4.900000e+08	2.686721e+14	0.000000e+00	7.549671e-01	2.834399e+15	3.197460e+15	1.624721e+14	1.501171e+04	6.102831e+03	2.808290e+03	0	1.793525e-03
5.000000e+08	2.641158e+14	0.000000e+00	7.549671e-01	2.794811e+15	3.154513e+15	1.616579e+14	1.496294e+04	6.093150e+03	2.803835e+03	0	1.783328e-03
5.100000e+08	2.596649e+14	0.000000e+00	7.549671e-01	2.756121e+15	3.112521e+15	1.608494e+14	1.491484e+04	6.083585e+03	2.799433e+03	0	1.773254e-03
5.200000e+08	2.553161e+14	0.000000e+00	7.549671e-01	2.718300e+15	3.071456e+15	1.600468e+14	1.486741e+04	6.074132e+03	2.795083e+03	0	1.763299e-03
5.300000e+08	2.510663e+14	0.000000e+00	7.549671e-01	2.681321e+15	3.031289e+15	1.592499e+14	1.482062e+04	6.064791e+03	2.790785e+03	0	1.753460e-03
5.400000e+08	2.469123e+14	0.000000e+00	7.549671e-01	2.645160e+15	2.991994e+15	1.584586e+14	1.477447e+04	6.055558e+03	2.786536e+03	0	1.743736e-03
5.500000e+08	2.428513e+14	0.000000e+00	7.549671e-01	2.609791e+15	2.953545e+15	1.576730e+14	1.472894e+04	6.046432e+03	2.782337e+03	0	1.734123e-03
5.600000e+08	2.388805e+14	0.000000e+00	7.549671e-01	2.575190e+15	2.915917e+15	1.568930e+14	1.468401e+04	6.037410e+03	2.778185e+03	0	1.724620e-03
5.700000e+08	2.349972e+14	0.000000e+00	7.549671e-01	2.541336e+15	2.879086e+15	1.561185e+14	1.463968e+04	6.028491e+03	2.774081e+03	0	1.715224e-03
5.800000e+08	2.311988e+14	0.000000e+00	7.549671e-01	2.508206e+15	2.843030e+15	1.553495e+14	1.459592e+04	6.019673e+03	2.770023e+03	0	1.705932e-03
5.900000e+08	2.274828e+14	0.000000e+00	7.549671e-01	2.475779e+15	2.807725e+15	1.545859e+14	1.455274e+04	6.010954e+03	2.766011e+03	0	1.696743e-03
6.000000e+08	2.238468e+14	0.000000e+00	7.549671e-01	2.444034e+15	2.773150e+15	1.538278e+14	1.451011e+04	6.002331e+03	2.762043e+03	0	1.687654e-03
6.100000e+08	2.202884e+14	0.000000e+00	7.549671e-01	2.412953e+15	2.739285e+15	1.530750e+14	1.446802e+04	5.993804e+03	2.758119e+03	0	1.678664e-03
6.200000e+08	2.168055e+14	0.000000e+00	7.549671e-01	2.382515e+15	2.706109e+15	1.523276e+14	1.442647e+04	5.985370e+03	2.754238e+03	0	1.669770e-03
6.300000e+08	2.133959e+14	0.000000e+00	7.549671e-01	2.352704e+15	2.673603e+15	1.515854e+14	1.438544e+04	5.977028e+03	2.750400e+03	0	1.660970e-03
6.400000e+08	2.100574e+14	0.000000e+00	7.549671e-01	2.323501e+15	2.641749e+15	1.508484e+14	1.434493e+04	5.968775e+03	2.746602e+03	0	1.652263e-03
6.500000e+08	2.067882e+14	0.000000e+00	7.549671e-01	2.294889e+15	2.610528e+15	1.501167e+14	1.430491e+04	5.960611e+03	2.742845e+03	0	1.643646e-03
6.600000e+08	2.035862e+14	0.000000e+00	7.549671e-01	2.266852e+15	2.579923e+15	1.493901e+14	1.426538e+04	5.952533e+03	2.739128e+03	0	1.635119e-03
6.700000e+08	2.004496e+14	0.000000e+00	7.549671e-01	2.239374e+15	2.549918e+15	1.486686e+14	1.422634e+04	5.944541e+03	2.735450e+03	0	1.626678e-03
6.800000e+08	1.973766e+14	0.000000e+00	7.549671e-01	2.212440e+15	2.520496e+15	1.479521e+14	1.418776e+04	5.936632e+03	2.731811e+03	0	1.618322e-03
6.900000e+08	1.943655e+14	0.000000e+00	7.549671e-01	2.186036e+15	2.491642e+15	1.472407e+14	1.414965e+04	5.928805e+03	2.728209e+03	0	1.610051e-03
7.000000e+08	1.914146e+14	0.000000e+00	7.549671e-01	2.160146e+15	2.463339e+15	1.465343e+14	1.411200e+04	5.921059e+03	2.724645e+03	0	1.601861e-03
7.100000e+08	1.885222e+14	0.000000e+00	7.549671e-01	2.134758e+15	2.435575e+15	1.458328e+14	1.407478e+04	5.913392e+03	2.721117e+03	0	1.593752e-03
7.200000e+08	1.856868e+14	0.000000e+00	7.549671e-01	2.109858e+15	2.408335e+15	1.451363e+14	1.403800e+04	5.905802e+03	2.717625e+03	0	1.585721e-03
7.300000e+08	1.829068e+14	0.000000e+00	7.549671e-01	2.085432e+15	2.381604e+15	1.444446e+14	1.400165e+04	5.898289e+03	2.714167e+03	0	1.577768e-03
7.400000e+08	1.801809e+14	0.000000e+00	7.549671e-01	2.061470e+15	2.355370e+15	1.437577e+14	1.396572e+04	5.890852e+03	2.710745e+03	0	1.569891e-03
7.500000e+08	1.775076e+14	0.000000e+00	7.549671e-01	2.037958e+15	2.329621e+15	1.430756e+14	1.393020e+04	5.883488e+03	2.707356e+03	0	1.562088e-03
7.600000e+08	1.748855e+14	0.000000e+00	7.549671e-01	2.014886e+15	2.304343e+15	1.423983e+14	1.389508e+04	5.876196e+03	2.704001e+03	0	1.554358e-03
7.700000e+08	1.723134e+14	0.000000e+00	7.549671e-01	1.992241e+15	2.279524e+15	1.417256e+14	1.386036e+04	5.868976e+03	2.700679e+03	0	1.546700e-03
7.800000e+08	1.697898e+14	0.000000e+00	7.549671e-01	1.970013e+15	2.255154e+15	1.410577e+14	1.382603e+04	5.861827e+03	2.697389e+03	0	1.539113e-03
7.900000e+08	1.673136e+14	0.000000e+00	7.549671e-01	1.948192e+15	2.231221e+15	1.403944e+14	1.379208e+04	5.854746e+03	2.694130e+03	0	1.531594e-03
8.000000e+08	1.648836e+14	0.000000e+00	7.549671e-01	1.926767e+15	2.207714e+15	1.397357e+14	1.375851e+04	5.847732e+03	2.690903e+03	0	1.524143e-03
8.100000e+08	1.624986e+14	0.000000e+00	7.549671e-01	1.905729e+15	2.184623e+15	1.390815e+14	1.372530e+04	5.840786e+03	2.687706e+03	0	1.516758e-03
8.200000e+08	1.601575e+14	0.000000e+00	7.549671e-01	1.885068e+15	2.161937e+15	1.384319e+14	1.369245e+04	5.833905e+03	2.684540e+03	0	1.509439e-03
8.300000e+08	1.578593e+14	0.000000e+00	7.549671e-01	1.864774e+15	2.139646e+15	1.377868e+14	1.365996e+04	5.827089e+03	2.681404e+03	0	1.502184e-03
8.400000e+08	1.556027e+14	0.000000e+00	7.549671e-01	1.844839e+15	2.117741e+15	1.371461e+14	1.362782e+04	5.820336e+03	2.678296e+03	0	1.494992e-03
8.500000e+08	1.533869e+14	0.000000e+00	7.549671e-01	1.825253e+15	2.096214e+15	1.365099e+14	1.359602e+04	5.813646e+03	2.675217e+03	0	1.487862e-03
8.600000e+08	1.512108e+14	0.000000e+00	7.549671e-01	1.806010e+15	2.075053e+15	1.358780e+14	1.356456e+04	5.807017e+03	2.672167e+03	0	1.480792e-03
8.700000e+08	1.490735e+14	0.000000e+00	7.549671e-01	1.787099e+15	2.054252e+15	1.352505e+14	1.353342e+04	5.800448e+03	2.669144e+03	0	1.473782e-03
8.800000e+08	1.469740e+14	0.000000e+00	7.549671e-01	1.768514e+15	2.033802e+15	1.346273e+14	1.350262e+04	5.793939e+03	2.666149e+03	0	1.466831e-03
8.900000e+08	1.449114e+14	0.000000e+00	7.549671e-01	1.750247e+15	2.013694e+15	1.340084e+14	1.347213e+04	5.787489e+03	2.663181e+03	0	1.459937e-03
9.000000e+08	1.428849e+14	0.000000e+00	7.549671e-01	1.732290e+15	1.993920e+15	1.333937e+14	1.344195e+04	5.781096e+03	2.660239e+03	0	1.453099e-03
9.100000e+08	1.408936e+14	0.000000e+00	7.549671e-01	1.714637e+15	1.974472e+15	1.327833e+14	1.341209e+04	5.774760e+03	2.657324e+03	0	1.446317e-03
9.200000e+08	1.389367e+14	0.000000e+00	7.549671e-01	1.697279e+15	1.955344e+15	1.321770e+14	1.338252e+04	5.768480e+03	2.654434e+03	0	1.439590e-03
9.300000e+08	1.370134e+14	0.000000e+00	7.549671e-01	1.680210e+15	1.936528e+15	1.315749e+14	1.335326e+04	5.762255e+03	2.651570e+03	0	1.432916e-03
9.400000e+08	1.351228e+14	0.000000e+00	7.549671e-01	1.663424e+15	1.918017e+15	1.309769e+14	1.332429e+04	5.756084e+03	2.648730e+03	0	1.426295e-03
9.500000e+08	1.332643e+14	0.000000e+00	7.549671e-01	1.646914e+15	1.899804e+15	1.303830e+14	1.329560e+04	5.749967e+03	2.645915e+03	0	1.419726e-03
9.600000e+08	1.314371e+14	0.000000e+00	7.549671e-01	1.630675e+15	1.881882e+15	1.297931e+14	1.326721e+04	5.743902e+03	2.643124e+03	0	1.413207e-03
9.700000e+08	1.296405e+14	0.000000e+00	7.549671e-01	1.614699e+15	1.864244e+15	1.292072e+14	1.323909e+04	5.737889e+03	2.640357e+03	0	1.406739e-03
9.800000e+08	1.278739e+14	0.000000e+00	7.549671e-01	1.598980e+15	1.846886e+15	1.286254e+14	1.321124e+04	5.731927e+03	2.637614e+03	0	1.400319e-03
9.900000e+08	1.261364e+14	0.000000e+00	7.549671e-01	1.583515e+15	1.829799e+15	1.280474e+14	1.318367e+04	5.726016e+03	2.634894e+03	0	1.393948e-03
1.000000e+09	1.244275e+14	0.000000e+00	7.549671e-01	1.568295e+15	1.812980e+15	1.274734e+14	1.315636e+04	5.720153e+03	2.632196e+03	0	1.387625e-03
1.010000e+09	1.227466e+14	0.000000e+00	7.549671e-01	1.553317e+15	1.796421e+15	1.269033e+14	1.312931e+04	5.714340e+03	2.629521e+03	0	1.381348e-03
1.020000e+09	1.210930e+14	0.000000e+00	7.549671e-01	1.538575e+15	1.780116e+15	1.263371e+14	1.310252e+04	5.708575e+03	2.626868e+03	0	1.375116e-03
1.030000e+09	1.194661e+14	0.000000e+00	7.549671e-01	1.524064e+15	1.764062e+15	1.257747e+14	1.307598e+04	5.702857e+03	2.624237e+03	0	1.368930e-03
1.040000e+09	1.178654e+14	0.000000e+00	7.549671e-01	1.509779e+15	1.748252e+15	1.252161e+14	1.304970e+04	5.697186e+03	2.621627e+03	0	1.362789e-03
1.050000e+09	1.162902e+14	0.000000e+00	7.549671e-01	1.495715e+15	1.732681e+15	1.246612e+14	1.302365e+04	5.691561e+03	2.619039e+03	0	1.356691e-03
1.060000e+09	1.147401e+14	0.000000e+00	7.549671e-01	1.481867e+15	1.717343e+15	1.241101e+14	1.299786e+04	5.685982e+03	2.616471e+03	0	1.350636e-03
1.070000e+09	1.132144e+14	0.000000e+00	7.549671e-01	1.468231e+15	1.702236e+15	1.235628e+14	1.297229e+04	5.680447e+03	2.613925e+03	0	1.344623e-03
1.080000e+09	1.117127e+14	0.000000e+00	7.549671e-01	1.454803e+15	1.687352e+15	1.230191e+14	1.294697e+04	5.674956e+03	2.611398e+03	0	1.338651e-03
1.090000e+09	1.102345e+14	0.000000e+00	7.549671e-01	1.441577e+15	1.672688e+15	1.224790e+14	1.292187e+04	5.669509e+03	2.608891e+03	0	1.332720e-03
1.100000e+09	1.087792e+14	0.000000e+00	7.549671e-01	1.428550e+15	1.658240e+15	1.219426e+14	1.289700e+04	5.664105e+03	2.606405e+03	0	1.326830e-03
1.110000e+09	1.073464e+14	0.000000e+00	7.549671e-01	1.415718e+15	1.644002e+15	1.214098e+14	1.287236e+04	5.658743e+03	2.603937e+03	0	1.320978e-03
1.120000e+09	1.059357e+14	0.000000e+00	7.549671e-01	1.403076e+15	1.629971e+15	1.208805e+14	1.284794e+04	5.653424e+03	2.601489e+03	0	1.315166e-03
1.130000e+09	1.045464e+14	0.000000e+00	7.549671e-01	1.390621e+15	1.616142e+15	1.203548e+14	1.282373e+04	5.648145e+03	2.599060e+03	0	1.309392e-03
1.140000e+09	1.031783e+14	0.000000e+00	7.549671e-01	1.378349e+15	1.602512e+15	1.198326e+14	1.279974e+04	5.642907e+03	2.596650e+03	0	1.303655e-03
1.150000e+09	1.018309e+14	0.000000e+00	7.549671e-01	1.366256e+15	1.589075e+15	1.193139e+14	1.277596e+04	5.637709e+03	2.594258e+03	0	1.297955e-03
1.160000e+09	1.005037e+14	0.000000e+00	7.549671e-01	1.354339e+15	1.575830e+15	1.187987e+14	1.275238e+04	5.632550e+03	2.591884e+03	0	1.292292e-03
1.170000e+09	9.919635e+13	0.000000e+00	7.549671e-01	1.342594e+15	1.562771e+15	1.182869e+14	1.272902e+04	5.627431e+03	2.589529e+03	0	1.286664e-03
1.180000e+09	9.790845e+13	0.000000e+00	7.549671e-01	1.331017e+15	1.549895e+15	1.177785e+14	1.270585e+04	5.622350e+03	2.587191e+03	0	1.281071e-03
1.190000e+09	9.663959e+13	0.000000e+00	7.549671e-01	1.319606e+15	1.537198e+15	1.172734e+14	1.268288e+04	5.617307e+03	2.584870e+03	0	1.275513e-03
1.200000e+09	9.538941e+13	0.000000e+00	7.549671e-01	1.308357e+15	1.524678e+15	1.167718e+14	1.266011e+04	5.612302e+03	2.582567e+03	0	1.269989e-03
1.210000e+09	9.415753e+13	0.000000e+00	7.549671e-01	1.297267e+15	1.512330e+15	1.162734e+14	1.263754e+04	5.607333e+03	2.580280e+03	0	1.264498e-03
1.220000e+09	9.294359e+13	0.000000e+00	7.549671e-01	1.286332e+15	1.500151e+15	1.157784e+14	1.261515e+04	5.602402e+03	2.578011e+03	0	1.259040e-03
1.230000e+09	9.174723e+13	0.000000e+00	7.549671e-01	1.275551e+15	1.488138e+15	1.152866e+14	1.259296e+04	5.597506e+03	2.575758e+03	0	1.253615e-03
1.240000e+09	9.056811e+13	0.000000e+00	7.549671e-01	1.264919e+15	1.476289e+15	1.147981e+14	1.257094e+04	5.592646e+03	2.573522e+03	0	1.248221e-03
1.250000e+09	8.940589e+13	0.000000e+00	7.549671e-01	1.254434e+15	1.464599e+15	1.143128e+14	1.254911e+04	5.587821e+03	2.571302e+03	0	1.242859e-03
1.260000e+09	8.826026e+13	0.000000e+00	7.549671e-01	1.244094e+15	1.453065e+15	1.138307e+14	1.252747e+04	5.583031e+03	2.569097e+03	0	1.237528e-03
1.270000e+09	8.713088e+13	0.000000e+00	7.549671e-01	1.233895e+15	1.441686e+15	1.133518e+14	1.250600e+04	5.578275e+03	2.566909e+03	0	1.232226e-03
1.280000e+09	8.601745e+13	0.000000e+00	7.549671e-01	1.223834e+15	1.430457e+15	1.128760e+14	1.248470e+04	5.573553e+03	2.564736e+03	0	1.226955e-03
1.290000e+09	8.491966e+13	0.000000e+00	7.549671e-01	1.213910e+15	1.419377e+15	1.124033e+14	1.246358e+04	5.568864e+03	2.562578e+03	0	1.221713e-03
1.300000e+09	8.383722e+13	0.000000e+00	7.549671e-01	1.204119e+15	1.408442e+15	1.119338e+14	1.244263e+04	5.564209e+03	2.560436e+03	0	1.216500e-03
1.310000e+09	8.276983e+13	0.000000e+00	7.549671e-01	1.194460e+15	1.397650e+15	1.114673e+14	1.242185e+04	5.559586e+03	2.558309e+03	0	1.211315e-03
1.320000e+09	8.171721e+13	0.000000e+00	7.549671e-01	1.184929e+15	1.386998e+15	1.110039e+14	1.240123e+04	5.554995e+03	2.556196e+03	0	1.206158e-03
1.330000e+09	8.067910e+13	0.000000e+00	7.549671e-01	1.175524e+15	1.376484e+15	1.105435e+14	1.238078e+04	5.550436e+03	2.554098e+03	0	1.201029e-03
1.340000e+09	7.965521e+13	0.000000e+00	7.549671e-01	1.166244e+15	1.366105e+15	1.100862e+14	1.236049e+04	5.545908e+03	2.552015e+03	0	1.195927e-03
1.350000e+09	7.864528e+13	0.000000e+00	7.549671e-01	1.157085e+15	1.355858e+15	1.096318e+14	1.234036e+04	5.541412e+03	2.549946e+03	0	1.190851e-03
1.360000e+09	7.764906e+13	0.000000e+00	7.549671e-01	1.148046e+15	1.345742e+15	1.091804e+14	1.232038e+04	5.536946e+03	2.547891e+03	0	1.185801e-03
