#t		Qconv[W]	Ri[Rp]		R*[Rp]		Qc[W]		Qm[W]		Qr[W]		Tcmb[K]		Tl[K]		Tup[K]		RiFlag		Bs[T]
0.000000e+00	9.069230e+14	0.000000e+00	7.549671e-01	8.321063e+15	3.043322e+15	2.366046e+14	2.038936e+04	6.018984e+03	2.682350e+03	0	2.680627e-03
1.000000e+07	8.957106e+14	0.000000e+00	7.549671e-01	8.225640e+15	3.833218e+15	2.352937e+14	2.027182e+04	6.258619e+03	2.789143e+03	0	2.669534e-03
2.000000e+07	8.821075e+14	0.000000e+00	7.549671e-01	8.111331e+15	4.577535e+15	2.339925e+14	2.015561e+04	6.457425e+03	2.877740e+03	0	2.655951e-03
3.000000e+07	8.668045e+14	0.000000e+00	7.549671e-01	7.983632e+15	5.234231e+15	2.327011e+14	2.004100e+04	6.617713e+03	2.949172e+03	0	2.640503e-03
4.000000e+07	8.503949e+14	0.000000e+00	7.549671e-01	7.847257e+15	5.780952e+15	2.314193e+14	1.992819e+04	6.743575e+03	3.005263e+03	0	2.623734e-03
5.000000e+07	8.333475e+14	0.000000e+00	7.549671e-01	7.705930e+15	6.212578e+15	2.301470e+14	1.981729e+04	6.839959e+03	3.048216e+03	0	2.606083e-03
6.000000e+07	8.160109e+14	0.000000e+00	7.549671e-01	7.562419e+15	6.535913e+15	2.288843e+14	1.970838e+04	6.911926e+03	3.080288e+03	0	2.587884e-03
7.000000e+07	7.986333e+14	0.000000e+00	7.549671e-01	7.418695e+15	6.764279e+15	2.276309e+14	1.960149e+04	6.964178e+03	3.103574e+03	0	2.569382e-03
8.000000e+07	7.813859e+14	0.000000e+00	7.549671e-01	7.276116e+15	6.913362e+15	2.263869e+14	1.949661e+04	7.000810e+03	3.119899e+03	0	2.550751e-03
9.000000e+07	7.643833e+14	0.000000e+00	7.549671e-01	7.135589e+15	6.998582e+15	2.251521e+14	1.939374e+04	7.025243e+03	3.130788e+03	0	2.532114e-03
1.000000e+08	7.477003e+14	0.000000e+00	7.549671e-01	6.997705e+15	7.033732e+15	2.239265e+14	1.929284e+04	7.040249e+03	3.137475e+03	0	2.513557e-03
1.100000e+08	7.313839e+14	0.000000e+00	7.549671e-01	6.862836e+15	7.030454e+15	2.227100e+14	1.919388e+04	7.048026e+03	3.140941e+03	0	2.495139e-03
1.200000e+08	7.154620e+14	0.000000e+00	7.549671e-01	6.731200e+15	6.998208e+15	2.215025e+14	1.909682e+04	7.050295e+03	3.141952e+03	0	2.476899e-03
1.300000e+08	6.999491e+14	0.000000e+00	7.549671e-01	6.602910e+15	6.944492e+15	2.203040e+14	1.900160e+04	7.048388e+03	3.141102e+03	0	2.458867e-03
1.400000e+08	6.848509e+14	0.000000e+00	7.549671e-01	6.478009e+15	6.875138e+15	2.191143e+14	1.890819e+04	7.043329e+03	3.138848e+03	0	2.441059e-03
1.500000e+08	6.701669e+14	0.000000e+00	7.549671e-01	6.356490e+15	6.794629e+15	2.179334e+14	1.881654e+04	7.035905e+03	3.135539e+03	0	2.423486e-03
1.600000e+08	6.558924e+14	0.000000e+00	7.549671e-01	6.238313e+15	6.706378e+15	2.167612e+14	1.872660e+04	7.026714e+03	3.131443e+03	0	2.406156e-03
1.700000e+08	6.420200e+14	0.000000e+00	7.549671e-01	6.123416e+15	6.612963e+15	2.155977e+14	1.863832e+04	7.016214e+03	3.126764e+03	0	2.389071e-03
1.800000e+08	6.285402e+14	0.000000e+00	7.549671e-01	6.011722e+15	6.516323e+15	2.144428e+14	1.855166e+04	7.004755e+03	3.121657e+03	0	2.372232e-03
1.900000e+08	6.154426e+14	0.000000e+00	7.549671e-01	5.903146e+15	6.417909e+15	2.132963e+14	1.846657e+04	6.992603e+03	3.116242e+03	0	2.355639e-03
2.000000e+08	6.027160e+14	0.000000e+00	7.549671e-01	5.797596e+15	6.318799e+15	2.121583e+14	1.838301e+04	6.979962e+03	3.110608e+03	0	2.339288e-03
2.100000e+08	5.903488e+14	0.000000e+00	7.549671e-01	5.694980e+15	6.219789e+15	2.110287e+14	1.830093e+04	6.966985e+03	3.104825e+03	0	2.323178e-03
2.200000e+08	5.783294e+14	0.000000e+00	7.549671e-01	5.595201e+15	6.121464e+15	2.099074e+14	1.822030e+04	6.953792e+03	3.098946e+03	0	2.307303e-03
2.300000e+08	5.666461e+14	0.000000e+00	7.549671e-01	5.498165e+15	6.024250e+15	2.087943e+14	1.814107e+04	6.940474e+03	3.093010e+03	0	2.291660e-03
2.400000e+08	5.552876e+14	0.000000e+00	7.549671e-01	5.403780e+15	5.928449e+15	2.076893e+14	1.806321e+04	6.927099e+03	3.087050e+03	0	2.276244e-03
2.500000e+08	5.442426e+14	0.000000e+00	7.549671e-01	5.311956e+15	5.834276e+15	2.065925e+14	1.798668e+04	6.913719e+03	3.081087e+03	0	2.261051e-03
2.600000e+08	5.335003e+14	0.000000e+00	7.549671e-01	5.222602e+15	5.741874e+15	2.055037e+14	1.791145e+04	6.900375e+03	3.075140e+03	0	2.246076e-03
2.700000e+08	5.230500e+14	0.000000e+00	7.549671e-01	5.135635e+15	5.651338e+15	2.044228e+14	1.783747e+04	6.887098e+03	3.069223e+03	0	2.231314e-03
2.800000e+08	5.128816e+14	0.000000e+00	7.549671e-01	5.050971e+15	5.562723e+15	2.033498e+14	1.776472e+04	6.873909e+03	3.063346e+03	0	2.216759e-03
2.900000e+08	5.029852e+14	0.000000e+00	7.549671e-01	4.968530e+15	5.476054e+15	2.022847e+14	1.769316e+04	6.860826e+03	3.057515e+03	0	2.202409e-03
3.000000e+08	4.933514e+14	0.000000e+00	7.549671e-01	4.888236e+15	5.391338e+15	2.012273e+14	1.762277e+04	6.847862e+03	3.051738e+03	0	2.188257e-03
3.100000e+08	4.839710e+14	0.000000e+00	7.549671e-01	4.810014e+15	5.308563e+15	2.001777e+14	1.755350e+04	6.835025e+03	3.046017e+03	0	2.174299e-03
3.200000e+08	4.748353e+14	0.000000e+00	7.549671e-01	4.733793e+15	5.227707e+15	1.991356e+14	1.748534e+04	6.822323e+03	3.040356e+03	0	2.160531e-03
3.300000e+08	4.659359e+14	0.000000e+00	7.549671e-01	4.659505e+15	5.148739e+15	1.981012e+14	1.741826e+04	6.809760e+03	3.034758e+03	0	2.146948e-03
3.400000e+08	4.572646e+14	0.000000e+00	7.549671e-01	4.587085e+15	5.071623e+15	1.970742e+14	1.735222e+04	6.797338e+03	3.029222e+03	0	2.133546e-03
3.500000e+08	4.488138e+14	0.000000e+00	7.549671e-01	4.516470e+15	4.996318e+15	1.960547e+14	1.728720e+04	6.785059e+03	3.023750e+03	0	2.120321e-03
3.600000e+08	4.405760e+14	0.000000e+00	7.549671e-01	4.447599e+15	4.922781e+15	1.950426e+14	1.722318e+04	6.772924e+03	3.018342e+03	0	2.107268e-03
3.700000e+08	4.325441e+14	0.000000e+00	7.549671e-01	4.380414e+15	4.850966e+15	1.940379e+14	1.716013e+04	6.760932e+03	3.012998e+03	0	2.094384e-03
3.800000e+08	4.247111e+14	0.000000e+00	7.549671e-01	4.314860e+15	4.780828e+15	1.930404e+14	1.709803e+04	6.749084e+03	3.007717e+03	0	2.081665e-03
3.900000e+08	4.170706e+14	0.000000e+00	7.549671e-01	4.250883e+15	4.712320e+15	1.920501e+14	1.703686e+04	6.737377e+03	3.002500e+03	0	2.069106e-03
4.000000e+08	4.096163e+14	0.000000e+00	7.549671e-01	4.188432e+15	4.645397e+15	1.910669e+14	1.697658e+04	6.725811e+03	2.997346e+03	0	2.056705e-03
4.100000e+08	4.023420e+14	0.000000e+00	7.549671e-01	4.127458e+15	4.580013e+15	1.900909e+14	1.691719e+04	6.714383e+03	2.992253e+03	0	2.044457e-03
4.200000e+08	3.952420e+14	0.000000e+00	7.549671e-01	4.067914e+15	4.516124e+15	1.891219e+14	1.685866e+04	6.703093e+03	2.987222e+03	0	2.032360e-03
4.300000e+08	3.883107e+14	0.000000e+00	7.549671e-01	4.009754e+15	4.453685e+15	1.881599e+14	1.680097e+04	6.691937e+03	2.982250e+03	0	2.020409e-03
4.400000e+08	3.815428e+14	0.000000e+00	7.549671e-01	3.952935e+15	4.392655e+15	1.872047e+14	1.674410e+04	6.680913e+03	2.977338e+03	0	2.008602e-03
4.500000e+08	3.749330e+14	0.000000e+00	7.549671e-01	3.897415e+15	4.332991e+15	1.862565e+14	1.668804e+04	6.670021e+03	2.972483e+03	0	1.996936e-03
4.600000e+08	3.684765e+14	0.000000e+00	7.549671e-01	3.843153e+15	4.274654e+15	1.853150e+14	1.663275e+04	6.659256e+03	2.967686e+03	0	1.985407e-03
4.700000e+08	3.621684e+14	0.000000e+00	7.549671e-01	3.790111e+15	4.217604e+15	1.843804e+14	1.657824e+04	6.648618e+03	2.962945e+03	0	1.974012e-03
4.800000e+08	3.560043e+14	0.000000e+00	7.549671e-01	3.738252e+15	4.161803e+15	1.834524e+14	1.652447e+04	6.638104e+03	2.958259e+03	0	1.962748e-03
4.900000e+08	3.499796e+14	0.000000e+00	7.549671e-01	3.687540e+15	4.107216e+15	1.825310e+14	1.647144e+04	6.627711e+03	2.953628e+03	0	1.951613e-03
5.000000e+08	3.440903e+14	0.000000e+00	7.549671e-01	3.637940e+15	4.053805e+15	1.816163e+14	1.641912e+04	6.617437e+03	2.949049e+03	0	1.940604e-03
5.100000e+08	3.383321e+14	0.000000e+00	7.549671e-01	3.589419e+15	4.001538e+15	1.807080e+14	1.636750e+04	6.607281e+03	2.944523e+03	0	1.929718e-03
5.200000e+08	3.327012e+14	0.000000e+00	7.549671e-01	3.541946e+15	3.950381e+15	1.798063e+14	1.631657e+04	6.597240e+03	2.940049e+03	0	1.918953e-03
5.300000e+08	3.271939e+14	0.000000e+00	7.549671e-01	3.495489e+15	3.900303e+15	1.789110e+14	1.626631e+04	6.587312e+03	2.935624e+03	0	1.908306e-03
5.400000e+08	3.218064e+14	0.000000e+00	7.549671e-01	3.450020e+15	3.851271e+15	1.780220e+14	1.621670e+04	6.577495e+03	2.931249e+03	0	1.897774e-03
5.500000e+08	3.165353e+14	0.000000e+00	7.549671e-01	3.405508e+15	3.803257e+15	1.771394e+14	1.616774e+04	6.567787e+03	2.926923e+03	0	1.887355e-03
5.600000e+08	3.113773e+14	0.000000e+00	7.549671e-01	3.361928e+15	3.756231e+15	1.762631e+14	1.611941e+04	6.558185e+03	2.922644e+03	0	1.877047e-03
5.700000e+08	3.063289e+14	0.000000e+00	7.549671e-01	3.319253e+15	3.710167e+15	1.753930e+14	1.607169e+04	6.548689e+03	2.918412e+03	0	1.866848e-03
5.800000e+08	3.013872e+14	0.000000e+00	7.549671e-01	3.277456e+15	3.665036e+15	1.745290e+14	1.602458e+04	6.539295e+03	2.914226e+03	0	1.856754e-03
5.900000e+08	2.965491e+14	0.000000e+00	7.549671e-01	3.236513e+15	3.620814e+15	1.736712e+14	1.597806e+04	6.530003e+03	2.910085e+03	0	1.846765e-03
6.000000e+08	2.918117e+14	0.000000e+00	7.549671e-01	3.196401e+15	3.577475e+15	1.728195e+14	1.593212e+04	6.520810e+03	2.905988e+03	0	1.836878e-03
6.100000e+08	2.871721e+14	0.000000e+00	7.549671e-01	3.157097e+15	3.534994e+15	1.719738e+14	1.588674e+04	6.511715e+03	2.901934e+03	0	1.827091e-03
6.200000e+08	2.826277e+14	0.000000e+00	7.549671e-01	3.118578e+15	3.493350e+15	1.711340e+14	1.584192e+04	6.502715e+03	2.897924e+03	0	1.817402e-03
6.300000e+08	2.781758e+14	0.000000e+00	7.549671e-01	3.080822e+15	3.452518e+15	1.703002e+14	1.579764e+04	6.493809e+03	2.893955e+03	0	1.807810e-03
6.400000e+08	2.738140e+14	0.000000e+00	7.549671e-01	3.043810e+15	3.412477e+15	1.694723e+14	1.575390e+04	6.484996e+03	2.890027e+03	0	1.798311e-03
6.500000e+08	2.695397e+14	0.000000e+00	7.549671e-01	3.007522e+15	3.373207e+15	1.686502e+14	1.571068e+04	6.476274e+03	2.886140e+03	0	1.788904e-03
6.600000e+08	2.653506e+14	0.000000e+00	7.549671e-01	2.971937e+15	3.334687e+15	1.678339e+14	1.566798e+04	6.467640e+03	2.882293e+03	0	1.779588e-03
6.700000e+08	2.612444e+14	0.000000e+00	7.549671e-01	2.937038e+15	3.296897e+15	1.670233e+14	1.562578e+04	6.459095e+03	2.878484e+03	0	1.770361e-03
6.800000e+08	2.572189e+14	0.000000e+00	7.549671e-01	2.902806e+15	3.259818e+15	1.662184e+14	1.558407e+04	6.450635e+03	2.874714e+03	0	1.761221e-03
6.900000e+08	2.532720e+14	0.000000e+00	7.549671e-01	2.869224e+15	3.223431e+15	1.654192e+14	1.554285e+04	6.442260e+03	2.870982e+03	0	1.752166e-03
7.000000e+08	2.494016e+14	0.000000e+00	7.549671e-01	2.836276e+15	3.187720e+15	1.646255e+14	1.550210e+04	6.433969e+03	2.867287e+03	0	1.743195e-03
7.100000e+08	2.456057e+14	0.000000e+00	7.549671e-01	2.803944e+15	3.152666e+15	1.638374e+14	1.546182e+04	6.425759e+03	2.863628e+03	0	1.734306e-03
7.200000e+08	2.418825e+14	0.000000e+00	7.549671e-01	2.772213e+15	3.118252e+15	1.630549e+14	1.542199e+04	6.417629e+03	2.860005e+03	0	1.725497e-03
7.300000e+08	2.382300e+14	0.000000e+00	7.549671e-01	2.741068e+15	3.084464e+15	1.622778e+14	1.538262e+04	6.409579e+03	2.856418e+03	0	1.716768e-03
7.400000e+08	2.346463e+14	0.000000e+00	7.549671e-01	2.710494e+15	3.051285e+15	1.615061e+14	1.534368e+04	6.401606e+03	2.852865e+03	0	1.708116e-03
7.500000e+08	2.311299e+14	0.000000e+00	7.549671e-01	2.680476e+15	3.018700e+15	1.607398e+14	1.530518e+04	6.393710e+03	2.849346e+03	0	1.699541e-03
7.600000e+08	2.276790e+14	0.000000e+00	7.549671e-01	2.651002e+15	2.986694e+15	1.599789e+14	1.526710e+04	6.385888e+03	2.845860e+03	0	1.691040e-03
7.700000e+08	2.242919e+14	0.000000e+00	7.549671e-01	2.622056e+15	2.955253e+15	1.592232e+14	1.522944e+04	6.378141e+03	2.842408e+03	0	1.682612e-03
7.800000e+08	2.209670e+14	0.000000e+00	7.549671e-01	2.593627e+15	2.924364e+15	1.584728e+14	1.519219e+04	6.370467e+03	2.838988e+03	0	1.674257e-03
7.900000e+08	2.177029e+14	0.000000e+00	7.549671e-01	2.565702e+15	2.894012e+15	1.577276e+14	1.515535e+04	6.362864e+03	2.835599e+03	0	1.665972e-03
8.000000e+08	2.144980e+14	0.000000e+00	7.549671e-01	2.538269e+15	2.864186e+15	1.569876e+14	1.511889e+04	6.355331e+03	2.832242e+03	0	1.657756e-03
8.100000e+08	2.113508e+14	0.000000e+00	7.549671e-01	2.511315e+15	2.834872e+15	1.562526e+14	1.508283e+04	6.347868e+03	2.828917e+03	0	1.649608e-03
8.200000e+08	2.082601e+14	0.000000e+00	7.549671e-01	2.484829e+15	2.806058e+15	1.555228e+14	1.504715e+04	6.340473e+03	2.825621e+03	0	1.641528e-03
8.300000e+08	2.052244e+14	0.000000e+00	7.549671e-01	2.458801e+15	2.777733e+15	1.547981e+14	1.501184e+04	6.333146e+03	2.822355e+03	0	1.633513e-03
8.400000e+08	2.022424e+14	0.000000e+00	7.549671e-01	2.433219e+15	2.749885e+15	1.540783e+14	1.497690e+04	6.325884e+03	2.819119e+03	0	1.625562e-03
8.500000e+08	1.993128e+14	0.000000e+00	7.549671e-01	2.408072e+15	2.722503e+15	1.533635e+14	1.494233e+04	6.318687e+03	2.815912e+03	0	1.617675e-03
8.600000e+08	1.964344e+14	0.000000e+00	7.549671e-01	2.383351e+15	2.695576e+15	1.526536e+14	1.490811e+04	6.311555e+03	2.812733e+03	0	1.609850e-03
8.700000e+08	1.936060e+14	0.000000e+00	7.549671e-01	2.359046e+15	2.669094e+15	1.519486e+14	1.487424e+04	6.304485e+03	2.809583e+03	0	1.602086e-03
8.800000e+08	1.908264e+14	0.000000e+00	7.549671e-01	2.335147e+15	2.643046e+15	1.512485e+14	1.484071e+04	6.297477e+03	2.806460e+03	0	1.594382e-03
8.900000e+08	1.880944e+14	0.000000e+00	7.549671e-01	2.311646e+15	2.617423e+15	1.505532e+14	1.480753e+04	6.290531e+03	2.803364e+03	0	1.586737e-03
9.000000e+08	1.854091e+14	0.000000e+00	7.549671e-01	2.288531e+15	2.592215e+15	1.498626e+14	1.477467e+04	6.283645e+03	2.800296e+03	0	1.579149e-03
9.100000e+08	1.827693e+14	0.000000e+00	7.549671e-01	2.265796e+15	2.567413e+15	1.491768e+14	1.474215e+04	6.276818e+03	2.797253e+03	0	1.571619e-03
9.200000e+08	1.801739e+14	0.000000e+00	7.549671e-01	2.243432e+15	2.543007e+15	1.484957e+14	1.470994e+04	6.270050e+03	2.794237e+03	0	1.564144e-03
9.300000e+08	1.776221e+14	0.000000e+00	7.549671e-01	2.221430e+15	2.518990e+15	1.478192e+14	1.467805e+04	6.263339e+03	2.791246e+03	0	1.556725e-03
9.400000e+08	1.751127e+14	0.000000e+00	7.549671e-01	2.199782e+15	2.495352e+15	1.471474e+14	1.464648e+04	6.256685e+03	2.788281e+03	0	1.549359e-03
9.500000e+08	1.726449e+14	0.000000e+00	7.549671e-01	2.178480e+15	2.472085e+15	1.464801e+14	1.461521e+04	6.250087e+03	2.785341e+03	0	1.542046e-03
9.600000e+08	1.702176e+14	0.000000e+00	7.549671e-01	2.157517e+15	2.449181e+15	1.458174e+14	1.458424e+04	6.243544e+03	2.782425e+03	0	1.534786e-03
9.700000e+08	1.678301e+14	0.000000e+00	7.549671e-01	2.136886e+15	2.426632e+15	1.451592e+14	1.455357e+04	6.237056e+03	2.779533e+03	0	1.527576e-03
9.800000e+08	1.654814e+14	0.000000e+00	7.549671e-01	2.116579e+15	2.404431e+15	1.445055e+14	1.452320e+04	6.230620e+03	2.776665e+03	0	1.520417e-03
9.900000e+08	1.631708e+14	0.000000e+00	7.549671e-01	2.096588e+15	2.382570e+15	1.438563e+14	1.449311e+04	6.224238e+03	2.773821e+03	0	1.513307e-03
1.000000e+09	1.608972e+14	0.000000e+00	7.549671e-01	2.076909e+15	2.361042e+15	1.432114e+14	1.446330e+04	6.217908e+03	2.771000e+03	0	1.506245e-03
1.010000e+09	1.586601e+14	0.000000e+00	7.549671e-01	2.057533e+15	2.339839e+15	1.425709e+14	1.443377e+04	6.211628e+03	2.768201e+03	0	1.499232e-03
1.020000e+09	1.564585e+14	0.000000e+00	7.549671e-01	2.038454e+15	2.318956e+15	1.419348e+14	1.440452e+04	6.205400e+03	2.765426e+03	0	1.492265e-03
1.030000e+09	1.542917e+14	0.000000e+00	7.549671e-01	2.019667e+15	2.298385e+15	1.413029e+14	1.437554e+04	6.199221e+03	2.762672e+03	0	1.485344e-03
1.040000e+09	1.521590e+14	0.000000e+00	7.549671e-01	2.001164e+15	2.278120e+15	1.406753e+14	1.434682e+04	6.193092e+03	2.759941e+03	0	1.478469e-03
1.050000e+09	1.500597e+14	0.000000e+00	7.549671e-01	1.982941e+15	2.258154e+15	1.400520e+14	1.431837e+04	6.187010e+03	2.757230e+03	0	1.471638e-03
1.060000e+09	1.479930e+14	0.000000e+00	7.549671e-01	1.964991e+15	2.238482e+15	1.394329e+14	1.429017e+04	6.180977e+03	2.754542e+03	0	1.464850e-03
1.070000e+09	1.459583e+14	0.000000e+00	7.549671e-01	1.947308e+15	2.219098e+15	1.388179e+14	1.426223e+04	6.174991e+03	2.751874e+03	0	1.458106e-03
1.080000e+09	1.439549e+14	0.000000e+00	7.549671e-01	1.929888e+15	2.199995e+15	1.382071e+14	1.423454e+04	6.169051e+03	2.749227e+03	0	1.451404e-03
1.090000e+09	1.419822e+14	0.000000e+00	7.549671e-01	1.912724e+15	2.181168e+15	1.376004e+14	1.420710e+04	6.163157e+03	2.746600e+03	0	1.444744e-03
1.100000e+09	1.400394e+14	0.000000e+00	7.549671e-01	1.895812e+15	2.162611e+15	1.369977e+14	1.417990e+04	6.157309e+03	2.743994e+03	0	1.438124e-03
1.110000e+09	1.381261e+14	0.000000e+00	7.549671e-01	1.879146e+15	2.144319e+15	1.363991e+14	1.415294e+04	6.151505e+03	2.741408e+03	0	1.431544e-03
1.120000e+09	1.362416e+14	0.000000e+00	7.549671e-01	1.862722e+15	2.126287e+15	1.358045e+14	1.412621e+04	6.145745e+03	2.738841e+03	0	1.425004e-03
1.130000e+09	1.343853e+14	0.000000e+00	7.549671e-01	1.846535e+15	2.108510e+15	1.352139e+14	1.409972e+04	6.140029e+03	2.736293e+03	0	1.418503e-03
1.140000e+09	1.325567e+14	0.000000e+00	7.549671e-01	1.830580e+15	2.090982e+15	1.346273e+14	1.407346e+04	6.134356e+03	2.733765e+03	0	1.412039e-03
1.150000e+09	1.307552e+14	0.000000e+00	7.549671e-01	1.814852e+15	2.073699e+15	1.340445e+14	1.404743e+04	6.128725e+03	2.731256e+03	0	1.405613e-03
1.160000e+09	1.289803e+14	0.000000e+00	7.549671e-01	1.799347e+15	2.056656e+15	1.334657e+14	1.402161e+04	6.123135e+03	2.728765e+03	0	1.399224e-03
1.170000e+09	1.272314e+14	0.000000e+00	7.549671e-01	1.784061e+15	2.039848e+15	1.328907e+14	1.399602e+04	6.117588e+03	2.726292e+03	0	1.392871e-03
1.180000e+09	1.255080e+14	0.000000e+00	7.549671e-01	1.768989e+15	2.023272e+15	1.323195e+14	1.397065e+04	6.112080e+03	2.723838e+03	0	1.386553e-03
1.190000e+09	1.238096e+14	0.000000e+00	7.549671e-01	1.754128e+15	2.006921e+15	1.317521e+14	1.394549e+04	6.106613e+03	2.721402e+03	0	1.380271e-03
1.200000e+09	1.221358e+14	0.000000e+00	7.549671e-01	1.739473e+15	1.990793e+15	1.311885e+14	1.392053e+04	6.101186e+03	2.718983e+03	0	1.374022e-03
1.210000e+09	1.204860e+14	0.000000e+00	7.549671e-01	1.725020e+15	1.974883e+15	1.306286e+14	1.389579e+04	6.095798e+03	2.716582e+03	0	1.367808e-03
1.220000e+09	1.188598e+14	0.000000e+00	7.549671e-01	1.710765e+15	1.959186e+15	1.300724e+14	1.387125e+04	6.090449e+03	2.714198e+03	0	1.361626e-03
1.230000e+09	1.172568e+14	0.000000e+00	7.549671e-01	1.696706e+15	1.943700e+15	1.295200e+14	1.384692e+04	6.085138e+03	2.711831e+03	0	1.355477e-03
1.240000e+09	1.156765e+14	0.000000e+00	7.549671e-01	1.682837e+15	1.928419e+15	1.289711e+14	1.382278e+04	6.079864e+03	2.709481e+03	0	1.349360e-03
1.250000e+09	1.141184e+14	0.000000e+00	7.549671e-01	1.669156e+15	1.913341e+15	1.284259e+14	1.379884e+04	6.074628e+03	2.707148e+03	0	1.343274e-03
1.260000e+09	1.125822e+14	0.000000e+00	7.549671e-01	1.655658e+15	1.898461e+15	1.278843e+14	1.377510e+04	6.069429e+03	2.704830e+03	0	1.337220e-03
1.270000e+09	1.110674e+14	0.000000e+00	7.549671e-01	1.642341e+15	1.883776e+15	1.273462e+14	1.375155e+04	6.064266e+03	2.702530e+03	0	1.331195e-03
1.280000e+09	1.095736e+14	0.000000e+00	7.549671e-01	1.629202e+15	1.869282e+15	1.268117e+14	1.372818e+04	6.059139e+03	2.700245e+03	0	1.325200e-03
1.290000e+09	1.081004e+14	0.000000e+00	7.549671e-01	1.616236e+15	1.854976e+15	1.262807e+14	1.370500e+04	6.054048e+03	2.697976e+03	0	1.319235e-03
1.300000e+09	1.066476e+14	0.000000e+00	7.549671e-01	1.603442e+15	1.840854e+15	1.257532e+14	1.368201e+04	6.048991e+03	2.695722e+03	0	1.313298e-03
1.310000e+09	1.052146e+14	0.000000e+00	7.549671e-01	1.590814e+15	1.826913e+15	1.252292e+14	1.365920e+04	6.043969e+03	2.693485e+03	0	1.307389e-03
1.320000e+09	1.038011e+14	0.000000e+00	7.549671e-01	1.578352e+15	1.813150e+15	1.247085e+14	1.363656e+04	6.038982e+03	2.691262e+03	0	1.301508e-03
1.330000e+09	1.024067e+14	0.000000e+00	7.549671e-01	1.566051e+15	1.799562e+15	1.241913e+14	1.361411e+04	6.034028e+03	2.689054e+03	0	1.295654e-03
1.340000e+09	1.010312e+14	0.000000e+00	7.549671e-01	1.553909e+15	1.786146e+15	1.236775e+14	1.359182e+04	6.029108e+03	2.686862e+03	0	1.289827e-03
1.350000e+09	9.967413e+13	0.000000e+00	7.549671e-01	1.541923e+15	1.772898e+15	1.231670e+14	1.356971e+04	6.024221e+03	2.684683e+03	0	1.284026e-03
1.360000e+09	9.833520e+13	0.000000e+00	7.549671e-01	1.530091e+15	1.759815e+15	1.226598e+14	1.354777e+04	6.019366e+03	2.682520e+03	0	1.278250e-03
