#t		Qconv[W]	Ri[Rp]		R*[Rp]		Qc[W]		Qm[W]		Qr[W]		Tcmb[K]		Tl[K]		Tup[K]		RiFlag		Bs[T]
0.000000e+00	1.490622e+15	0.000000e+00	7.483447e-01	1.331469e+16	3.273412e+15	2.840401e+14	2.435871e+04	6.695359e+03	2.774470e+03	0	3.170269e-03
1.000000e+07	1.476691e+15	0.000000e+00	7.483447e-01	1.319670e+16	4.622758e+15	2.824663e+14	2.421071e+04	7.083960e+03	2.935502e+03	0	3.160362e-03
2.000000e+07	1.456725e+15	0.000000e+00	7.483447e-01	1.303292e+16	6.011877e+15	2.809043e+14	2.406400e+04	7.411992e+03	3.071434e+03	0	3.146054e-03
3.000000e+07	1.432359e+15	0.000000e+00	7.483447e-01	1.283579e+16	7.314015e+15	2.793540e+14	2.391911e+04	7.678624e+03	3.181923e+03	0	3.128414e-03
4.000000e+07	1.405101e+15	0.000000e+00	7.483447e-01	1.261684e+16	8.440693e+15	2.778152e+14	2.377639e+04	7.887956e+03	3.268667e+03	0	3.108442e-03
5.000000e+07	1.376168e+15	0.000000e+00	7.483447e-01	1.238535e+16	9.350409e+15	2.762879e+14	2.363609e+04	8.047186e+03	3.334650e+03	0	3.086958e-03
6.000000e+07	1.346451e+15	0.000000e+00	7.483447e-01	1.214809e+16	1.004027e+16	2.747720e+14	2.349835e+04	8.164744e+03	3.383365e+03	0	3.064577e-03
7.000000e+07	1.316556e+15	0.000000e+00	7.483447e-01	1.190969e+16	1.053134e+16	2.732674e+14	2.336323e+04	8.248919e+03	3.418245e+03	0	3.041726e-03
8.000000e+07	1.286874e+15	0.000000e+00	7.483447e-01	1.167313e+16	1.085545e+16	2.717739e+14	2.323075e+04	8.307077e+03	3.442346e+03	0	3.018693e-03
9.000000e+07	1.257650e+15	0.000000e+00	7.483447e-01	1.144027e+16	1.104619e+16	2.702916e+14	2.310088e+04	8.345362e+03	3.458210e+03	0	2.995667e-03
1.000000e+08	1.229031e+15	0.000000e+00	7.483447e-01	1.121221e+16	1.113419e+16	2.688203e+14	2.297359e+04	8.368681e+03	3.467873e+03	0	2.972769e-03
1.100000e+08	1.201098e+15	0.000000e+00	7.483447e-01	1.098959e+16	1.114511e+16	2.673599e+14	2.284882e+04	8.380845e+03	3.472914e+03	0	2.950076e-03
1.200000e+08	1.173897e+15	0.000000e+00	7.483447e-01	1.077272e+16	1.109946e+16	2.659103e+14	2.272651e+04	8.384756e+03	3.474535e+03	0	2.927635e-03
1.300000e+08	1.147444e+15	0.000000e+00	7.483447e-01	1.056174e+16	1.101308e+16	2.644715e+14	2.260660e+04	8.382600e+03	3.473641e+03	0	2.905477e-03
1.400000e+08	1.121741e+15	0.000000e+00	7.483447e-01	1.035667e+16	1.089794e+16	2.630433e+14	2.248903e+04	8.376005e+03	3.470908e+03	0	2.883619e-03
1.500000e+08	1.096782e+15	0.000000e+00	7.483447e-01	1.015743e+16	1.076298e+16	2.616256e+14	2.237373e+04	8.366182e+03	3.466838e+03	0	2.862071e-03
1.600000e+08	1.072551e+15	0.000000e+00	7.483447e-01	9.963911e+15	1.061478e+16	2.602184e+14	2.226063e+04	8.354027e+03	3.461801e+03	0	2.840837e-03
1.700000e+08	1.049031e+15	0.000000e+00	7.483447e-01	9.775975e+15	1.045816e+16	2.588217e+14	2.214968e+04	8.340203e+03	3.456072e+03	0	2.819918e-03
1.800000e+08	1.026201e+15	0.000000e+00	7.483447e-01	9.593458e+15	1.029663e+16	2.574352e+14	2.204080e+04	8.325201e+03	3.449856e+03	0	2.799311e-03
1.900000e+08	1.004040e+15	0.000000e+00	7.483447e-01	9.416193e+15	1.013273e+16	2.560589e+14	2.193395e+04	8.309382e+03	3.443301e+03	0	2.779014e-03
2.000000e+08	9.825256e+14	0.000000e+00	7.483447e-01	9.244006e+15	9.968282e+15	2.546928e+14	2.182906e+04	8.293015e+03	3.436518e+03	0	2.759020e-03
2.100000e+08	9.616354e+14	0.000000e+00	7.483447e-01	9.076724e+15	9.804590e+15	2.533367e+14	2.172608e+04	8.276300e+03	3.429592e+03	0	2.739326e-03
2.200000e+08	9.413477e+14	0.000000e+00	7.483447e-01	8.914176e+15	9.642576e+15	2.519905e+14	2.162495e+04	8.259382e+03	3.422581e+03	0	2.719925e-03
2.300000e+08	9.216410e+14	0.000000e+00	7.483447e-01	8.756195e+15	9.482884e+15	2.506542e+14	2.152562e+04	8.242372e+03	3.415532e+03	0	2.700811e-03
2.400000e+08	9.024944e+14	0.000000e+00	7.483447e-01	8.602617e+15	9.325953e+15	2.493278e+14	2.142805e+04	8.225349e+03	3.408478e+03	0	2.681978e-03
2.500000e+08	8.838878e+14	0.000000e+00	7.483447e-01	8.453285e+15	9.172072e+15	2.480110e+14	2.133218e+04	8.208373e+03	3.401444e+03	0	2.663418e-03
2.600000e+08	8.658015e+14	0.000000e+00	7.483447e-01	8.308046e+15	9.021424e+15	2.467039e+14	2.123796e+04	8.191488e+03	3.394447e+03	0	2.645126e-03
2.700000e+08	8.482167e+14	0.000000e+00	7.483447e-01	8.166754e+15	8.874111e+15	2.454064e+14	2.114535e+04	8.174727e+03	3.387501e+03	0	2.627096e-03
2.800000e+08	8.311154e+14	0.000000e+00	7.483447e-01	8.029266e+15	8.730179e+15	2.441183e+14	2.105431e+04	8.158111e+03	3.380616e+03	0	2.609320e-03
2.900000e+08	8.144802e+14	0.000000e+00	7.483447e-01	7.895449e+15	8.589633e+15	2.428396e+14	2.096479e+04	8.141658e+03	3.373798e+03	0	2.591794e-03
3.000000e+08	7.982944e+14	0.000000e+00	7.483447e-01	7.765171e+15	8.452446e+15	2.415702e+14	2.087676e+04	8.125379e+03	3.367052e+03	0	2.574510e-03
3.100000e+08	7.825421e+14	0.000000e+00	7.483447e-01	7.638308e+15	8.318573e+15	2.403101e+14	2.079018e+04	8.109282e+03	3.360382e+03	0	2.557464e-03
3.200000e+08	7.672080e+14	0.000000e+00	7.483447e-01	7.514741e+15	8.187954e+15	2.390592e+14	2.070500e+04	8.093371e+03	3.353788e+03	0	2.540649e-03
3.300000e+08	7.522774e+14	0.000000e+00	7.483447e-01	7.394355e+15	8.060516e+15	2.378173e+14	2.062119e+04	8.077650e+03	3.347274e+03	0	2.524060e-03
3.400000e+08	7.377363e+14	0.000000e+00	7.483447e-01	7.277041e+15	7.936184e+15	2.365845e+14	2.053872e+04	8.062120e+03	3.340838e+03	0	2.507691e-03
3.500000e+08	7.235712e+14	0.000000e+00	7.483447e-01	7.162692e+15	7.814877e+15	2.353606e+14	2.045755e+04	8.046781e+03	3.334482e+03	0	2.491537e-03
3.600000e+08	7.097692e+14	0.000000e+00	7.483447e-01	7.051210e+15	7.696510e+15	2.341456e+14	2.037765e+04	8.031631e+03	3.328204e+03	0	2.475594e-03
3.700000e+08	6.963180e+14	0.000000e+00	7.483447e-01	6.942496e+15	7.581000e+15	2.329394e+14	2.029899e+04	8.016670e+03	3.322005e+03	0	2.459855e-03
3.800000e+08	6.832057e+14	0.000000e+00	7.483447e-01	6.836459e+15	7.468264e+15	2.317419e+14	2.022154e+04	8.001895e+03	3.315882e+03	0	2.444317e-03
3.900000e+08	6.704210e+14	0.000000e+00	7.483447e-01	6.733009e+15	7.358218e+15	2.305531e+14	2.014526e+04	7.987304e+03	3.309836e+03	0	2.428974e-03
4.000000e+08	6.579530e+14	0.000000e+00	7.483447e-01	6.632063e+15	7.250782e+15	2.293729e+14	2.007013e+04	7.972894e+03	3.303864e+03	0	2.413822e-03
4.100000e+08	6.457912e+14	0.000000e+00	7.483447e-01	6.533537e+15	7.145876e+15	2.282011e+14	1.999612e+04	7.958662e+03	3.297967e+03	0	2.398857e-03
4.200000e+08	6.339257e+14	0.000000e+00	7.483447e-01	6.437353e+15	7.043424e+15	2.270378e+14	1.992321e+04	7.944605e+03	3.292142e+03	0	2.384074e-03
4.300000e+08	6.223469e+14	0.000000e+00	7.483447e-01	6.343437e+15	6.943349e+15	2.258829e+14	1.985137e+04	7.930721e+03	3.286388e+03	0	2.369470e-03
4.400000e+08	6.110454e+14	0.000000e+00	7.483447e-01	6.251717e+15	6.845579e+15	2.247363e+14	1.978057e+04	7.917006e+03	3.280705e+03	0	2.355039e-03
4.500000e+08	6.000125e+14	0.000000e+00	7.483447e-01	6.162122e+15	6.750045e+15	2.235980e+14	1.971079e+04	7.903456e+03	3.275090e+03	0	2.340779e-03
4.600000e+08	5.892397e+14	0.000000e+00	7.483447e-01	6.074586e+15	6.656676e+15	2.224678e+14	1.964200e+04	7.890070e+03	3.269543e+03	0	2.326685e-03
4.700000e+08	5.787188e+14	0.000000e+00	7.483447e-01	5.989046e+15	6.565409e+15	2.213457e+14	1.957419e+04	7.876844e+03	3.264062e+03	0	2.312754e-03
4.800000e+08	5.684418e+14	0.000000e+00	7.483447e-01	5.905439e+15	6.476179e+15	2.202317e+14	1.950733e+04	7.863774e+03	3.258646e+03	0	2.298982e-03
4.900000e+08	5.584014e+14	0.000000e+00	7.483447e-01	5.823707e+15	6.388926e+15	2.191256e+14	1.944139e+04	7.850858e+03	3.253294e+03	0	2.285366e-03
5.000000e+08	5.485902e+14	0.000000e+00	7.483447e-01	5.743792e+15	6.303589e+15	2.180275e+14	1.937637e+04	7.838093e+03	3.248005e+03	0	2.271902e-03
5.100000e+08	5.390012e+14	0.000000e+00	7.483447e-01	5.665640e+15	6.220112e+15	2.169371e+14	1.931223e+04	7.825476e+03	3.242776e+03	0	2.258587e-03
5.200000e+08	5.296278e+14	0.000000e+00	7.483447e-01	5.589199e+15	6.138441e+15	2.158546e+14	1.924897e+04	7.813005e+03	3.237608e+03	0	2.245418e-03
5.300000e+08	5.204634e+14	0.000000e+00	7.483447e-01	5.514417e+15	6.058522e+15	2.147798e+14	1.918655e+04	7.800676e+03	3.232499e+03	0	2.232392e-03
5.400000e+08	5.115019e+14	0.000000e+00	7.483447e-01	5.441245e+15	5.980304e+15	2.137127e+14	1.912497e+04	7.788486e+03	3.227448e+03	0	2.219505e-03
5.500000e+08	5.027372e+14	0.000000e+00	7.483447e-01	5.369637e+15	5.903738e+15	2.126531e+14	1.906419e+04	7.776434e+03	3.222454e+03	0	2.206754e-03
5.600000e+08	4.941635e+14	0.000000e+00	7.483447e-01	5.299548e+15	5.828777e+15	2.116011e+14	1.900422e+04	7.764516e+03	3.217515e+03	0	2.194138e-03
5.700000e+08	4.857754e+14	0.000000e+00	7.483447e-01	5.230933e+15	5.755374e+15	2.105565e+14	1.894502e+04	7.752730e+03	3.212631e+03	0	2.181652e-03
5.800000e+08	4.775675e+14	0.000000e+00	7.483447e-01	5.163750e+15	5.683485e+15	2.095194e+14	1.888659e+04	7.741074e+03	3.207801e+03	0	2.169295e-03
5.900000e+08	4.695345e+14	0.000000e+00	7.483447e-01	5.097959e+15	5.613068e+15	2.084896e+14	1.882891e+04	7.729545e+03	3.203024e+03	0	2.157063e-03
6.000000e+08	4.616715e+14	0.000000e+00	7.483447e-01	5.033521e+15	5.544082e+15	2.074671e+14	1.877196e+04	7.718141e+03	3.198298e+03	0	2.144954e-03
6.100000e+08	4.539737e+14	0.000000e+00	7.483447e-01	4.970398e+15	5.476487e+15	2.064518e+14	1.871572e+04	7.706860e+03	3.193623e+03	0	2.132966e-03
6.200000e+08	4.464365e+14	0.000000e+00	7.483447e-01	4.908554e+15	5.410245e+15	2.054437e+14	1.866019e+04	7.695699e+03	3.188998e+03	0	2.121095e-03
6.300000e+08	4.390553e+14	0.000000e+00	7.483447e-01	4.847953e+15	5.345318e+15	2.044427e+14	1.860535e+04	7.684656e+03	3.184422e+03	0	2.109341e-03
6.400000e+08	4.318259e+14	0.000000e+00	7.483447e-01	4.788561e+15	5.281671e+15	2.034488e+14	1.855118e+04	7.673729e+03	3.179894e+03	0	2.097699e-03
6.500000e+08	4.247442e+14	0.000000e+00	7.483447e-01	4.730345e+15	5.219269e+15	2.024619e+14	1.849767e+04	7.662916e+03	3.175413e+03	0	2.086169e-03
6.600000e+08	4.178059e+14	0.000000e+00	7.483447e-01	4.673274e+15	5.158079e+15	2.014819e+14	1.844481e+04	7.652214e+03	3.170979e+03	0	2.074747e-03
6.700000e+08	4.110074e+14	0.000000e+00	7.483447e-01	4.617318e+15	5.098069e+15	2.005088e+14	1.839258e+04	7.641623e+03	3.166590e+03	0	2.063432e-03
6.800000e+08	4.043448e+14	0.000000e+00	7.483447e-01	4.562446e+15	5.039208e+15	1.995426e+14	1.834098e+04	7.631140e+03	3.162246e+03	0	2.052222e-03
6.900000e+08	3.978144e+14	0.000000e+00	7.483447e-01	4.508630e+15	4.981465e+15	1.985831e+14	1.828999e+04	7.620764e+03	3.157946e+03	0	2.041113e-03
7.000000e+08	3.914129e+14	0.000000e+00	7.483447e-01	4.455843e+15	4.924811e+15	1.976304e+14	1.823960e+04	7.610491e+03	3.153689e+03	0	2.030106e-03
7.100000e+08	3.851367e+14	0.000000e+00	7.483447e-01	4.404056e+15	4.869219e+15	1.966843e+14	1.818979e+04	7.600321e+03	3.149475e+03	0	2.019197e-03
7.200000e+08	3.789826e+14	0.000000e+00	7.483447e-01	4.353246e+15	4.814660e+15	1.957448e+14	1.814057e+04	7.590252e+03	3.145303e+03	0	2.008384e-03
7.300000e+08	3.729475e+14	0.000000e+00	7.483447e-01	4.303386e+15	4.761109e+15	1.948119e+14	1.809190e+04	7.580282e+03	3.141171e+03	0	1.997666e-03
7.400000e+08	3.670282e+14	0.000000e+00	7.483447e-01	4.254453e+15	4.708540e+15	1.938855e+14	1.804380e+04	7.570410e+03	3.137080e+03	0	1.987041e-03
7.500000e+08	3.612217e+14	0.000000e+00	7.483447e-01	4.206423e+15	4.656928e+15	1.929656e+14	1.799624e+04	7.560633e+03	3.133029e+03	0	1.976507e-03
7.600000e+08	3.555253e+14	0.000000e+00	7.483447e-01	4.159273e+15	4.606249e+15	1.920521e+14	1.794921e+04	7.550951e+03	3.129017e+03	0	1.966062e-03
7.700000e+08	3.499361e+14	0.000000e+00	7.483447e-01	4.112981e+15	4.556481e+15	1.911449e+14	1.790271e+04	7.541361e+03	3.125043e+03	0	1.955704e-03
7.800000e+08	3.444514e+14	0.000000e+00	7.483447e-01	4.067526e+15	4.507600e+15	1.902441e+14	1.785672e+04	7.531863e+03	3.121107e+03	0	1.945433e-03
7.900000e+08	3.390686e+14	0.000000e+00	7.483447e-01	4.022887e+15	4.459585e+15	1.893495e+14	1.781125e+04	7.522454e+03	3.117208e+03	0	1.935246e-03
8.000000e+08	3.337851e+14	0.000000e+00	7.483447e-01	3.979045e+15	4.412415e+15	1.884611e+14	1.776626e+04	7.513133e+03	3.113345e+03	0	1.925141e-03
8.100000e+08	3.285986e+14	0.000000e+00	7.483447e-01	3.935980e+15	4.366069e+15	1.875788e+14	1.772177e+04	7.503900e+03	3.109519e+03	0	1.915118e-03
8.200000e+08	3.235066e+14	0.000000e+00	7.483447e-01	3.893673e+15	4.320528e+15	1.867027e+14	1.767776e+04	7.494751e+03	3.105728e+03	0	1.905174e-03
8.300000e+08	3.185069e+14	0.000000e+00	7.483447e-01	3.852105e+15	4.275772e+15	1.858326e+14	1.763422e+04	7.485687e+03	3.101972e+03	0	1.895308e-03
8.400000e+08	3.135971e+14	0.000000e+00	7.483447e-01	3.811260e+15	4.231783e+15	1.849686e+14	1.759114e+04	7.476706e+03	3.098250e+03	0	1.885519e-03
8.500000e+08	3.087752e+14	0.000000e+00	7.483447e-01	3.771120e+15	4.188543e+15	1.841105e+14	1.754852e+04	7.467806e+03	3.094562e+03	0	1.875805e-03
8.600000e+08	3.040390e+14	0.000000e+00	7.483447e-01	3.731669e+15	4.146033e+15	1.832583e+14	1.750634e+04	7.458986e+03	3.090907e+03	0	1.866165e-03
8.700000e+08	2.993865e+14	0.000000e+00	7.483447e-01	3.692890e+15	4.104238e+15	1.824120e+14	1.746461e+04	7.450245e+03	3.087285e+03	0	1.856597e-03
8.800000e+08	2.948157e+14	0.000000e+00	7.483447e-01	3.654768e+15	4.063141e+15	1.815715e+14	1.742330e+04	7.441582e+03	3.083695e+03	0	1.847100e-03
8.900000e+08	2.903247e+14	0.000000e+00	7.483447e-01	3.617287e+15	4.022725e+15	1.807367e+14	1.738242e+04	7.432996e+03	3.080137e+03	0	1.837673e-03
9.000000e+08	2.859116e+14	0.000000e+00	7.483447e-01	3.580433e+15	3.982975e+15	1.799077e+14	1.734196e+04	7.424484e+03	3.076610e+03	0	1.828314e-03
9.100000e+08	2.815746e+14	0.000000e+00	7.483447e-01	3.544191e+15	3.943876e+15	1.790844e+14	1.730191e+04	7.416048e+03	3.073114e+03	0	1.819023e-03
9.200000e+08	2.773120e+14	0.000000e+00	7.483447e-01	3.508548e+15	3.905413e+15	1.782667e+14	1.726227e+04	7.407684e+03	3.069649e+03	0	1.809797e-03
9.300000e+08	2.731221e+14	0.000000e+00	7.483447e-01	3.473490e+15	3.867572e+15	1.774547e+14	1.722302e+04	7.399392e+03	3.066213e+03	0	1.800636e-03
9.400000e+08	2.690032e+14	0.000000e+00	7.483447e-01	3.439003e+15	3.830339e+15	1.766481e+14	1.718416e+04	7.391172e+03	3.062806e+03	0	1.791538e-03
9.500000e+08	2.649536e+14	0.000000e+00	7.483447e-01	3.405076e+15	3.793700e+15	1.758471e+14	1.714569e+04	7.383021e+03	3.059429e+03	0	1.782503e-03
9.600000e+08	2.609719e+14	0.000000e+00	7.483447e-01	3.371696e+15	3.757643e+15	1.750515e+14	1.710760e+04	7.374939e+03	3.056080e+03	0	1.773529e-03
9.700000e+08	2.570565e+14	0.000000e+00	7.483447e-01	3.338850e+15	3.722155e+15	1.742614e+14	1.706988e+04	7.366925e+03	3.052759e+03	0	1.764614e-03
9.800000e+08	2.532059e+14	0.000000e+00	7.483447e-01	3.306527e+15	3.687223e+15	1.734766e+14	1.703252e+04	7.358978e+03	3.049466e+03	0	1.755759e-03
9.900000e+08	2.494187e+14	0.000000e+00	7.483447e-01	3.274716e+15	3.652836e+15	1.726972e+14	1.699552e+04	7.351097e+03	3.046200e+03	0	1.746961e-03
1.000000e+09	2.456936e+14	0.000000e+00	7.483447e-01	3.243405e+15	3.618981e+15	1.719230e+14	1.695888e+04	7.343282e+03	3.042961e+03	0	1.738221e-03
1.010000e+09	2.420290e+14	0.000000e+00	7.483447e-01	3.212584e+15	3.585647e+15	1.711541e+14	1.692259e+04	7.335530e+03	3.039749e+03	0	1.729535e-03
1.020000e+09	2.384238e+14	0.000000e+00	7.483447e-01	3.182242e+15	3.552824e+15	1.703904e+14	1.688665e+04	7.327841e+03	3.036563e+03	0	1.720905e-03
1.030000e+09	2.348766e+14	0.000000e+00	7.483447e-01	3.152369e+15	3.520500e+15	1.696319e+14	1.685104e+04	7.320215e+03	3.033402e+03	0	1.712328e-03
1.040000e+09	2.313862e+14	0.000000e+00	7.483447e-01	3.122955e+15	3.488665e+15	1.688785e+14	1.681576e+04	7.312650e+03	3.030268e+03	0	1.703803e-03
1.050000e+09	2.279514e+14	0.000000e+00	7.483447e-01	3.093990e+15	3.457309e+15	1.681302e+14	1.678081e+04	7.305146e+03	3.027158e+03	0	1.695330e-03
1.060000e+09	2.245709e+14	0.000000e+00	7.483447e-01	3.065465e+15	3.426421e+15	1.673870e+14	1.674619e+04	7.297701e+03	3.024073e+03	0	1.686908e-03
1.070000e+09	2.212437e+14	0.000000e+00	7.483447e-01	3.037372e+15	3.395992e+15	1.666487e+14	1.671189e+04	7.290316e+03	3.021013e+03	0	1.678536e-03
1.080000e+09	2.179686e+14	0.000000e+00	7.483447e-01	3.009700e+15	3.366014e+15	1.659154e+14	1.667789e+04	7.282988e+03	3.017976e+03	0	1.670212e-03
1.090000e+09	2.147445e+14	0.000000e+00	7.483447e-01	2.982441e+15	3.336475e+15	1.651871e+14	1.664421e+04	7.275718e+03	3.014964e+03	0	1.661936e-03
1.100000e+09	2.115704e+14	0.000000e+00	7.483447e-01	2.955587e+15	3.307368e+15	1.644636e+14	1.661083e+04	7.268505e+03	3.011974e+03	0	1.653707e-03
1.110000e+09	2.084452e+14	0.000000e+00	7.483447e-01	2.929129e+15	3.278684e+15	1.637450e+14	1.657775e+04	7.261347e+03	3.009008e+03	0	1.645524e-03
1.120000e+09	2.053680e+14	0.000000e+00	7.483447e-01	2.903060e+15	3.250414e+15	1.630312e+14	1.654497e+04	7.254244e+03	3.006065e+03	0	1.637386e-03
1.130000e+09	2.023376e+14	0.000000e+00	7.483447e-01	2.877372e+15	3.222550e+15	1.623222e+14	1.651247e+04	7.247196e+03	3.003144e+03	0	1.629293e-03
1.140000e+09	1.993532e+14	0.000000e+00	7.483447e-01	2.852057e+15	3.195085e+15	1.616179e+14	1.648027e+04	7.240201e+03	3.000246e+03	0	1.621243e-03
1.150000e+09	1.964139e+14	0.000000e+00	7.483447e-01	2.827107e+15	3.168009e+15	1.609183e+14	1.644834e+04	7.233259e+03	2.997369e+03	0	1.613235e-03
1.160000e+09	1.935187e+14	0.000000e+00	7.483447e-01	2.802515e+15	3.141316e+15	1.602234e+14	1.641670e+04	7.226369e+03	2.994514e+03	0	1.605269e-03
1.170000e+09	1.906668e+14	0.000000e+00	7.483447e-01	2.778275e+15	3.114997e+15	1.595331e+14	1.638533e+04	7.219531e+03	2.991681e+03	0	1.597345e-03
1.180000e+09	1.878572e+14	0.000000e+00	7.483447e-01	2.754379e+15	3.089047e+15	1.588475e+14	1.635422e+04	7.212744e+03	2.988868e+03	0	1.589460e-03
1.190000e+09	1.850892e+14	0.000000e+00	7.483447e-01	2.730821e+15	3.063457e+15	1.581663e+14	1.632339e+04	7.206007e+03	2.986076e+03	0	1.581615e-03
1.200000e+09	1.823619e+14	0.000000e+00	7.483447e-01	2.707594e+15	3.038220e+15	1.574897e+14	1.629282e+04	7.199319e+03	2.983305e+03	0	1.573808e-03
1.210000e+09	1.796745e+14	0.000000e+00	7.483447e-01	2.684692e+15	3.013331e+15	1.568176e+14	1.626251e+04	7.192681e+03	2.980554e+03	0	1.566039e-03
1.220000e+09	1.770263e+14	0.000000e+00	7.483447e-01	2.662108e+15	2.988782e+15	1.561499e+14	1.623245e+04	7.186091e+03	2.977823e+03	0	1.558306e-03
1.230000e+09	1.744164e+14	0.000000e+00	7.483447e-01	2.639837e+15	2.964566e+15	1.554867e+14	1.620265e+04	7.179548e+03	2.975112e+03	0	1.550611e-03
1.240000e+09	1.718441e+14	0.000000e+00	7.483447e-01	2.617872e+15	2.940678e+15	1.548278e+14	1.617309e+04	7.173053e+03	2.972420e+03	0	1.542950e-03
1.250000e+09	1.693088e+14	0.000000e+00	7.483447e-01	2.596208e+15	2.917112e+15	1.541733e+14	1.614378e+04	7.166604e+03	2.969748e+03	0	1.535324e-03
1.260000e+09	1.668097e+14	0.000000e+00	7.483447e-01	2.574839e+15	2.893861e+15	1.535231e+14	1.611472e+04	7.160201e+03	2.967095e+03	0	1.527733e-03
1.270000e+09	1.643461e+14	0.000000e+00	7.483447e-01	2.553759e+15	2.870920e+15	1.528772e+14	1.608589e+04	7.153843e+03	2.964460e+03	0	1.520174e-03
1.280000e+09	1.619173e+14	0.000000e+00	7.483447e-01	2.532963e+15	2.848282e+15	1.522355e+14	1.605729e+04	7.147530e+03	2.961844e+03	0	1.512649e-03
1.290000e+09	1.595227e+14	0.000000e+00	7.483447e-01	2.512447e+15	2.825943e+15	1.515980e+14	1.602893e+04	7.141262e+03	2.959247e+03	0	1.505155e-03
1.300000e+09	1.571616e+14	0.000000e+00	7.483447e-01	2.492204e+15	2.803897e+15	1.509648e+14	1.600080e+04	7.135037e+03	2.956667e+03	0	1.497692e-03
1.310000e+09	1.548334e+14	0.000000e+00	7.483447e-01	2.472229e+15	2.782138e+15	1.503356e+14	1.597289e+04	7.128856e+03	2.954106e+03	0	1.490259e-03
1.320000e+09	1.525376e+14	0.000000e+00	7.483447e-01	2.452519e+15	2.760661e+15	1.497106e+14	1.594521e+04	7.122717e+03	2.951562e+03	0	1.482857e-03
1.330000e+09	1.502734e+14	0.000000e+00	7.483447e-01	2.433067e+15	2.739462e+15	1.490897e+14	1.591775e+04	7.116620e+03	2.949035e+03	0	1.475483e-03
1.340000e+09	1.480403e+14	0.000000e+00	7.483447e-01	2.413870e+15	2.718535e+15	1.484729e+14	1.589050e+04	7.110565e+03	2.946526e+03	0	1.468138e-03
1.350000e+09	1.458378e+14	0.000000e+00	7.483447e-01	2.394922e+15	2.697875e+15	1.478601e+14	1.586347e+04	7.104551e+03	2.944034e+03	0	1.460821e-03
1.360000e+09	1.436652e+14	0.000000e+00	7.483447e-01	2.376220e+15	2.677478e+15	1.472512e+14	1.583665e+04	7.098578e+03	2.941559e+03	0	1.453531e-03
