#t		Qconv[W]	Ri[Rp]		R*[Rp]		Qc[W]		Qm[W]		Qr[W]		Tcmb[K]		Tl[K]		Tup[K]		RiFlag		Bs[T]
0.000000e+00	1.097627e+15	0.000000e+00	7.516779e-01	1.114158e+16	2.832392e+15	3.297188e+14	2.461790e+04	6.683955e+03	2.865138e+03	0	2.846327e-03
1.000000e+07	1.097807e+15	0.000000e+00	7.516779e-01	1.113138e+16	3.691270e+15	3.278919e+14	2.452608e+04	6.964428e+03	2.985365e+03	0	2.846482e-03
2.000000e+07	1.094322e+15	0.000000e+00	7.516779e-01	1.109430e+16	4.592760e+15	3.260787e+14	2.443435e+04	7.214243e+03	3.092451e+03	0	2.843467e-03
3.000000e+07	1.087644e+15	0.000000e+00	7.516779e-01	1.103384e+16	5.488014e+15	3.242790e+14	2.434292e+04	7.431851e+03	3.185730e+03	0	2.837671e-03
4.000000e+07	1.078308e+15	0.000000e+00	7.516779e-01	1.095394e+16	6.333853e+15	3.224928e+14	2.425199e+04	7.617420e+03	3.265276e+03	0	2.829529e-03
5.000000e+07	1.066850e+15	0.000000e+00	7.516779e-01	1.085856e+16	7.098208e+15	3.207199e+14	2.416172e+04	7.772556e+03	3.331776e+03	0	2.819471e-03
6.000000e+07	1.053765e+15	0.000000e+00	7.516779e-01	1.075133e+16	7.761957e+15	3.189602e+14	2.407222e+04	7.899878e+03	3.386354e+03	0	2.807896e-03
7.000000e+07	1.039477e+15	0.000000e+00	7.516779e-01	1.063540e+16	8.317835e+15	3.172136e+14	2.398361e+04	8.002580e+03	3.430378e+03	0	2.795148e-03
8.000000e+07	1.024341e+15	0.000000e+00	7.516779e-01	1.051336e+16	8.767733e+15	3.154800e+14	2.389595e+04	8.084048e+03	3.465300e+03	0	2.781515e-03
9.000000e+07	1.008637e+15	0.000000e+00	7.516779e-01	1.038728e+16	9.119582e+15	3.137593e+14	2.380929e+04	8.147581e+03	3.492534e+03	0	2.767227e-03
1.000000e+08	9.925851e+14	0.000000e+00	7.516779e-01	1.025877e+16	9.384584e+15	3.120513e+14	2.372366e+04	8.196215e+03	3.513382e+03	0	2.752469e-03
1.100000e+08	9.763527e+14	0.000000e+00	7.516779e-01	1.012907e+16	9.575121e+15	3.103561e+14	2.363909e+04	8.232632e+03	3.528992e+03	0	2.737382e-03
1.200000e+08	9.600672e+14	0.000000e+00	7.516779e-01	9.999124e+15	9.703375e+15	3.086734e+14	2.355558e+04	8.259132e+03	3.540352e+03	0	2.722077e-03
1.300000e+08	9.438239e+14	0.000000e+00	7.516779e-01	9.869616e+15	9.780532e+15	3.070031e+14	2.347315e+04	8.277647e+03	3.548288e+03	0	2.706638e-03
1.400000e+08	9.276934e+14	0.000000e+00	7.516779e-01	9.741070e+15	9.816413e+15	3.053452e+14	2.339177e+04	8.289771e+03	3.553485e+03	0	2.691130e-03
1.500000e+08	9.117276e+14	0.000000e+00	7.516779e-01	9.613864e+15	9.819371e+15	3.036996e+14	2.331145e+04	8.296804e+03	3.556500e+03	0	2.675602e-03
1.600000e+08	8.959641e+14	0.000000e+00	7.516779e-01	9.488274e+15	9.796358e+15	3.020662e+14	2.323217e+04	8.299797e+03	3.557783e+03	0	2.660092e-03
1.700000e+08	8.804298e+14	0.000000e+00	7.516779e-01	9.364494e+15	9.753065e+15	3.004448e+14	2.315393e+04	8.299595e+03	3.557696e+03	0	2.644629e-03
1.800000e+08	8.651433e+14	0.000000e+00	7.516779e-01	9.242659e+15	9.694097e+15	2.988353e+14	2.307670e+04	8.296874e+03	3.556530e+03	0	2.629233e-03
1.900000e+08	8.501170e+14	0.000000e+00	7.516779e-01	9.122860e+15	9.623146e+15	2.972377e+14	2.300048e+04	8.292171e+03	3.554514e+03	0	2.613923e-03
2.000000e+08	8.353588e+14	0.000000e+00	7.516779e-01	9.005150e+15	9.543151e+15	2.956518e+14	2.292523e+04	8.285916e+03	3.551833e+03	0	2.598708e-03
2.100000e+08	8.208729e+14	0.000000e+00	7.516779e-01	8.889560e+15	9.456444e+15	2.940777e+14	2.285096e+04	8.278448e+03	3.548632e+03	0	2.583599e-03
2.200000e+08	8.066609e+14	0.000000e+00	7.516779e-01	8.776097e+15	9.364865e+15	2.925150e+14	2.277763e+04	8.270036e+03	3.545026e+03	0	2.568602e-03
2.300000e+08	7.927224e+14	0.000000e+00	7.516779e-01	8.664758e+15	9.269859e+15	2.909639e+14	2.270524e+04	8.260897e+03	3.541108e+03	0	2.553721e-03
2.400000e+08	7.790553e+14	0.000000e+00	7.516779e-01	8.555526e+15	9.172562e+15	2.894241e+14	2.263376e+04	8.251198e+03	3.536951e+03	0	2.538960e-03
2.500000e+08	7.656567e+14	0.000000e+00	7.516779e-01	8.448375e+15	9.073862e+15	2.878956e+14	2.256318e+04	8.241076e+03	3.532612e+03	0	2.524321e-03
2.600000e+08	7.525227e+14	0.000000e+00	7.516779e-01	8.343276e+15	8.974453e+15	2.863783e+14	2.249348e+04	8.230637e+03	3.528137e+03	0	2.509803e-03
2.700000e+08	7.396488e+14	0.000000e+00	7.516779e-01	8.240194e+15	8.874872e+15	2.848720e+14	2.242464e+04	8.219966e+03	3.523563e+03	0	2.495409e-03
2.800000e+08	7.270302e+14	0.000000e+00	7.516779e-01	8.139091e+15	8.775536e+15	2.833768e+14	2.235665e+04	8.209132e+03	3.518919e+03	0	2.481136e-03
2.900000e+08	7.146617e+14	0.000000e+00	7.516779e-01	8.039927e+15	8.676768e+15	2.818925e+14	2.228950e+04	8.198187e+03	3.514227e+03	0	2.466986e-03
3.000000e+08	7.025379e+14	0.000000e+00	7.516779e-01	7.942660e+15	8.578813e+15	2.804190e+14	2.222315e+04	8.187175e+03	3.509507e+03	0	2.452956e-03
3.100000e+08	6.906535e+14	0.000000e+00	7.516779e-01	7.847250e+15	8.481858e+15	2.789562e+14	2.215761e+04	8.176130e+03	3.504772e+03	0	2.439045e-03
3.200000e+08	6.790029e+14	0.000000e+00	7.516779e-01	7.753654e+15	8.386042e+15	2.775041e+14	2.209285e+04	8.165078e+03	3.500035e+03	0	2.425253e-03
3.300000e+08	6.675807e+14	0.000000e+00	7.516779e-01	7.661830e+15	8.291470e+15	2.760626e+14	2.202886e+04	8.154041e+03	3.495303e+03	0	2.411577e-03
3.400000e+08	6.563815e+14	0.000000e+00	7.516779e-01	7.571736e+15	8.198215e+15	2.746315e+14	2.196563e+04	8.143035e+03	3.490586e+03	0	2.398015e-03
3.500000e+08	6.453998e+14	0.000000e+00	7.516779e-01	7.483331e+15	8.106329e+15	2.732108e+14	2.190313e+04	8.132074e+03	3.485887e+03	0	2.384566e-03
3.600000e+08	6.346305e+14	0.000000e+00	7.516779e-01	7.396575e+15	8.015846e+15	2.718004e+14	2.184137e+04	8.121169e+03	3.481213e+03	0	2.371229e-03
3.700000e+08	6.240682e+14	0.000000e+00	7.516779e-01	7.311428e+15	7.926785e+15	2.704002e+14	2.178031e+04	8.110328e+03	3.476566e+03	0	2.358000e-03
3.800000e+08	6.137081e+14	0.000000e+00	7.516779e-01	7.227851e+15	7.839155e+15	2.690101e+14	2.171996e+04	8.099557e+03	3.471948e+03	0	2.344879e-03
3.900000e+08	6.035450e+14	0.000000e+00	7.516779e-01	7.145807e+15	7.752957e+15	2.676301e+14	2.166030e+04	8.088860e+03	3.467363e+03	0	2.331863e-03
4.000000e+08	5.935742e+14	0.000000e+00	7.516779e-01	7.065258e+15	7.668183e+15	2.662601e+14	2.160130e+04	8.078242e+03	3.462812e+03	0	2.318951e-03
4.100000e+08	5.837909e+14	0.000000e+00	7.516779e-01	6.986167e+15	7.584822e+15	2.648999e+14	2.154298e+04	8.067706e+03	3.458295e+03	0	2.306140e-03
4.200000e+08	5.741906e+14	0.000000e+00	7.516779e-01	6.908501e+15	7.502859e+15	2.635495e+14	2.148530e+04	8.057253e+03	3.453814e+03	0	2.293428e-03
4.300000e+08	5.647688e+14	0.000000e+00	7.516779e-01	6.832224e+15	7.422276e+15	2.622089e+14	2.142826e+04	8.046885e+03	3.449370e+03	0	2.280815e-03
4.400000e+08	5.555212e+14	0.000000e+00	7.516779e-01	6.757303e+15	7.343050e+15	2.608779e+14	2.137185e+04	8.036602e+03	3.444962e+03	0	2.268297e-03
4.500000e+08	5.464434e+14	0.000000e+00	7.516779e-01	6.683707e+15	7.265161e+15	2.595565e+14	2.131606e+04	8.026405e+03	3.440591e+03	0	2.255874e-03
4.600000e+08	5.375315e+14	0.000000e+00	7.516779e-01	6.611403e+15	7.188584e+15	2.582445e+14	2.126087e+04	8.016295e+03	3.436257e+03	0	2.243543e-03
4.700000e+08	5.287814e+14	0.000000e+00	7.516779e-01	6.540360e+15	7.113296e+15	2.569420e+14	2.120628e+04	8.006270e+03	3.431960e+03	0	2.231303e-03
4.800000e+08	5.201893e+14	0.000000e+00	7.516779e-01	6.470550e+15	7.039271e+15	2.556488e+14	2.115227e+04	7.996332e+03	3.427700e+03	0	2.219152e-03
4.900000e+08	5.117514e+14	0.000000e+00	7.516779e-01	6.401944e+15	6.966485e+15	2.543649e+14	2.109883e+04	7.986478e+03	3.423476e+03	0	2.207087e-03
5.000000e+08	5.034640e+14	0.000000e+00	7.516779e-01	6.334512e+15	6.894913e+15	2.530901e+14	2.104597e+04	7.976710e+03	3.419289e+03	0	2.195108e-03
5.100000e+08	4.953236e+14	0.000000e+00	7.516779e-01	6.268229e+15	6.824529e+15	2.518245e+14	2.099365e+04	7.967025e+03	3.415137e+03	0	2.183213e-03
5.200000e+08	4.873268e+14	0.000000e+00	7.516779e-01	6.203067e+15	6.755308e+15	2.505678e+14	2.094188e+04	7.957423e+03	3.411022e+03	0	2.171400e-03
5.300000e+08	4.794701e+14	0.000000e+00	7.516779e-01	6.139001e+15	6.687227e+15	2.493202e+14	2.089065e+04	7.947904e+03	3.406941e+03	0	2.159668e-03
5.400000e+08	4.717504e+14	0.000000e+00	7.516779e-01	6.076005e+15	6.620261e+15	2.480814e+14	2.083995e+04	7.938466e+03	3.402896e+03	0	2.148015e-03
5.500000e+08	4.641644e+14	0.000000e+00	7.516779e-01	6.014056e+15	6.554386e+15	2.468515e+14	2.078976e+04	7.929109e+03	3.398884e+03	0	2.136439e-03
5.600000e+08	4.567092e+14	0.000000e+00	7.516779e-01	5.953130e+15	6.489580e+15	2.456303e+14	2.074008e+04	7.919831e+03	3.394907e+03	0	2.124939e-03
5.700000e+08	4.493816e+14	0.000000e+00	7.516779e-01	5.893203e+15	6.425818e+15	2.444177e+14	2.069091e+04	7.910632e+03	3.390964e+03	0	2.113513e-03
5.800000e+08	4.421789e+14	0.000000e+00	7.516779e-01	5.834254e+15	6.363080e+15	2.432138e+14	2.064223e+04	7.901511e+03	3.387054e+03	0	2.102160e-03
5.900000e+08	4.350981e+14	0.000000e+00	7.516779e-01	5.776261e+15	6.301342e+15	2.420184e+14	2.059403e+04	7.892465e+03	3.383177e+03	0	2.090879e-03
6.000000e+08	4.281366e+14	0.000000e+00	7.516779e-01	5.719203e+15	6.240584e+15	2.408314e+14	2.054632e+04	7.883496e+03	3.379332e+03	0	2.079668e-03
6.100000e+08	4.212917e+14	0.000000e+00	7.516779e-01	5.663059e+15	6.180784e+15	2.396529e+14	2.049907e+04	7.874601e+03	3.375519e+03	0	2.068525e-03
6.200000e+08	4.145608e+14	0.000000e+00	7.516779e-01	5.607809e+15	6.121923e+15	2.384827e+14	2.045228e+04	7.865780e+03	3.371738e+03	0	2.057450e-03
6.300000e+08	4.079413e+14	0.000000e+00	7.516779e-01	5.553434e+15	6.063979e+15	2.373207e+14	2.040595e+04	7.857031e+03	3.367987e+03	0	2.046440e-03
6.400000e+08	4.014309e+14	0.000000e+00	7.516779e-01	5.499916e+15	6.006935e+15	2.361670e+14	2.036007e+04	7.848354e+03	3.364268e+03	0	2.035495e-03
6.500000e+08	3.950271e+14	0.000000e+00	7.516779e-01	5.447234e+15	5.950771e+15	2.350213e+14	2.031463e+04	7.839747e+03	3.360579e+03	0	2.024613e-03
6.600000e+08	3.887276e+14	0.000000e+00	7.516779e-01	5.395373e+15	5.895468e+15	2.338838e+14	2.026962e+04	7.831211e+03	3.356919e+03	0	2.013794e-03
6.700000e+08	3.825302e+14	0.000000e+00	7.516779e-01	5.344314e+15	5.841009e+15	2.327542e+14	2.022504e+04	7.822743e+03	3.353290e+03	0	2.003034e-03
6.800000e+08	3.764327e+14	0.000000e+00	7.516779e-01	5.294040e+15	5.787376e+15	2.316325e+14	2.018088e+04	7.814343e+03	3.349689e+03	0	1.992334e-03
6.900000e+08	3.704329e+14	0.000000e+00	7.516779e-01	5.244535e+15	5.734551e+15	2.305188e+14	2.013714e+04	7.806010e+03	3.346117e+03	0	1.981693e-03
7.000000e+08	3.645287e+14	0.000000e+00	7.516779e-01	5.195783e+15	5.682519e+15	2.294128e+14	2.009380e+04	7.797743e+03	3.342573e+03	0	1.971108e-03
7.100000e+08	3.587182e+14	0.000000e+00	7.516779e-01	5.147769e+15	5.631262e+15	2.283146e+14	2.005086e+04	7.789541e+03	3.339057e+03	0	1.960579e-03
7.200000e+08	3.529993e+14	0.000000e+00	7.516779e-01	5.100476e+15	5.580766e+15	2.272240e+14	2.000832e+04	7.781404e+03	3.335569e+03	0	1.950104e-03
7.300000e+08	3.473702e+14	0.000000e+00	7.516779e-01	5.053891e+15	5.531014e+15	2.261411e+14	1.996617e+04	7.773330e+03	3.332108e+03	0	1.939683e-03
7.400000e+08	3.418289e+14	0.000000e+00	7.516779e-01	5.007998e+15	5.481992e+15	2.250658e+14	1.992440e+04	7.765318e+03	3.328674e+03	0	1.929313e-03
7.500000e+08	3.363737e+14	0.000000e+00	7.516779e-01	4.962785e+15	5.433685e+15	2.239979e+14	1.988301e+04	7.757369e+03	3.325266e+03	0	1.918995e-03
7.600000e+08	3.310027e+14	0.000000e+00	7.516779e-01	4.918236e+15	5.386079e+15	2.229375e+14	1.984200e+04	7.749480e+03	3.321885e+03	0	1.908726e-03
7.700000e+08	3.257143e+14	0.000000e+00	7.516779e-01	4.874338e+15	5.339159e+15	2.218844e+14	1.980135e+04	7.741652e+03	3.318529e+03	0	1.898507e-03
7.800000e+08	3.205068e+14	0.000000e+00	7.516779e-01	4.831080e+15	5.292913e+15	2.208387e+14	1.976106e+04	7.733883e+03	3.315199e+03	0	1.888334e-03
7.900000e+08	3.153784e+14	0.000000e+00	7.516779e-01	4.788447e+15	5.247326e+15	2.198002e+14	1.972113e+04	7.726173e+03	3.311894e+03	0	1.878209e-03
8.000000e+08	3.103277e+14	0.000000e+00	7.516779e-01	4.746428e+15	5.202386e+15	2.187690e+14	1.968155e+04	7.718520e+03	3.308614e+03	0	1.868128e-03
8.100000e+08	3.053531e+14	0.000000e+00	7.516779e-01	4.705010e+15	5.158080e+15	2.177448e+14	1.964232e+04	7.710925e+03	3.305358e+03	0	1.858092e-03
8.200000e+08	3.004530e+14	0.000000e+00	7.516779e-01	4.664182e+15	5.114396e+15	2.167278e+14	1.960343e+04	7.703386e+03	3.302126e+03	0	1.848099e-03
8.300000e+08	2.956259e+14	0.000000e+00	7.516779e-01	4.623932e+15	5.071322e+15	2.157178e+14	1.956487e+04	7.695903e+03	3.298918e+03	0	1.838149e-03
8.400000e+08	2.908705e+14	0.000000e+00	7.516779e-01	4.584249e+15	5.028847e+15	2.147148e+14	1.952665e+04	7.688475e+03	3.295734e+03	0	1.828239e-03
8.500000e+08	2.861852e+14	0.000000e+00	7.516779e-01	4.545122e+15	4.986958e+15	2.137187e+14	1.948876e+04	7.681101e+03	3.292573e+03	0	1.818370e-03
8.600000e+08	2.815688e+14	0.000000e+00	7.516779e-01	4.506541e+15	4.945645e+15	2.127294e+14	1.945118e+04	7.673780e+03	3.289435e+03	0	1.808539e-03
8.700000e+08	2.770199e+14	0.000000e+00	7.516779e-01	4.468494e+15	4.904897e+15	2.117470e+14	1.941393e+04	7.666513e+03	3.286320e+03	0	1.798747e-03
8.800000e+08	2.725371e+14	0.000000e+00	7.516779e-01	4.430973e+15	4.864703e+15	2.107713e+14	1.937699e+04	7.659298e+03	3.283227e+03	0	1.788992e-03
8.900000e+08	2.681193e+14	0.000000e+00	7.516779e-01	4.393966e+15	4.825052e+15	2.098024e+14	1.934035e+04	7.652134e+03	3.280157e+03	0	1.779273e-03
9.000000e+08	2.637651e+14	0.000000e+00	7.516779e-01	4.357464e+15	4.785935e+15	2.088401e+14	1.930403e+04	7.645022e+03	3.277108e+03	0	1.769588e-03
9.100000e+08	2.594733e+14	0.000000e+00	7.516779e-01	4.321459e+15	4.747342e+15	2.078843e+14	1.926800e+04	7.637960e+03	3.274081e+03	0	1.759938e-03
9.200000e+08	2.552428e+14	0.000000e+00	7.516779e-01	4.285940e+15	4.709263e+15	2.069352e+14	1.923227e+04	7.630947e+03	3.271075e+03	0	1.750321e-03
9.300000e+08	2.510724e+14	0.000000e+00	7.516779e-01	4.250898e+15	4.671689e+15	2.059925e+14	1.919683e+04	7.623984e+03	3.268090e+03	0	1.740735e-03
9.400000e+08	2.469609e+14	0.000000e+00	7.516779e-01	4.216325e+15	4.634610e+15	2.050563e+14	1.916169e+04	7.617069e+03	3.265126e+03	0	1.731181e-03
9.500000e+08	2.429073e+14	0.000000e+00	7.516779e-01	4.182213e+15	4.598017e+15	2.041264e+14	1.912683e+04	7.610203e+03	3.262182e+03	0	1.721657e-03
9.600000e+08	2.389104e+14	0.000000e+00	7.516779e-01	4.148552e+15	4.561902e+15	2.032029e+14	1.909224e+04	7.603384e+03	3.259259e+03	0	1.712162e-03
9.700000e+08	2.349693e+14	0.000000e+00	7.516779e-01	4.115335e+15	4.526257e+15	2.022857e+14	1.905794e+04	7.596611e+03	3.256356e+03	0	1.702695e-03
9.800000e+08	2.310829e+14	0.000000e+00	7.516779e-01	4.082553e+15	4.491071e+15	2.013747e+14	1.902391e+04	7.589885e+03	3.253473e+03	0	1.693255e-03
9.900000e+08	2.272501e+14	0.000000e+00	7.516779e-01	4.050200e+15	4.456339e+15	2.004699e+14	1.899015e+04	7.583205e+03	3.250609e+03	0	1.683841e-03
1.000000e+09	2.234700e+14	0.000000e+00	7.516779e-01	4.018266e+15	4.422050e+15	1.995713e+14	1.895666e+04	7.576569e+03	3.247765e+03	0	1.674453e-03
1.010000e+09	2.197417e+14	0.000000e+00	7.516779e-01	3.986745e+15	4.388198e+15	1.986787e+14	1.892343e+04	7.569979e+03	3.244940e+03	0	1.665088e-03
1.020000e+09	2.160642e+14	0.000000e+00	7.516779e-01	3.955629e+15	4.354775e+15	1.977922e+14	1.889046e+04	7.563432e+03	3.242134e+03	0	1.655747e-03
1.030000e+09	2.124366e+14	0.000000e+00	7.516779e-01	3.924911e+15	4.321774e+15	1.969117e+14	1.885775e+04	7.556930e+03	3.239346e+03	0	1.646429e-03
1.040000e+09	2.088579e+14	0.000000e+00	7.516779e-01	3.894585e+15	4.289186e+15	1.960372e+14	1.882529e+04	7.550470e+03	3.236577e+03	0	1.637131e-03
1.050000e+09	2.053274e+14	0.000000e+00	7.516779e-01	3.864643e+15	4.257006e+15	1.951685e+14	1.879309e+04	7.544053e+03	3.233827e+03	0	1.627854e-03
1.060000e+09	2.018441e+14	0.000000e+00	7.516779e-01	3.835078e+15	4.225225e+15	1.943058e+14	1.876112e+04	7.537678e+03	3.231094e+03	0	1.618596e-03
1.070000e+09	1.984072e+14	0.000000e+00	7.516779e-01	3.805885e+15	4.193837e+15	1.934488e+14	1.872941e+04	7.531345e+03	3.228379e+03	0	1.609357e-03
1.080000e+09	1.950159e+14	0.000000e+00	7.516779e-01	3.777056e+15	4.162836e+15	1.925976e+14	1.869793e+04	7.525053e+03	3.225682e+03	0	1.600135e-03
1.090000e+09	1.916695e+14	0.000000e+00	7.516779e-01	3.748586e+15	4.132214e+15	1.917521e+14	1.866669e+04	7.518802e+03	3.223003e+03	0	1.590929e-03
1.100000e+09	1.883670e+14	0.000000e+00	7.516779e-01	3.720468e+15	4.101966e+15	1.909123e+14	1.863569e+04	7.512591e+03	3.220340e+03	0	1.581739e-03
1.110000e+09	1.851078e+14	0.000000e+00	7.516779e-01	3.692697e+15	4.072085e+15	1.900781e+14	1.860492e+04	7.506420e+03	3.217695e+03	0	1.572563e-03
1.120000e+09	1.818910e+14	0.000000e+00	7.516779e-01	3.665266e+15	4.042564e+15	1.892495e+14	1.857437e+04	7.500289e+03	3.215067e+03	0	1.563401e-03
1.130000e+09	1.787161e+14	0.000000e+00	7.516779e-01	3.638169e+15	4.013399e+15	1.884265e+14	1.854406e+04	7.494196e+03	3.212455e+03	0	1.554251e-03
1.140000e+09	1.755822e+14	0.000000e+00	7.516779e-01	3.611402e+15	3.984582e+15	1.876089e+14	1.851397e+04	7.488142e+03	3.209860e+03	0	1.545112e-03
1.150000e+09	1.724886e+14	0.000000e+00	7.516779e-01	3.584959e+15	3.956109e+15	1.867968e+14	1.848409e+04	7.482126e+03	3.207281e+03	0	1.535984e-03
1.160000e+09	1.694346e+14	0.000000e+00	7.516779e-01	3.558834e+15	3.927973e+15	1.859902e+14	1.845444e+04	7.476147e+03	3.204718e+03	0	1.526865e-03
1.170000e+09	1.664197e+14	0.000000e+00	7.516779e-01	3.533022e+15	3.900170e+15	1.851889e+14	1.842500e+04	7.470206e+03	3.202172e+03	0	1.517754e-03
1.180000e+09	1.634431e+14	0.000000e+00	7.516779e-01	3.507518e+15	3.872693e+15	1.843929e+14	1.839578e+04	7.464302e+03	3.199641e+03	0	1.508651e-03
1.190000e+09	1.605041e+14	0.000000e+00	7.516779e-01	3.482316e+15	3.845537e+15	1.836023e+14	1.836676e+04	7.458435e+03	3.197126e+03	0	1.499553e-03
1.200000e+09	1.576022e+14	0.000000e+00	7.516779e-01	3.457413e+15	3.818698e+15	1.828168e+14	1.833796e+04	7.452603e+03	3.194626e+03	0	1.490461e-03
1.210000e+09	1.547368e+14	0.000000e+00	7.516779e-01	3.432802e+15	3.792169e+15	1.820366e+14	1.830936e+04	7.446807e+03	3.192141e+03	0	1.481373e-03
1.220000e+09	1.519071e+14	0.000000e+00	7.516779e-01	3.408480e+15	3.765947e+15	1.812616e+14	1.828096e+04	7.441047e+03	3.189672e+03	0	1.472287e-03
1.230000e+09	1.491127e+14	0.000000e+00	7.516779e-01	3.384442e+15	3.740025e+15	1.804917e+14	1.825276e+04	7.435321e+03	3.187218e+03	0	1.463203e-03
1.240000e+09	1.463529e+14	0.000000e+00	7.516779e-01	3.360682e+15	3.714400e+15	1.797268e+14	1.822476e+04	7.429630e+03	3.184778e+03	0	1.454120e-03
1.250000e+09	1.436273e+14	0.000000e+00	7.516779e-01	3.337197e+15	3.689067e+15	1.789671e+14	1.819696e+04	7.423974e+03	3.182353e+03	0	1.445036e-03
1.260000e+09	1.409351e+14	0.000000e+00	7.516779e-01	3.313983e+15	3.664021e+15	1.782123e+14	1.816935e+04	7.418351e+03	3.179943e+03	0	1.435951e-03
1.270000e+09	1.382759e+14	0.000000e+00	7.516779e-01	3.291035e+15	3.639258e+15	1.774625e+14	1.814193e+04	7.412761e+03	3.177547e+03	0	1.426862e-03
1.280000e+09	1.356492e+14	0.000000e+00	7.516779e-01	3.268348e+15	3.614773e+15	1.767176e+14	1.811471e+04	7.407205e+03	3.175166e+03	0	1.417769e-03
1.290000e+09	1.330544e+14	0.000000e+00	7.516779e-01	3.245919e+15	3.590562e+15	1.759777e+14	1.808767e+04	7.401682e+03	3.172798e+03	0	1.408671e-03
1.300000e+09	1.304911e+14	0.000000e+00	7.516779e-01	3.223744e+15	3.566620e+15	1.752426e+14	1.806081e+04	7.396191e+03	3.170444e+03	0	1.399566e-03
1.310000e+09	1.279586e+14	0.000000e+00	7.516779e-01	3.201818e+15	3.542944e+15	1.745123e+14	1.803414e+04	7.390733e+03	3.168105e+03	0	1.390453e-03
1.320000e+09	1.254565e+14	0.000000e+00	7.516779e-01	3.180139e+15	3.519529e+15	1.737868e+14	1.800765e+04	7.385306e+03	3.165778e+03	0	1.381330e-03
1.330000e+09	1.229844e+14	0.000000e+00	7.516779e-01	3.158701e+15	3.496372e+15	1.730660e+14	1.798134e+04	7.379911e+03	3.163466e+03	0	1.372197e-03
1.340000e+09	1.205418e+14	0.000000e+00	7.516779e-01	3.137502e+15	3.473468e+15	1.723499e+14	1.795520e+04	7.374547e+03	3.161166e+03	0	1.363052e-03
1.350000e+09	1.181281e+14	0.000000e+00	7.516779e-01	3.116537e+15	3.450814e+15	1.716386e+14	1.792924e+04	7.369214e+03	3.158880e+03	0	1.353893e-03
1.360000e+09	1.157430e+14	0.000000e+00	7.516779e-01	3.095804e+15	3.428406e+15	1.709318e+14	1.790345e+04	7.363911e+03	3.156607e+03	0	1.344719e-03
