#t		Qconv[W]	Ri[Rp]		R*[Rp]		Qc[W]		Qm[W]		Qr[W]		Tcmb[K]		Tl[K]		Tup[K]		RiFlag		Bs[T]
0.000000e+00	1.070315e+15	0.000000e+00	7.516781e-01	1.121762e+16	2.770195e+15	3.397804e+14	2.495081e+04	6.750036e+03	2.883307e+03	0	2.821415e-03
1.000000e+07	1.071958e+15	0.000000e+00	7.516781e-01	1.121771e+16	3.601363e+15	3.378977e+14	2.486343e+04	7.027962e+03	3.002024e+03	0	2.822857e-03
2.000000e+07	1.070029e+15	0.000000e+00	7.516781e-01	1.119172e+16	4.480194e+15	3.360292e+14	2.477604e+04	7.277293e+03	3.108527e+03	0	2.821163e-03
3.000000e+07	1.064937e+15	0.000000e+00	7.516781e-01	1.114265e+16	5.361724e+15	3.341746e+14	2.468886e+04	7.496315e+03	3.202083e+03	0	2.816681e-03
4.000000e+07	1.057162e+15	0.000000e+00	7.516781e-01	1.107402e+16	6.204754e+15	3.323338e+14	2.460206e+04	7.684865e+03	3.282624e+03	0	2.809809e-03
5.000000e+07	1.047197e+15	0.000000e+00	7.516781e-01	1.098947e+16	6.977160e+15	3.305068e+14	2.451579e+04	7.844132e+03	3.350655e+03	0	2.800953e-03
6.000000e+07	1.035510e+15	0.000000e+00	7.516781e-01	1.089244e+16	7.658205e+15	3.286934e+14	2.443018e+04	7.976308e+03	3.407115e+03	0	2.790495e-03
7.000000e+07	1.022517e+15	0.000000e+00	7.516781e-01	1.078596e+16	8.238175e+15	3.268935e+14	2.434532e+04	8.084206e+03	3.453204e+03	0	2.778774e-03
8.000000e+07	1.008565e+15	0.000000e+00	7.516781e-01	1.067259e+16	8.716347e+15	3.251070e+14	2.426129e+04	8.170907e+03	3.490239e+03	0	2.766077e-03
9.000000e+07	9.939406e+14	0.000000e+00	7.516781e-01	1.055443e+16	9.098324e+15	3.233338e+14	2.417814e+04	8.239492e+03	3.519535e+03	0	2.752643e-03
1.000000e+08	9.788707e+14	0.000000e+00	7.516781e-01	1.043314e+16	9.393479e+15	3.215738e+14	2.409590e+04	8.292854e+03	3.542329e+03	0	2.738660e-03
1.100000e+08	9.635320e+14	0.000000e+00	7.516781e-01	1.031001e+16	9.612918e+15	3.198268e+14	2.401461e+04	8.333598e+03	3.559733e+03	0	2.724280e-03
1.200000e+08	9.480609e+14	0.000000e+00	7.516781e-01	1.018604e+16	9.768027e+15	3.180927e+14	2.393427e+04	8.363994e+03	3.572716e+03	0	2.709620e-03
1.300000e+08	9.325613e+14	0.000000e+00	7.516781e-01	1.006200e+16	9.869583e+15	3.163715e+14	2.385489e+04	8.385973e+03	3.582105e+03	0	2.694773e-03
1.400000e+08	9.171118e+14	0.000000e+00	7.516781e-01	9.938458e+15	9.927271e+15	3.146631e+14	2.377647e+04	8.401153e+03	3.588589e+03	0	2.679809e-03
1.500000e+08	9.017711e+14	0.000000e+00	7.516781e-01	9.815839e+15	9.949492e+15	3.129672e+14	2.369902e+04	8.410867e+03	3.592738e+03	0	2.664783e-03
1.600000e+08	8.865829e+14	0.000000e+00	7.516781e-01	9.694464e+15	9.943354e+15	3.112839e+14	2.362252e+04	8.416205e+03	3.595018e+03	0	2.649737e-03
1.700000e+08	8.715795e+14	0.000000e+00	7.516781e-01	9.574567e+15	9.914762e+15	3.096130e+14	2.354695e+04	8.418051e+03	3.595807e+03	0	2.634705e-03
1.800000e+08	8.567838e+14	0.000000e+00	7.516781e-01	9.456315e+15	9.868557e+15	3.079544e+14	2.347232e+04	8.417120e+03	3.595410e+03	0	2.619711e-03
1.900000e+08	8.422123e+14	0.000000e+00	7.516781e-01	9.339825e+15	9.808667e+15	3.063081e+14	2.339861e+04	8.413985e+03	3.594070e+03	0	2.604775e-03
2.000000e+08	8.278761e+14	0.000000e+00	7.516781e-01	9.225177e+15	9.738255e+15	3.046739e+14	2.332581e+04	8.409106e+03	3.591986e+03	0	2.589911e-03
2.100000e+08	8.137823e+14	0.000000e+00	7.516781e-01	9.112422e+15	9.659855e+15	3.030516e+14	2.325389e+04	8.402850e+03	3.589314e+03	0	2.575130e-03
2.200000e+08	7.999350e+14	0.000000e+00	7.516781e-01	9.001586e+15	9.575485e+15	3.014413e+14	2.318285e+04	8.395513e+03	3.586180e+03	0	2.560440e-03
2.300000e+08	7.863359e+14	0.000000e+00	7.516781e-01	8.892681e+15	9.486751e+15	2.998428e+14	2.311267e+04	8.387328e+03	3.582684e+03	0	2.545848e-03
2.400000e+08	7.729851e+14	0.000000e+00	7.516781e-01	8.785705e+15	9.394921e+15	2.982561e+14	2.304333e+04	8.378485e+03	3.578906e+03	0	2.531357e-03
2.500000e+08	7.598811e+14	0.000000e+00	7.516781e-01	8.680645e+15	9.301000e+15	2.966809e+14	2.297483e+04	8.369132e+03	3.574911e+03	0	2.516971e-03
2.600000e+08	7.470216e+14	0.000000e+00	7.516781e-01	8.577483e+15	9.205780e+15	2.951173e+14	2.290714e+04	8.359391e+03	3.570750e+03	0	2.502692e-03
2.700000e+08	7.344034e+14	0.000000e+00	7.516781e-01	8.476193e+15	9.109880e+15	2.935651e+14	2.284026e+04	8.349355e+03	3.566463e+03	0	2.488521e-03
2.800000e+08	7.220229e+14	0.000000e+00	7.516781e-01	8.376746e+15	9.013790e+15	2.920242e+14	2.277416e+04	8.339103e+03	3.562084e+03	0	2.474458e-03
2.900000e+08	7.098760e+14	0.000000e+00	7.516781e-01	8.279111e+15	8.917889e+15	2.904946e+14	2.270883e+04	8.328695e+03	3.557638e+03	0	2.460503e-03
3.000000e+08	6.979584e+14	0.000000e+00	7.516781e-01	8.183253e+15	8.822473e+15	2.889762e+14	2.264426e+04	8.318181e+03	3.553147e+03	0	2.446656e-03
3.100000e+08	6.862654e+14	0.000000e+00	7.516781e-01	8.089139e+15	8.727770e+15	2.874688e+14	2.258044e+04	8.307599e+03	3.548627e+03	0	2.432916e-03
3.200000e+08	6.747924e+14	0.000000e+00	7.516781e-01	7.996732e+15	8.633955e+15	2.859723e+14	2.251735e+04	8.296982e+03	3.544092e+03	0	2.419282e-03
3.300000e+08	6.635348e+14	0.000000e+00	7.516781e-01	7.905995e+15	8.541163e+15	2.844868e+14	2.245498e+04	8.286354e+03	3.539552e+03	0	2.405753e-03
3.400000e+08	6.524877e+14	0.000000e+00	7.516781e-01	7.816893e+15	8.449491e+15	2.830120e+14	2.239331e+04	8.275734e+03	3.535016e+03	0	2.392327e-03
3.500000e+08	6.416465e+14	0.000000e+00	7.516781e-01	7.729389e+15	8.359013e+15	2.815480e+14	2.233234e+04	8.265140e+03	3.530491e+03	0	2.379003e-03
3.600000e+08	6.310064e+14	0.000000e+00	7.516781e-01	7.643447e+15	8.269782e+15	2.800945e+14	2.227204e+04	8.254584e+03	3.525981e+03	0	2.365780e-03
3.700000e+08	6.205629e+14	0.000000e+00	7.516781e-01	7.559032e+15	8.181831e+15	2.786516e+14	2.221242e+04	8.244076e+03	3.521493e+03	0	2.352655e-03
3.800000e+08	6.103114e+14	0.000000e+00	7.516781e-01	7.476109e+15	8.095184e+15	2.772191e+14	2.215344e+04	8.233623e+03	3.517028e+03	0	2.339628e-03
3.900000e+08	6.002474e+14	0.000000e+00	7.516781e-01	7.394644e+15	8.009852e+15	2.757970e+14	2.209512e+04	8.223232e+03	3.512589e+03	0	2.326697e-03
4.000000e+08	5.903666e+14	0.000000e+00	7.516781e-01	7.314603e+15	7.925838e+15	2.743852e+14	2.203743e+04	8.212909e+03	3.508180e+03	0	2.313859e-03
4.100000e+08	5.806647e+14	0.000000e+00	7.516781e-01	7.235954e+15	7.843140e+15	2.729835e+14	2.198036e+04	8.202656e+03	3.503800e+03	0	2.301114e-03
4.200000e+08	5.711375e+14	0.000000e+00	7.516781e-01	7.158664e+15	7.761749e+15	2.715919e+14	2.192390e+04	8.192476e+03	3.499452e+03	0	2.288460e-03
4.300000e+08	5.617809e+14	0.000000e+00	7.516781e-01	7.082703e+15	7.681655e+15	2.702104e+14	2.186804e+04	8.182372e+03	3.495136e+03	0	2.275894e-03
4.400000e+08	5.525910e+14	0.000000e+00	7.516781e-01	7.008040e+15	7.602842e+15	2.688388e+14	2.181278e+04	8.172345e+03	3.490853e+03	0	2.263416e-03
4.500000e+08	5.435638e+14	0.000000e+00	7.516781e-01	6.934645e+15	7.525293e+15	2.674770e+14	2.175809e+04	8.162396e+03	3.486603e+03	0	2.251023e-03
4.600000e+08	5.346957e+14	0.000000e+00	7.516781e-01	6.862490e+15	7.448990e+15	2.661250e+14	2.170398e+04	8.152526e+03	3.482387e+03	0	2.238714e-03
4.700000e+08	5.259830e+14	0.000000e+00	7.516781e-01	6.791546e+15	7.373913e+15	2.647828e+14	2.165042e+04	8.142734e+03	3.478204e+03	0	2.226488e-03
4.800000e+08	5.174220e+14	0.000000e+00	7.516781e-01	6.721786e+15	7.300039e+15	2.634501e+14	2.159742e+04	8.133022e+03	3.474056e+03	0	2.214342e-03
4.900000e+08	5.090093e+14	0.000000e+00	7.516781e-01	6.653183e+15	7.227350e+15	2.621270e+14	2.154496e+04	8.123388e+03	3.469941e+03	0	2.202275e-03
5.000000e+08	5.007415e+14	0.000000e+00	7.516781e-01	6.585711e+15	7.155821e+15	2.608133e+14	2.149304e+04	8.113833e+03	3.465859e+03	0	2.190286e-03
5.100000e+08	4.926154e+14	0.000000e+00	7.516781e-01	6.519346e+15	7.085432e+15	2.595091e+14	2.144164e+04	8.104356e+03	3.461811e+03	0	2.178374e-03
5.200000e+08	4.846276e+14	0.000000e+00	7.516781e-01	6.454062e+15	7.016160e+15	2.582141e+14	2.139075e+04	8.094957e+03	3.457796e+03	0	2.166535e-03
5.300000e+08	4.767752e+14	0.000000e+00	7.516781e-01	6.389836e+15	6.947984e+15	2.569284e+14	2.134038e+04	8.085635e+03	3.453814e+03	0	2.154770e-03
5.400000e+08	4.690551e+14	0.000000e+00	7.516781e-01	6.326644e+15	6.880881e+15	2.556518e+14	2.129050e+04	8.076389e+03	3.449864e+03	0	2.143076e-03
5.500000e+08	4.614643e+14	0.000000e+00	7.516781e-01	6.264464e+15	6.814829e+15	2.543843e+14	2.124112e+04	8.067218e+03	3.445947e+03	0	2.131453e-03
5.600000e+08	4.540000e+14	0.000000e+00	7.516781e-01	6.203274e+15	6.749809e+15	2.531258e+14	2.119222e+04	8.058122e+03	3.442062e+03	0	2.119898e-03
5.700000e+08	4.466594e+14	0.000000e+00	7.516781e-01	6.143053e+15	6.685798e+15	2.518763e+14	2.114379e+04	8.049099e+03	3.438208e+03	0	2.108411e-03
5.800000e+08	4.394397e+14	0.000000e+00	7.516781e-01	6.083779e+15	6.622777e+15	2.506356e+14	2.109584e+04	8.040150e+03	3.434385e+03	0	2.096989e-03
5.900000e+08	4.323384e+14	0.000000e+00	7.516781e-01	6.025432e+15	6.560724e+15	2.494037e+14	2.104834e+04	8.031273e+03	3.430593e+03	0	2.085632e-03
6.000000e+08	4.253528e+14	0.000000e+00	7.516781e-01	5.967993e+15	6.499621e+15	2.481806e+14	2.100130e+04	8.022467e+03	3.426832e+03	0	2.074338e-03
6.100000e+08	4.184805e+14	0.000000e+00	7.516781e-01	5.911442e+15	6.439447e+15	2.469661e+14	2.095471e+04	8.013732e+03	3.423101e+03	0	2.063106e-03
6.200000e+08	4.117191e+14	0.000000e+00	7.516781e-01	5.855761e+15	6.380185e+15	2.457601e+14	2.090855e+04	8.005066e+03	3.419399e+03	0	2.051934e-03
6.300000e+08	4.050661e+14	0.000000e+00	7.516781e-01	5.800931e+15	6.321814e+15	2.445627e+14	2.086284e+04	7.996469e+03	3.415727e+03	0	2.040821e-03
6.400000e+08	3.985192e+14	0.000000e+00	7.516781e-01	5.746935e+15	6.264318e+15	2.433737e+14	2.081754e+04	7.987940e+03	3.412083e+03	0	2.029767e-03
6.500000e+08	3.920763e+14	0.000000e+00	7.516781e-01	5.693755e+15	6.207678e+15	2.421932e+14	2.077267e+04	7.979478e+03	3.408469e+03	0	2.018769e-03
6.600000e+08	3.857351e+14	0.000000e+00	7.516781e-01	5.641375e+15	6.151878e+15	2.410209e+14	2.072821e+04	7.971081e+03	3.404882e+03	0	2.007826e-03
6.700000e+08	3.794935e+14	0.000000e+00	7.516781e-01	5.589778e+15	6.096900e+15	2.398568e+14	2.068416e+04	7.962750e+03	3.401323e+03	0	1.996938e-03
6.800000e+08	3.733494e+14	0.000000e+00	7.516781e-01	5.538948e+15	6.042727e+15	2.387010e+14	2.064051e+04	7.954484e+03	3.397792e+03	0	1.986102e-03
6.900000e+08	3.673009e+14	0.000000e+00	7.516781e-01	5.488870e+15	5.989344e+15	2.375532e+14	2.059726e+04	7.946281e+03	3.394288e+03	0	1.975318e-03
7.000000e+08	3.613459e+14	0.000000e+00	7.516781e-01	5.439528e+15	5.936736e+15	2.364135e+14	2.055440e+04	7.938140e+03	3.390811e+03	0	1.964585e-03
7.100000e+08	3.554825e+14	0.000000e+00	7.516781e-01	5.390908e+15	5.884886e+15	2.352817e+14	2.051192e+04	7.930062e+03	3.387361e+03	0	1.953900e-03
7.200000e+08	3.497088e+14	0.000000e+00	7.516781e-01	5.342995e+15	5.833780e+15	2.341579e+14	2.046982e+04	7.922045e+03	3.383936e+03	0	1.943264e-03
7.300000e+08	3.440231e+14	0.000000e+00	7.516781e-01	5.295776e+15	5.783403e+15	2.330420e+14	2.042809e+04	7.914088e+03	3.380537e+03	0	1.932675e-03
7.400000e+08	3.384236e+14	0.000000e+00	7.516781e-01	5.249236e+15	5.733741e+15	2.319338e+14	2.038673e+04	7.906191e+03	3.377164e+03	0	1.922132e-03
7.500000e+08	3.329085e+14	0.000000e+00	7.516781e-01	5.203362e+15	5.684780e+15	2.308333e+14	2.034574e+04	7.898353e+03	3.373816e+03	0	1.911634e-03
7.600000e+08	3.274761e+14	0.000000e+00	7.516781e-01	5.158141e+15	5.636506e+15	2.297405e+14	2.030510e+04	7.890573e+03	3.370493e+03	0	1.901179e-03
7.700000e+08	3.221248e+14	0.000000e+00	7.516781e-01	5.113561e+15	5.588907e+15	2.286554e+14	2.026481e+04	7.882851e+03	3.367194e+03	0	1.890766e-03
7.800000e+08	3.168530e+14	0.000000e+00	7.516781e-01	5.069608e+15	5.541969e+15	2.275777e+14	2.022487e+04	7.875185e+03	3.363919e+03	0	1.880395e-03
7.900000e+08	3.116592e+14	0.000000e+00	7.516781e-01	5.026272e+15	5.495680e+15	2.265076e+14	2.018527e+04	7.867575e+03	3.360669e+03	0	1.870064e-03
8.000000e+08	3.065417e+14	0.000000e+00	7.516781e-01	4.983540e+15	5.450027e+15	2.254448e+14	2.014601e+04	7.860020e+03	3.357442e+03	0	1.859771e-03
8.100000e+08	3.014992e+14	0.000000e+00	7.516781e-01	4.941400e+15	5.404998e+15	2.243895e+14	2.010709e+04	7.852520e+03	3.354238e+03	0	1.849517e-03
8.200000e+08	2.965301e+14	0.000000e+00	7.516781e-01	4.899842e+15	5.360582e+15	2.233414e+14	2.006849e+04	7.845074e+03	3.351057e+03	0	1.839300e-03
8.300000e+08	2.916331e+14	0.000000e+00	7.516781e-01	4.858854e+15	5.316768e+15	2.223006e+14	2.003021e+04	7.837681e+03	3.347899e+03	0	1.829119e-03
8.400000e+08	2.868067e+14	0.000000e+00	7.516781e-01	4.818426e+15	5.273543e+15	2.212669e+14	1.999226e+04	7.830340e+03	3.344764e+03	0	1.818973e-03
8.500000e+08	2.820497e+14	0.000000e+00	7.516781e-01	4.778547e+15	5.230898e+15	2.202404e+14	1.995461e+04	7.823052e+03	3.341651e+03	0	1.808860e-03
8.600000e+08	2.773606e+14	0.000000e+00	7.516781e-01	4.739207e+15	5.188821e+15	2.192210e+14	1.991728e+04	7.815815e+03	3.338559e+03	0	1.798780e-03
8.700000e+08	2.727383e+14	0.000000e+00	7.516781e-01	4.700396e+15	5.147301e+15	2.182086e+14	1.988026e+04	7.808629e+03	3.335490e+03	0	1.788731e-03
8.800000e+08	2.681814e+14	0.000000e+00	7.516781e-01	4.662105e+15	5.106330e+15	2.172032e+14	1.984354e+04	7.801492e+03	3.332441e+03	0	1.778713e-03
8.900000e+08	2.636887e+14	0.000000e+00	7.516781e-01	4.624323e+15	5.065897e+15	2.162046e+14	1.980712e+04	7.794405e+03	3.329414e+03	0	1.768725e-03
9.000000e+08	2.592590e+14	0.000000e+00	7.516781e-01	4.587042e+15	5.025991e+15	2.152130e+14	1.977099e+04	7.787368e+03	3.326408e+03	0	1.758764e-03
9.100000e+08	2.548912e+14	0.000000e+00	7.516781e-01	4.550252e+15	4.986605e+15	2.142281e+14	1.973515e+04	7.780378e+03	3.323422e+03	0	1.748832e-03
9.200000e+08	2.505841e+14	0.000000e+00	7.516781e-01	4.513945e+15	4.947727e+15	2.132499e+14	1.969960e+04	7.773436e+03	3.320457e+03	0	1.738925e-03
9.300000e+08	2.463366e+14	0.000000e+00	7.516781e-01	4.478111e+15	4.909350e+15	2.122785e+14	1.966433e+04	7.766541e+03	3.317512e+03	0	1.729044e-03
9.400000e+08	2.421476e+14	0.000000e+00	7.516781e-01	4.442743e+15	4.871465e+15	2.113137e+14	1.962934e+04	7.759693e+03	3.314587e+03	0	1.719187e-03
9.500000e+08	2.380160e+14	0.000000e+00	7.516781e-01	4.407833e+15	4.834062e+15	2.103555e+14	1.959463e+04	7.752892e+03	3.311681e+03	0	1.709353e-03
9.600000e+08	2.339408e+14	0.000000e+00	7.516781e-01	4.373371e+15	4.797133e+15	2.094038e+14	1.956019e+04	7.746135e+03	3.308795e+03	0	1.699541e-03
9.700000e+08	2.299210e+14	0.000000e+00	7.516781e-01	4.339350e+15	4.760671e+15	2.084586e+14	1.952602e+04	7.739424e+03	3.305929e+03	0	1.689751e-03
9.800000e+08	2.259556e+14	0.000000e+00	7.516781e-01	4.305763e+15	4.724666e+15	2.075198e+14	1.949211e+04	7.732757e+03	3.303081e+03	0	1.679980e-03
9.900000e+08	2.220436e+14	0.000000e+00	7.516781e-01	4.272601e+15	4.689111e+15	2.065874e+14	1.945846e+04	7.726134e+03	3.300252e+03	0	1.670228e-03
1.000000e+09	2.181840e+14	0.000000e+00	7.516781e-01	4.239858e+15	4.653999e+15	2.056613e+14	1.942508e+04	7.719555e+03	3.297441e+03	0	1.660494e-03
1.010000e+09	2.143760e+14	0.000000e+00	7.516781e-01	4.207527e+15	4.619321e+15	2.047415e+14	1.939195e+04	7.713019e+03	3.294649e+03	0	1.650777e-03
1.020000e+09	2.106186e+14	0.000000e+00	7.516781e-01	4.175599e+15	4.585070e+15	2.038280e+14	1.935907e+04	7.706525e+03	3.291876e+03	0	1.641076e-03
1.030000e+09	2.069109e+14	0.000000e+00	7.516781e-01	4.144068e+15	4.551239e+15	2.029206e+14	1.932644e+04	7.700073e+03	3.289120e+03	0	1.631389e-03
1.040000e+09	2.032520e+14	0.000000e+00	7.516781e-01	4.112928e+15	4.517822e+15	2.020194e+14	1.929405e+04	7.693663e+03	3.286382e+03	0	1.621716e-03
1.050000e+09	1.996412e+14	0.000000e+00	7.516781e-01	4.082171e+15	4.484810e+15	2.011242e+14	1.926191e+04	7.687294e+03	3.283661e+03	0	1.612055e-03
1.060000e+09	1.960775e+14	0.000000e+00	7.516781e-01	4.051792e+15	4.452197e+15	2.002351e+14	1.923001e+04	7.680966e+03	3.280958e+03	0	1.602405e-03
1.070000e+09	1.925602e+14	0.000000e+00	7.516781e-01	4.021784e+15	4.419976e+15	1.993520e+14	1.919834e+04	7.674678e+03	3.278272e+03	0	1.592766e-03
1.080000e+09	1.890885e+14	0.000000e+00	7.516781e-01	3.992140e+15	4.388142e+15	1.984748e+14	1.916691e+04	7.668429e+03	3.275603e+03	0	1.583135e-03
1.090000e+09	1.856615e+14	0.000000e+00	7.516781e-01	3.962855e+15	4.356687e+15	1.976035e+14	1.913571e+04	7.662220e+03	3.272951e+03	0	1.573513e-03
1.100000e+09	1.822785e+14	0.000000e+00	7.516781e-01	3.933923e+15	4.325605e+15	1.967381e+14	1.910474e+04	7.656050e+03	3.270315e+03	0	1.563897e-03
1.110000e+09	1.789388e+14	0.000000e+00	7.516781e-01	3.905337e+15	4.294891e+15	1.958785e+14	1.907399e+04	7.649918e+03	3.267696e+03	0	1.554287e-03
1.120000e+09	1.756417e+14	0.000000e+00	7.516781e-01	3.877093e+15	4.264538e+15	1.950246e+14	1.904347e+04	7.643825e+03	3.265093e+03	0	1.544681e-03
1.130000e+09	1.723864e+14	0.000000e+00	7.516781e-01	3.849184e+15	4.234540e+15	1.941764e+14	1.901316e+04	7.637769e+03	3.262506e+03	0	1.535079e-03
1.140000e+09	1.691722e+14	0.000000e+00	7.516781e-01	3.821605e+15	4.204891e+15	1.933339e+14	1.898308e+04	7.631750e+03	3.259935e+03	0	1.525478e-03
1.150000e+09	1.659984e+14	0.000000e+00	7.516781e-01	3.794351e+15	4.175587e+15	1.924971e+14	1.895321e+04	7.625768e+03	3.257380e+03	0	1.515878e-03
1.160000e+09	1.628644e+14	0.000000e+00	7.516781e-01	3.767417e+15	4.146621e+15	1.916658e+14	1.892355e+04	7.619823e+03	3.254841e+03	0	1.506278e-03
1.170000e+09	1.597695e+14	0.000000e+00	7.516781e-01	3.740796e+15	4.117989e+15	1.908400e+14	1.889410e+04	7.613914e+03	3.252316e+03	0	1.496676e-03
1.180000e+09	1.567131e+14	0.000000e+00	7.516781e-01	3.714485e+15	4.089684e+15	1.900198e+14	1.886486e+04	7.608040e+03	3.249808e+03	0	1.487070e-03
1.190000e+09	1.536945e+14	0.000000e+00	7.516781e-01	3.688478e+15	4.061701e+15	1.892050e+14	1.883582e+04	7.602202e+03	3.247314e+03	0	1.477460e-03
1.200000e+09	1.507131e+14	0.000000e+00	7.516781e-01	3.662771e+15	4.034036e+15	1.883956e+14	1.880699e+04	7.596399e+03	3.244835e+03	0	1.467845e-03
1.210000e+09	1.477683e+14	0.000000e+00	7.516781e-01	3.637359e+15	4.006684e+15	1.875916e+14	1.877836e+04	7.590630e+03	3.242371e+03	0	1.458222e-03
1.220000e+09	1.448596e+14	0.000000e+00	7.516781e-01	3.612236e+15	3.979640e+15	1.867929e+14	1.874993e+04	7.584896e+03	3.239921e+03	0	1.448590e-03
1.230000e+09	1.419863e+14	0.000000e+00	7.516781e-01	3.587399e+15	3.952898e+15	1.859995e+14	1.872169e+04	7.579196e+03	3.237486e+03	0	1.438948e-03
1.240000e+09	1.391478e+14	0.000000e+00	7.516781e-01	3.562844e+15	3.926454e+15	1.852113e+14	1.869364e+04	7.573529e+03	3.235066e+03	0	1.429295e-03
1.250000e+09	1.363436e+14	0.000000e+00	7.516781e-01	3.538564e+15	3.900304e+15	1.844284e+14	1.866579e+04	7.567895e+03	3.232659e+03	0	1.419628e-03
1.260000e+09	1.335733e+14	0.000000e+00	7.516781e-01	3.514558e+15	3.874444e+15	1.836506e+14	1.863813e+04	7.562294e+03	3.230267e+03	0	1.409947e-03
1.270000e+09	1.308361e+14	0.000000e+00	7.516781e-01	3.490819e+15	3.848867e+15	1.828779e+14	1.861065e+04	7.556726e+03	3.227888e+03	0	1.400250e-03
1.280000e+09	1.281316e+14	0.000000e+00	7.516781e-01	3.467345e+15	3.823572e+15	1.821103e+14	1.858336e+04	7.551190e+03	3.225524e+03	0	1.390535e-03
1.290000e+09	1.254593e+14	0.000000e+00	7.516781e-01	3.444131e+15	3.798552e+15	1.813477e+14	1.855625e+04	7.545686e+03	3.223172e+03	0	1.380800e-03
1.300000e+09	1.228187e+14	0.000000e+00	7.516781e-01	3.421173e+15	3.773804e+15	1.805902e+14	1.852933e+04	7.540213e+03	3.220835e+03	0	1.371044e-03
1.310000e+09	1.202093e+14	0.000000e+00	7.516781e-01	3.398467e+15	3.749324e+15	1.798376e+14	1.850258e+04	7.534772e+03	3.218511e+03	0	1.361264e-03
1.320000e+09	1.176306e+14	0.000000e+00	7.516781e-01	3.376009e+15	3.725108e+15	1.790900e+14	1.847601e+04	7.529361e+03	3.216199e+03	0	1.351460e-03
1.330000e+09	1.150821e+14	0.000000e+00	7.516781e-01	3.353796e+15	3.701152e+15	1.783472e+14	1.844962e+04	7.523982e+03	3.213901e+03	0	1.341629e-03
1.340000e+09	1.125633e+14	0.000000e+00	7.516781e-01	3.331824e+15	3.677452e+15	1.776093e+14	1.842339e+04	7.518632e+03	3.211616e+03	0	1.331768e-03
1.350000e+09	1.100739e+14	0.000000e+00	7.516781e-01	3.310090e+15	3.654005e+15	1.768762e+14	1.839734e+04	7.513313e+03	3.209344e+03	0	1.321877e-03
1.360000e+09	1.076133e+14	0.000000e+00	7.516781e-01	3.288589e+15	3.630805e+15	1.761479e+14	1.837146e+04	7.508023e+03	3.207085e+03	0	1.311953e-03
