#t		Qconv[W]	Ri[Rp]		R*[Rp]		Qc[W]		Qm[W]		Qr[W]		Tcmb[K]		Tl[K]		Tup[K]		RiFlag		Bs[T]
0.000000e+00	1.035575e+15	0.000000e+00	7.516777e-01	1.183931e+16	2.654901e+15	3.650768e+14	2.598646e+04	6.937675e+03	2.925119e+03	0	2.787847e-03
1.000000e+07	1.040702e+15	0.000000e+00	7.516777e-01	1.186317e+16	3.465258e+15	3.630540e+14	2.590625e+04	7.221657e+03	3.044854e+03	0	2.792440e-03
2.000000e+07	1.042223e+15	0.000000e+00	7.516777e-01	1.186083e+16	4.339426e+15	3.610463e+14	2.582587e+04	7.480051e+03	3.153800e+03	0	2.793800e-03
3.000000e+07	1.040449e+15	0.000000e+00	7.516777e-01	1.183458e+16	5.236936e+15	3.590536e+14	2.574551e+04	7.710668e+03	3.251035e+03	0	2.792213e-03
4.000000e+07	1.035780e+15	0.000000e+00	7.516777e-01	1.178736e+16	6.117607e+15	3.570759e+14	2.566532e+04	7.912665e+03	3.336203e+03	0	2.788030e-03
5.000000e+07	1.028661e+15	0.000000e+00	7.516777e-01	1.172241e+16	6.947010e+15	3.551128e+14	2.558545e+04	8.086462e+03	3.409480e+03	0	2.781629e-03
6.000000e+07	1.019536e+15	0.000000e+00	7.516777e-01	1.164297e+16	7.699803e+15	3.531644e+14	2.550603e+04	8.233516e+03	3.471482e+03	0	2.773379e-03
7.000000e+07	1.008817e+15	0.000000e+00	7.516777e-01	1.155205e+16	8.360692e+15	3.512305e+14	2.542713e+04	8.356022e+03	3.523134e+03	0	2.763625e-03
8.000000e+07	9.968676e+14	0.000000e+00	7.516777e-01	1.145231e+16	8.923535e+15	3.493110e+14	2.534886e+04	8.456596e+03	3.565539e+03	0	2.752670e-03
9.000000e+07	9.839960e+14	0.000000e+00	7.516777e-01	1.134598e+16	9.389403e+15	3.474058e+14	2.527125e+04	8.538014e+03	3.599867e+03	0	2.740771e-03
1.000000e+08	9.704556e+14	0.000000e+00	7.516777e-01	1.123493e+16	9.764337e+15	3.455147e+14	2.519437e+04	8.603007e+03	3.627270e+03	0	2.728142e-03
1.100000e+08	9.564505e+14	0.000000e+00	7.516777e-01	1.112062e+16	1.005730e+16	3.436376e+14	2.511823e+04	8.654123e+03	3.648822e+03	0	2.714954e-03
1.200000e+08	9.421422e+14	0.000000e+00	7.516777e-01	1.100424e+16	1.027853e+16	3.417745e+14	2.504286e+04	8.693655e+03	3.665490e+03	0	2.701348e-03
1.300000e+08	9.276575e+14	0.000000e+00	7.516777e-01	1.088672e+16	1.043845e+16	3.399252e+14	2.496828e+04	8.723610e+03	3.678120e+03	0	2.687433e-03
1.400000e+08	9.130947e+14	0.000000e+00	7.516777e-01	1.076875e+16	1.054690e+16	3.380895e+14	2.489450e+04	8.745706e+03	3.687436e+03	0	2.673295e-03
1.500000e+08	8.985299e+14	0.000000e+00	7.516777e-01	1.065091e+16	1.061275e+16	3.362674e+14	2.482151e+04	8.761391e+03	3.694049e+03	0	2.659005e-03
1.600000e+08	8.840210e+14	0.000000e+00	7.516777e-01	1.053360e+16	1.064379e+16	3.344588e+14	2.474932e+04	8.771871e+03	3.698468e+03	0	2.644616e-03
1.700000e+08	8.696124e+14	0.000000e+00	7.516777e-01	1.041716e+16	1.064664e+16	3.326635e+14	2.467792e+04	8.778141e+03	3.701112e+03	0	2.630169e-03
1.800000e+08	8.553376e+14	0.000000e+00	7.516777e-01	1.030181e+16	1.062688e+16	3.308814e+14	2.460731e+04	8.781017e+03	3.702324e+03	0	2.615698e-03
1.900000e+08	8.412215e+14	0.000000e+00	7.516777e-01	1.018775e+16	1.058911e+16	3.291125e+14	2.453747e+04	8.781163e+03	3.702386e+03	0	2.601228e-03
2.000000e+08	8.272826e+14	0.000000e+00	7.516777e-01	1.007510e+16	1.053713e+16	3.273566e+14	2.446841e+04	8.779119e+03	3.701524e+03	0	2.586781e-03
2.100000e+08	8.135342e+14	0.000000e+00	7.516777e-01	9.963964e+15	1.047403e+16	3.256136e+14	2.440010e+04	8.775322e+03	3.699923e+03	0	2.572371e-03
2.200000e+08	7.999857e+14	0.000000e+00	7.516777e-01	9.854400e+15	1.040231e+16	3.238834e+14	2.433255e+04	8.770124e+03	3.697731e+03	0	2.558011e-03
2.300000e+08	7.866432e+14	0.000000e+00	7.516777e-01	9.746454e+15	1.032398e+16	3.221659e+14	2.426574e+04	8.763811e+03	3.695070e+03	0	2.543710e-03
2.400000e+08	7.735106e+14	0.000000e+00	7.516777e-01	9.640154e+15	1.024068e+16	3.204610e+14	2.419966e+04	8.756613e+03	3.692035e+03	0	2.529475e-03
2.500000e+08	7.605900e+14	0.000000e+00	7.516777e-01	9.535511e+15	1.015369e+16	3.187686e+14	2.413429e+04	8.748716e+03	3.688705e+03	0	2.515312e-03
2.600000e+08	7.478818e+14	0.000000e+00	7.516777e-01	9.432527e+15	1.006406e+16	3.170886e+14	2.406964e+04	8.740269e+03	3.685144e+03	0	2.501225e-03
2.700000e+08	7.353855e+14	0.000000e+00	7.516777e-01	9.331197e+15	9.972616e+15	3.154208e+14	2.400568e+04	8.731393e+03	3.681401e+03	0	2.487215e-03
2.800000e+08	7.230996e+14	0.000000e+00	7.516777e-01	9.231507e+15	9.880027e+15	3.137652e+14	2.394240e+04	8.722184e+03	3.677519e+03	0	2.473286e-03
2.900000e+08	7.110220e+14	0.000000e+00	7.516777e-01	9.133442e+15	9.786815e+15	3.121217e+14	2.387980e+04	8.712723e+03	3.673529e+03	0	2.459439e-03
3.000000e+08	6.991502e+14	0.000000e+00	7.516777e-01	9.036980e+15	9.693396e+15	3.104902e+14	2.381786e+04	8.703071e+03	3.669460e+03	0	2.445674e-03
3.100000e+08	6.874812e+14	0.000000e+00	7.516777e-01	8.942099e+15	9.600101e+15	3.088706e+14	2.375657e+04	8.693281e+03	3.665332e+03	0	2.431991e-03
3.200000e+08	6.760118e+14	0.000000e+00	7.516777e-01	8.848772e+15	9.507188e+15	3.072628e+14	2.369593e+04	8.683393e+03	3.661163e+03	0	2.418391e-03
3.300000e+08	6.647385e+14	0.000000e+00	7.516777e-01	8.756974e+15	9.414861e+15	3.056666e+14	2.363591e+04	8.673442e+03	3.656967e+03	0	2.404872e-03
3.400000e+08	6.536579e+14	0.000000e+00	7.516777e-01	8.666678e+15	9.323277e+15	3.040821e+14	2.357652e+04	8.663453e+03	3.652756e+03	0	2.391435e-03
3.500000e+08	6.427663e+14	0.000000e+00	7.516777e-01	8.577854e+15	9.232560e+15	3.025090e+14	2.351773e+04	8.653449e+03	3.648538e+03	0	2.378078e-03
3.600000e+08	6.320600e+14	0.000000e+00	7.516777e-01	8.490476e+15	9.142803e+15	3.009474e+14	2.345955e+04	8.643448e+03	3.644321e+03	0	2.364800e-03
3.700000e+08	6.215353e+14	0.000000e+00	7.516777e-01	8.404514e+15	9.054076e+15	2.993970e+14	2.340196e+04	8.633463e+03	3.640111e+03	0	2.351601e-03
3.800000e+08	6.111886e+14	0.000000e+00	7.516777e-01	8.319940e+15	8.966431e+15	2.978579e+14	2.334495e+04	8.623506e+03	3.635913e+03	0	2.338479e-03
3.900000e+08	6.010162e+14	0.000000e+00	7.516777e-01	8.236726e+15	8.879904e+15	2.963299e+14	2.328851e+04	8.613587e+03	3.631731e+03	0	2.325433e-03
4.000000e+08	5.910145e+14	0.000000e+00	7.516777e-01	8.154844e+15	8.794521e+15	2.948129e+14	2.323263e+04	8.603711e+03	3.627567e+03	0	2.312461e-03
4.100000e+08	5.811798e+14	0.000000e+00	7.516777e-01	8.074268e+15	8.710297e+15	2.933069e+14	2.317731e+04	8.593886e+03	3.623424e+03	0	2.299562e-03
4.200000e+08	5.715088e+14	0.000000e+00	7.516777e-01	7.994969e+15	8.627240e+15	2.918117e+14	2.312253e+04	8.584116e+03	3.619305e+03	0	2.286736e-03
4.300000e+08	5.619980e+14	0.000000e+00	7.516777e-01	7.916922e+15	8.545353e+15	2.903273e+14	2.306829e+04	8.574403e+03	3.615210e+03	0	2.273980e-03
4.400000e+08	5.526438e+14	0.000000e+00	7.516777e-01	7.840100e+15	8.464633e+15	2.888536e+14	2.301458e+04	8.564753e+03	3.611141e+03	0	2.261293e-03
4.500000e+08	5.434432e+14	0.000000e+00	7.516777e-01	7.764479e+15	8.385072e+15	2.873905e+14	2.296138e+04	8.555165e+03	3.607099e+03	0	2.248673e-03
4.600000e+08	5.343927e+14	0.000000e+00	7.516777e-01	7.690032e+15	8.306661e+15	2.859379e+14	2.290870e+04	8.545642e+03	3.603083e+03	0	2.236120e-03
4.700000e+08	5.254893e+14	0.000000e+00	7.516777e-01	7.616736e+15	8.229390e+15	2.844957e+14	2.285652e+04	8.536186e+03	3.599096e+03	0	2.223632e-03
4.800000e+08	5.167298e+14	0.000000e+00	7.516777e-01	7.544568e+15	8.153243e+15	2.830638e+14	2.280484e+04	8.526796e+03	3.595137e+03	0	2.211208e-03
4.900000e+08	5.081112e+14	0.000000e+00	7.516777e-01	7.473503e+15	8.078206e+15	2.816422e+14	2.275365e+04	8.517474e+03	3.591207e+03	0	2.198845e-03
5.000000e+08	4.996305e+14	0.000000e+00	7.516777e-01	7.403519e+15	8.004263e+15	2.802307e+14	2.270293e+04	8.508219e+03	3.587305e+03	0	2.186543e-03
5.100000e+08	4.912850e+14	0.000000e+00	7.516777e-01	7.334594e+15	7.931397e+15	2.788293e+14	2.265269e+04	8.499032e+03	3.583431e+03	0	2.174300e-03
5.200000e+08	4.830716e+14	0.000000e+00	7.516777e-01	7.266707e+15	7.859591e+15	2.774379e+14	2.260292e+04	8.489912e+03	3.579586e+03	0	2.162115e-03
5.300000e+08	4.749878e+14	0.000000e+00	7.516777e-01	7.199835e+15	7.788827e+15	2.760565e+14	2.255360e+04	8.480860e+03	3.575770e+03	0	2.149987e-03
5.400000e+08	4.670307e+14	0.000000e+00	7.516777e-01	7.133960e+15	7.719088e+15	2.746849e+14	2.250474e+04	8.471876e+03	3.571981e+03	0	2.137914e-03
5.500000e+08	4.591979e+14	0.000000e+00	7.516777e-01	7.069060e+15	7.650355e+15	2.733230e+14	2.245633e+04	8.462957e+03	3.568221e+03	0	2.125894e-03
5.600000e+08	4.514868e+14	0.000000e+00	7.516777e-01	7.005116e+15	7.582611e+15	2.719709e+14	2.240835e+04	8.454105e+03	3.564489e+03	0	2.113927e-03
5.700000e+08	4.438948e+14	0.000000e+00	7.516777e-01	6.942108e+15	7.515838e+15	2.706283e+14	2.236081e+04	8.445319e+03	3.560784e+03	0	2.102011e-03
5.800000e+08	4.364196e+14	0.000000e+00	7.516777e-01	6.880020e+15	7.450018e+15	2.692952e+14	2.231369e+04	8.436598e+03	3.557107e+03	0	2.090145e-03
5.900000e+08	4.290587e+14	0.000000e+00	7.516777e-01	6.818831e+15	7.385133e+15	2.679717e+14	2.226699e+04	8.427941e+03	3.553457e+03	0	2.078327e-03
6.000000e+08	4.218100e+14	0.000000e+00	7.516777e-01	6.758524e+15	7.321167e+15	2.666574e+14	2.222071e+04	8.419348e+03	3.549834e+03	0	2.066557e-03
6.100000e+08	4.146711e+14	0.000000e+00	7.516777e-01	6.699083e+15	7.258102e+15	2.653525e+14	2.217483e+04	8.410819e+03	3.546238e+03	0	2.054832e-03
6.200000e+08	4.076398e+14	0.000000e+00	7.516777e-01	6.640490e+15	7.195922e+15	2.640568e+14	2.212936e+04	8.402351e+03	3.542668e+03	0	2.043151e-03
6.300000e+08	4.007141e+14	0.000000e+00	7.516777e-01	6.582728e+15	7.134611e+15	2.627702e+14	2.208428e+04	8.393946e+03	3.539124e+03	0	2.031514e-03
6.400000e+08	3.938917e+14	0.000000e+00	7.516777e-01	6.525782e+15	7.074151e+15	2.614927e+14	2.203960e+04	8.385602e+03	3.535606e+03	0	2.019919e-03
6.500000e+08	3.871708e+14	0.000000e+00	7.516777e-01	6.469636e+15	7.014528e+15	2.602243e+14	2.199530e+04	8.377319e+03	3.532114e+03	0	2.008364e-03
6.600000e+08	3.805492e+14	0.000000e+00	7.516777e-01	6.414274e+15	6.955725e+15	2.589647e+14	2.195138e+04	8.369095e+03	3.528646e+03	0	1.996849e-03
6.700000e+08	3.740251e+14	0.000000e+00	7.516777e-01	6.359682e+15	6.897729e+15	2.577140e+14	2.190784e+04	8.360930e+03	3.525204e+03	0	1.985372e-03
6.800000e+08	3.675966e+14	0.000000e+00	7.516777e-01	6.305845e+15	6.840522e+15	2.564721e+14	2.186466e+04	8.352824e+03	3.521786e+03	0	1.973932e-03
6.900000e+08	3.612617e+14	0.000000e+00	7.516777e-01	6.252749e+15	6.784092e+15	2.552389e+14	2.182185e+04	8.344776e+03	3.518393e+03	0	1.962527e-03
7.000000e+08	3.550189e+14	0.000000e+00	7.516777e-01	6.200380e+15	6.728424e+15	2.540143e+14	2.177940e+04	8.336785e+03	3.515023e+03	0	1.951157e-03
7.100000e+08	3.488661e+14	0.000000e+00	7.516777e-01	6.148724e+15	6.673503e+15	2.527983e+14	2.173730e+04	8.328850e+03	3.511678e+03	0	1.939819e-03
7.200000e+08	3.428018e+14	0.000000e+00	7.516777e-01	6.097769e+15	6.619317e+15	2.515908e+14	2.169556e+04	8.320971e+03	3.508356e+03	0	1.928514e-03
7.300000e+08	3.368243e+14	0.000000e+00	7.516777e-01	6.047500e+15	6.565852e+15	2.503918e+14	2.165416e+04	8.313148e+03	3.505057e+03	0	1.917239e-03
7.400000e+08	3.309319e+14	0.000000e+00	7.516777e-01	5.997906e+15	6.513094e+15	2.492011e+14	2.161309e+04	8.305378e+03	3.501782e+03	0	1.905993e-03
7.500000e+08	3.251231e+14	0.000000e+00	7.516777e-01	5.948974e+15	6.461031e+15	2.480187e+14	2.157237e+04	8.297663e+03	3.498529e+03	0	1.894775e-03
7.600000e+08	3.193962e+14	0.000000e+00	7.516777e-01	5.900691e+15	6.409651e+15	2.468446e+14	2.153198e+04	8.290001e+03	3.495298e+03	0	1.883584e-03
7.700000e+08	3.137498e+14	0.000000e+00	7.516777e-01	5.853048e+15	6.358941e+15	2.456786e+14	2.149191e+04	8.282391e+03	3.492090e+03	0	1.872418e-03
7.800000e+08	3.081823e+14	0.000000e+00	7.516777e-01	5.806030e+15	6.308889e+15	2.445207e+14	2.145217e+04	8.274834e+03	3.488903e+03	0	1.861277e-03
7.900000e+08	3.026923e+14	0.000000e+00	7.516777e-01	5.759629e+15	6.259483e+15	2.433709e+14	2.141274e+04	8.267328e+03	3.485738e+03	0	1.850158e-03
8.000000e+08	2.972784e+14	0.000000e+00	7.516777e-01	5.713831e+15	6.210713e+15	2.422290e+14	2.137363e+04	8.259873e+03	3.482595e+03	0	1.839061e-03
8.100000e+08	2.919392e+14	0.000000e+00	7.516777e-01	5.668628e+15	6.162567e+15	2.410951e+14	2.133483e+04	8.252468e+03	3.479473e+03	0	1.827984e-03
8.200000e+08	2.866733e+14	0.000000e+00	7.516777e-01	5.624007e+15	6.115034e+15	2.399690e+14	2.129633e+04	8.245112e+03	3.476372e+03	0	1.816927e-03
8.300000e+08	2.814795e+14	0.000000e+00	7.516777e-01	5.579960e+15	6.068103e+15	2.388507e+14	2.125814e+04	8.237806e+03	3.473291e+03	0	1.805887e-03
8.400000e+08	2.763563e+14	0.000000e+00	7.516777e-01	5.536475e+15	6.021763e+15	2.377401e+14	2.122025e+04	8.230548e+03	3.470231e+03	0	1.794864e-03
8.500000e+08	2.713026e+14	0.000000e+00	7.516777e-01	5.493543e+15	5.976006e+15	2.366372e+14	2.118265e+04	8.223338e+03	3.467191e+03	0	1.783856e-03
8.600000e+08	2.663171e+14	0.000000e+00	7.516777e-01	5.451154e+15	5.930820e+15	2.355419e+14	2.114534e+04	8.216176e+03	3.464171e+03	0	1.772861e-03
8.700000e+08	2.613986e+14	0.000000e+00	7.516777e-01	5.409300e+15	5.886195e+15	2.344541e+14	2.110832e+04	8.209061e+03	3.461171e+03	0	1.761879e-03
8.800000e+08	2.565458e+14	0.000000e+00	7.516777e-01	5.367970e+15	5.842123e+15	2.333738e+14	2.107158e+04	8.201991e+03	3.458191e+03	0	1.750908e-03
8.900000e+08	2.517577e+14	0.000000e+00	7.516777e-01	5.327155e+15	5.798594e+15	2.323009e+14	2.103512e+04	8.194968e+03	3.455229e+03	0	1.739947e-03
9.000000e+08	2.470332e+14	0.000000e+00	7.516777e-01	5.286848e+15	5.755598e+15	2.312354e+14	2.099894e+04	8.187990e+03	3.452287e+03	0	1.728994e-03
9.100000e+08	2.423710e+14	0.000000e+00	7.516777e-01	5.247039e+15	5.713127e+15	2.301772e+14	2.096303e+04	8.181057e+03	3.449364e+03	0	1.718048e-03
9.200000e+08	2.377701e+14	0.000000e+00	7.516777e-01	5.207720e+15	5.671171e+15	2.291262e+14	2.092739e+04	8.174169e+03	3.446460e+03	0	1.707107e-03
9.300000e+08	2.332295e+14	0.000000e+00	7.516777e-01	5.168882e+15	5.629723e+15	2.280825e+14	2.089202e+04	8.167324e+03	3.443574e+03	0	1.696171e-03
9.400000e+08	2.287481e+14	0.000000e+00	7.516777e-01	5.130518e+15	5.588773e+15	2.270458e+14	2.085691e+04	8.160522e+03	3.440706e+03	0	1.685237e-03
9.500000e+08	2.243249e+14	0.000000e+00	7.516777e-01	5.092620e+15	5.548314e+15	2.260163e+14	2.082206e+04	8.153764e+03	3.437856e+03	0	1.674304e-03
9.600000e+08	2.199589e+14	0.000000e+00	7.516777e-01	5.055179e+15	5.508337e+15	2.249937e+14	2.078747e+04	8.147048e+03	3.435025e+03	0	1.663370e-03
9.700000e+08	2.156492e+14	0.000000e+00	7.516777e-01	5.018189e+15	5.468835e+15	2.239782e+14	2.075313e+04	8.140374e+03	3.432211e+03	0	1.652435e-03
9.800000e+08	2.113947e+14	0.000000e+00	7.516777e-01	4.981642e+15	5.429799e+15	2.229695e+14	2.071904e+04	8.133741e+03	3.429414e+03	0	1.641496e-03
9.900000e+08	2.071946e+14	0.000000e+00	7.516777e-01	4.945530e+15	5.391223e+15	2.219677e+14	2.068520e+04	8.127149e+03	3.426635e+03	0	1.630551e-03
1.000000e+09	2.030479e+14	0.000000e+00	7.516777e-01	4.909847e+15	5.353098e+15	2.209727e+14	2.065161e+04	8.120599e+03	3.423873e+03	0	1.619600e-03
1.010000e+09	1.989537e+14	0.000000e+00	7.516777e-01	4.874585e+15	5.315418e+15	2.199844e+14	2.061826e+04	8.114088e+03	3.421128e+03	0	1.608641e-03
1.020000e+09	1.949112e+14	0.000000e+00	7.516777e-01	4.839738e+15	5.278175e+15	2.190028e+14	2.058514e+04	8.107617e+03	3.418400e+03	0	1.597671e-03
1.030000e+09	1.909195e+14	0.000000e+00	7.516777e-01	4.805299e+15	5.241363e+15	2.180279e+14	2.055226e+04	8.101186e+03	3.415688e+03	0	1.586689e-03
1.040000e+09	1.869778e+14	0.000000e+00	7.516777e-01	4.771261e+15	5.204974e+15	2.170596e+14	2.051962e+04	8.094793e+03	3.412993e+03	0	1.575693e-03
1.050000e+09	1.830852e+14	0.000000e+00	7.516777e-01	4.737619e+15	5.169001e+15	2.160978e+14	2.048720e+04	8.088439e+03	3.410314e+03	0	1.564682e-03
1.060000e+09	1.792410e+14	0.000000e+00	7.516777e-01	4.704365e+15	5.133439e+15	2.151425e+14	2.045502e+04	8.082123e+03	3.407651e+03	0	1.553653e-03
1.070000e+09	1.754443e+14	0.000000e+00	7.516777e-01	4.671494e+15	5.098281e+15	2.141936e+14	2.042306e+04	8.075845e+03	3.405004e+03	0	1.542605e-03
1.080000e+09	1.716943e+14	0.000000e+00	7.516777e-01	4.638999e+15	5.063520e+15	2.132511e+14	2.039132e+04	8.069605e+03	3.402373e+03	0	1.531535e-03
1.090000e+09	1.679905e+14	0.000000e+00	7.516777e-01	4.606875e+15	5.029150e+15	2.123150e+14	2.035980e+04	8.063401e+03	3.399757e+03	0	1.520442e-03
1.100000e+09	1.643318e+14	0.000000e+00	7.516777e-01	4.575116e+15	4.995165e+15	2.113851e+14	2.032850e+04	8.057234e+03	3.397157e+03	0	1.509323e-03
1.110000e+09	1.607178e+14	0.000000e+00	7.516777e-01	4.543716e+15	4.961560e+15	2.104615e+14	2.029742e+04	8.051103e+03	3.394572e+03	0	1.498177e-03
1.120000e+09	1.571475e+14	0.000000e+00	7.516777e-01	4.512669e+15	4.928328e+15	2.095440e+14	2.026655e+04	8.045008e+03	3.392002e+03	0	1.487000e-03
1.130000e+09	1.536205e+14	0.000000e+00	7.516777e-01	4.481971e+15	4.895463e+15	2.086327e+14	2.023588e+04	8.038949e+03	3.389447e+03	0	1.475791e-03
1.140000e+09	1.501358e+14	0.000000e+00	7.516777e-01	4.451615e+15	4.862961e+15	2.077275e+14	2.020543e+04	8.032924e+03	3.386907e+03	0	1.464546e-03
1.150000e+09	1.466930e+14	0.000000e+00	7.516777e-01	4.421597e+15	4.830815e+15	2.068283e+14	2.017518e+04	8.026935e+03	3.384382e+03	0	1.453265e-03
1.160000e+09	1.432913e+14	0.000000e+00	7.516777e-01	4.391911e+15	4.799021e+15	2.059352e+14	2.014514e+04	8.020980e+03	3.381871e+03	0	1.441944e-03
1.170000e+09	1.399301e+14	0.000000e+00	7.516777e-01	4.362553e+15	4.767572e+15	2.050480e+14	2.011530e+04	8.015059e+03	3.379375e+03	0	1.430580e-03
1.180000e+09	1.366087e+14	0.000000e+00	7.516777e-01	4.333517e+15	4.736464e+15	2.041666e+14	2.008566e+04	8.009172e+03	3.376892e+03	0	1.419170e-03
1.190000e+09	1.333266e+14	0.000000e+00	7.516777e-01	4.304798e+15	4.705692e+15	2.032912e+14	2.005621e+04	8.003318e+03	3.374424e+03	0	1.407712e-03
1.200000e+09	1.300830e+14	0.000000e+00	7.516777e-01	4.276392e+15	4.675250e+15	2.024215e+14	2.002696e+04	7.997497e+03	3.371970e+03	0	1.396203e-03
1.210000e+09	1.268775e+14	0.000000e+00	7.516777e-01	4.248294e+15	4.645134e+15	2.015577e+14	1.999790e+04	7.991709e+03	3.369530e+03	0	1.384639e-03
1.220000e+09	1.237095e+14	0.000000e+00	7.516777e-01	4.220499e+15	4.615339e+15	2.006995e+14	1.996903e+04	7.985954e+03	3.367103e+03	0	1.373017e-03
1.230000e+09	1.205783e+14	0.000000e+00	7.516777e-01	4.193004e+15	4.585860e+15	1.998470e+14	1.994035e+04	7.980231e+03	3.364690e+03	0	1.361334e-03
1.240000e+09	1.174835e+14	0.000000e+00	7.516777e-01	4.165803e+15	4.556693e+15	1.990002e+14	1.991186e+04	7.974540e+03	3.362290e+03	0	1.349586e-03
1.250000e+09	1.144244e+14	0.000000e+00	7.516777e-01	4.138892e+15	4.527832e+15	1.981589e+14	1.988355e+04	7.968880e+03	3.359904e+03	0	1.337769e-03
1.260000e+09	1.114005e+14	0.000000e+00	7.516777e-01	4.112267e+15	4.499275e+15	1.973232e+14	1.985542e+04	7.963251e+03	3.357531e+03	0	1.325879e-03
1.270000e+09	1.084113e+14	0.000000e+00	7.516777e-01	4.085924e+15	4.471015e+15	1.964930e+14	1.982747e+04	7.957653e+03	3.355171e+03	0	1.313913e-03
1.280000e+09	1.054562e+14	0.000000e+00	7.516777e-01	4.059858e+15	4.443049e+15	1.956683e+14	1.979971e+04	7.952086e+03	3.352824e+03	0	1.301864e-03
1.290000e+09	1.025348e+14	0.000000e+00	7.516777e-01	4.034066e+15	4.415374e+15	1.948490e+14	1.977212e+04	7.946550e+03	3.350489e+03	0	1.289730e-03
1.300000e+09	9.964657e+13	0.000000e+00	7.516777e-01	4.008544e+15	4.387983e+15	1.940350e+14	1.974470e+04	7.941043e+03	3.348167e+03	0	1.277505e-03
1.310000e+09	9.679098e+13	0.000000e+00	7.516777e-01	3.983288e+15	4.360874e+15	1.932264e+14	1.971746e+04	7.935566e+03	3.345858e+03	0	1.265183e-03
1.320000e+09	9.396757e+13	0.000000e+00	7.516777e-01	3.958293e+15	4.334043e+15	1.924231e+14	1.969039e+04	7.930119e+03	3.343562e+03	0	1.252759e-03
1.330000e+09	9.117586e+13	0.000000e+00	7.516777e-01	3.933557e+15	4.307485e+15	1.916250e+14	1.966349e+04	7.924701e+03	3.341277e+03	0	1.240228e-03
1.340000e+09	8.841538e+13	0.000000e+00	7.516777e-01	3.909076e+15	4.281197e+15	1.908322e+14	1.963675e+04	7.919312e+03	3.339005e+03	0	1.227583e-03
1.350000e+09	8.568568e+13	0.000000e+00	7.516777e-01	3.884845e+15	4.255174e+15	1.900445e+14	1.961018e+04	7.913951e+03	3.336745e+03	0	1.214818e-03
1.360000e+09	8.298631e+13	0.000000e+00	7.516777e-01	3.860862e+15	4.229414e+15	1.892620e+14	1.958378e+04	7.908619e+03	3.334497e+03	0	1.201924e-03
