#t		Qconv[W]	Ri[Rp]		R*[Rp]		Qc[W]		Qm[W]		Qr[W]		Tcmb[K]		Tl[K]		Tup[K]		RiFlag		Bs[T]
0.000000e+00	6.725684e+12	4.107480e-01	7.286432e-01	1.286629e+13	1.121992e+15	8.712523e+13	4.144660e+03	3.021434e+03	2.054742e+03	0	4.498317e-04
1.000000e+08	6.809052e+12	4.125137e-01	7.286432e-01	1.307102e+13	9.397692e+14	8.245677e+13	4.144284e+03	2.920890e+03	1.986366e+03	1	4.512705e-04
2.000000e+08	6.195795e+12	4.141047e-01	7.286432e-01	1.188495e+13	3.423405e+14	7.812335e+13	4.140422e+03	2.418294e+03	1.644573e+03	1	4.369347e-04
3.000000e+08	5.588012e+12	4.155359e-01	7.286432e-01	1.072548e+13	2.080337e+14	7.409821e+13	4.136936e+03	2.228662e+03	1.515613e+03	1	4.218410e-04
4.000000e+08	5.209941e+12	4.168658e-01	7.286432e-01	9.995990e+12	1.530363e+14	7.035684e+13	4.133811e+03	2.126886e+03	1.446399e+03	1	4.118215e-04
5.000000e+08	4.914258e+12	4.180952e-01	7.286432e-01	9.508422e+12	1.240714e+14	6.687680e+13	4.130918e+03	2.063603e+03	1.403364e+03	1	4.036222e-04
6.000000e+08	4.741517e+12	4.192956e-01	7.286432e-01	9.159597e+12	1.064112e+14	6.363755e+13	4.128124e+03	2.020597e+03	1.374117e+03	1	3.985894e-04
7.000000e+08	4.614033e+12	4.204587e-01	7.286432e-01	8.896387e+12	9.453395e+13	6.062028e+13	4.125448e+03	1.989466e+03	1.352947e+03	1	3.947476e-04
8.000000e+08	4.515647e+12	4.215921e-01	7.286432e-01	8.688423e+12	8.595378e+13	5.780774e+13	4.122864e+03	1.965793e+03	1.336847e+03	1	3.916926e-04
9.000000e+08	4.393361e+12	4.226713e-01	7.286432e-01	8.517652e+12	7.940621e+13	5.518412e+13	4.120355e+03	1.947043e+03	1.324097e+03	1	3.879085e-04
1.000000e+09	4.328287e+12	4.237476e-01	7.286432e-01	8.372093e+12	7.418919e+13	5.273492e+13	4.117853e+03	1.931673e+03	1.313644e+03	1	3.857696e-04
1.100000e+09	4.272762e+12	4.248054e-01	7.286432e-01	8.245240e+12	6.988711e+13	5.044686e+13	4.115407e+03	1.918697e+03	1.304820e+03	1	3.839036e-04
1.200000e+09	4.224227e+12	4.258465e-01	7.286432e-01	8.132242e+12	6.624068e+13	4.830771e+13	4.113011e+03	1.907467e+03	1.297183e+03	1	3.822393e-04
1.300000e+09	4.180937e+12	4.268723e-01	7.286432e-01	8.029782e+12	6.308131e+13	4.630628e+13	4.110659e+03	1.897542e+03	1.290433e+03	1	3.807279e-04
1.400000e+09	4.103394e+12	4.278584e-01	7.286432e-01	7.935540e+12	6.029548e+13	4.443226e+13	4.108349e+03	1.888615e+03	1.284362e+03	1	3.781673e-04
1.500000e+09	4.067379e+12	4.288474e-01	7.286432e-01	7.847240e+12	5.780413e+13	4.267620e+13	4.106029e+03	1.880469e+03	1.278823e+03	1	3.768658e-04
1.600000e+09	4.033883e+12	4.298240e-01	7.286432e-01	7.764318e+12	5.555118e+13	4.102940e+13	4.103745e+03	1.872948e+03	1.273708e+03	1	3.756396e-04
1.700000e+09	4.002449e+12	4.307889e-01	7.286432e-01	7.685885e+12	5.349545e+13	3.948387e+13	4.101496e+03	1.865938e+03	1.268941e+03	1	3.744754e-04
1.800000e+09	3.972739e+12	4.317426e-01	7.286432e-01	7.611275e+12	5.160610e+13	3.803223e+13	4.099280e+03	1.859352e+03	1.264462e+03	1	3.733633e-04
1.900000e+09	3.908093e+12	4.326614e-01	7.286432e-01	7.539978e+12	4.985945e+13	3.666773e+13	4.097097e+03	1.853127e+03	1.260229e+03	1	3.711516e-04
2.000000e+09	3.881124e+12	4.335851e-01	7.286432e-01	7.471023e+12	4.823678e+13	3.538410e+13	4.094896e+03	1.847213e+03	1.256207e+03	1	3.701201e-04
2.100000e+09	3.855303e+12	4.344990e-01	7.286432e-01	7.404686e+12	4.672345e+13	3.417562e+13	4.092725e+03	1.841571e+03	1.252370e+03	1	3.691241e-04
2.200000e+09	3.830451e+12	4.354032e-01	7.286432e-01	7.340716e+12	4.530747e+13	3.303698e+13	4.090583e+03	1.836172e+03	1.248698e+03	1	3.681581e-04
2.300000e+09	3.806493e+12	4.362982e-01	7.286432e-01	7.278909e+12	4.397888e+13	3.196328e+13	4.088469e+03	1.830990e+03	1.245174e+03	1	3.672201e-04
2.400000e+09	3.772370e+12	4.371824e-01	7.286432e-01	7.219096e+12	4.272936e+13	3.095003e+13	4.086382e+03	1.826006e+03	1.241785e+03	1	3.659533e-04
2.500000e+09	3.727231e+12	4.380422e-01	7.286432e-01	7.160967e+12	4.155170e+13	2.999305e+13	4.084307e+03	1.821204e+03	1.238519e+03	1	3.643269e-04
2.600000e+09	3.705530e+12	4.389031e-01	7.286432e-01	7.104223e+12	4.043972e+13	2.908849e+13	4.082227e+03	1.816569e+03	1.235367e+03	1	3.634578e-04
2.700000e+09	3.684475e+12	4.397558e-01	7.286432e-01	7.049116e+12	3.938814e+13	2.823282e+13	4.080173e+03	1.812091e+03	1.232322e+03	1	3.626094e-04
2.800000e+09	3.664026e+12	4.406005e-01	7.286432e-01	6.995553e+12	3.839228e+13	2.742273e+13	4.078142e+03	1.807760e+03	1.229376e+03	1	3.617805e-04
2.900000e+09	3.644150e+12	4.414375e-01	7.286432e-01	6.943452e+12	3.744796e+13	2.665520e+13	4.076136e+03	1.803566e+03	1.226524e+03	1	3.609702e-04
3.000000e+09	3.593430e+12	4.422628e-01	7.286432e-01	6.892741e+12	3.655144e+13	2.592740e+13	4.074152e+03	1.799502e+03	1.223761e+03	1	3.591356e-04
3.100000e+09	3.574597e+12	4.430776e-01	7.286432e-01	6.842882e+12	3.569919e+13	2.523674e+13	4.072149e+03	1.795562e+03	1.221081e+03	1	3.583574e-04
3.200000e+09	3.556252e+12	4.438852e-01	7.286432e-01	6.794294e+12	3.488831e+13	2.458080e+13	4.070169e+03	1.791738e+03	1.218481e+03	1	3.575952e-04
3.300000e+09	3.538373e+12	4.446859e-01	7.286432e-01	6.746922e+12	3.411604e+13	2.395734e+13	4.068210e+03	1.788026e+03	1.215956e+03	1	3.568485e-04
3.400000e+09	3.520939e+12	4.454797e-01	7.286432e-01	6.700713e+12	3.337986e+13	2.336429e+13	4.066272e+03	1.784420e+03	1.213504e+03	1	3.561167e-04
3.500000e+09	3.503933e+12	4.462670e-01	7.286432e-01	6.655620e+12	3.267747e+13	2.279972e+13	4.064355e+03	1.780917e+03	1.211121e+03	1	3.553991e-04
3.600000e+09	3.487336e+12	4.470477e-01	7.286432e-01	6.611598e+12	3.200676e+13	2.226185e+13	4.062458e+03	1.777510e+03	1.208805e+03	1	3.546952e-04
3.700000e+09	3.441154e+12	4.478028e-01	7.286432e-01	6.568605e+12	3.136576e+13	2.174902e+13	4.060581e+03	1.774197e+03	1.206552e+03	1	3.529861e-04
3.800000e+09	3.425300e+12	4.485642e-01	7.286432e-01	6.526162e+12	3.075252e+13	2.125969e+13	4.058683e+03	1.770973e+03	1.204359e+03	1	3.523058e-04
3.900000e+09	3.409807e+12	4.493195e-01	7.286432e-01	6.484678e+12	3.016550e+13	2.079241e+13	4.056804e+03	1.767835e+03	1.202225e+03	1	3.516379e-04
4.000000e+09	3.394662e+12	4.500690e-01	7.286432e-01	6.444116e+12	2.960316e+13	2.034586e+13	4.054943e+03	1.764779e+03	1.200147e+03	1	3.509819e-04
4.100000e+09	3.379852e+12	4.508126e-01	7.286432e-01	6.404443e+12	2.906408e+13	1.991880e+13	4.053101e+03	1.761802e+03	1.198123e+03	1	3.503375e-04
4.200000e+09	3.365364e+12	4.515506e-01	7.286432e-01	6.365626e+12	2.854692e+13	1.951006e+13	4.051277e+03	1.758902e+03	1.196150e+03	1	3.497042e-04
4.300000e+09	3.324566e+12	4.522796e-01	7.286432e-01	6.327636e+12	2.805046e+13	1.911857e+13	4.049470e+03	1.756074e+03	1.194227e+03	1	3.481555e-04
4.400000e+09	3.310659e+12	4.530006e-01	7.286432e-01	6.290060e+12	2.757339e+13	1.874333e+13	4.047644e+03	1.753318e+03	1.192353e+03	1	3.475413e-04
4.500000e+09	3.297041e+12	4.537164e-01	7.286432e-01	6.253258e+12	2.711476e+13	1.838339e+13	4.045835e+03	1.750629e+03	1.190524e+03	1	3.469372e-04
4.600000e+09	3.283700e+12	4.544270e-01	7.286432e-01	6.217203e+12	2.667356e+13	1.803789e+13	4.044043e+03	1.748005e+03	1.188740e+03	1	3.463429e-04
4.700000e+09	3.270627e+12	4.551324e-01	7.286432e-01	6.181871e+12	2.624887e+13	1.770601e+13	4.042267e+03	1.745444e+03	1.186998e+03	1	3.457581e-04
4.800000e+09	3.257813e+12	4.558328e-01	7.286432e-01	6.147237e+12	2.583980e+13	1.738698e+13	4.040508e+03	1.742943e+03	1.185297e+03	1	3.451824e-04
4.900000e+09	3.245249e+12	4.565283e-01	7.286432e-01	6.113276e+12	2.544555e+13	1.708008e+13	4.038764e+03	1.740501e+03	1.183636e+03	1	3.446157e-04
5.000000e+09	3.232923e+12	4.572190e-01	7.286432e-01	6.079968e+12	2.506533e+13	1.678467e+13	4.037035e+03	1.738115e+03	1.182014e+03	1	3.440576e-04
5.100000e+09	3.194057e+12	4.578881e-01	7.286432e-01	6.047289e+12	2.469842e+13	1.650010e+13	4.035322e+03	1.735783e+03	1.180428e+03	1	3.425563e-04
5.200000e+09	3.182151e+12	4.585636e-01	7.286432e-01	6.014845e+12	2.434402e+13	1.622579e+13	4.033587e+03	1.733503e+03	1.178878e+03	1	3.420122e-04
5.300000e+09	3.170461e+12	4.592346e-01	7.286432e-01	5.982995e+12	2.400161e+13	1.596121e+13	4.031866e+03	1.731274e+03	1.177362e+03	1	3.414760e-04
5.400000e+09	3.158981e+12	4.599011e-01	7.286432e-01	5.951720e+12	2.367058e+13	1.570583e+13	4.030160e+03	1.729093e+03	1.175879e+03	1	3.409474e-04
5.500000e+09	3.147703e+12	4.605632e-01	7.286432e-01	5.921003e+12	2.335038e+13	1.545918e+13	4.028468e+03	1.726959e+03	1.174428e+03	1	3.404263e-04
5.600000e+09	3.136621e+12	4.612210e-01	7.286432e-01	5.890825e+12	2.304048e+13	1.522080e+13	4.026791e+03	1.724871e+03	1.173007e+03	1	3.399123e-04
5.700000e+09	3.125729e+12	4.618745e-01	7.286432e-01	5.861171e+12	2.274039e+13	1.499028e+13	4.025127e+03	1.722825e+03	1.171616e+03	1	3.394053e-04
5.800000e+09	3.090581e+12	4.625207e-01	7.286432e-01	5.832023e+12	2.244965e+13	1.476721e+13	4.023477e+03	1.720822e+03	1.170254e+03	1	3.380170e-04
5.900000e+09	3.080007e+12	4.631608e-01	7.286432e-01	5.803028e+12	2.216768e+13	1.455122e+13	4.021806e+03	1.718859e+03	1.168919e+03	1	3.375210e-04
6.000000e+09	3.069605e+12	4.637969e-01	7.286432e-01	5.774514e+12	2.189419e+13	1.434196e+13	4.020148e+03	1.716936e+03	1.167611e+03	1	3.370314e-04
6.100000e+09	3.059367e+12	4.644290e-01	7.286432e-01	5.746465e+12	2.162877e+13	1.413911e+13	4.018503e+03	1.715050e+03	1.166328e+03	1	3.365479e-04
6.200000e+09	3.049291e+12	4.650571e-01	7.286432e-01	5.718869e+12	2.137106e+13	1.394235e+13	4.016872e+03	1.713200e+03	1.165070e+03	1	3.360705e-04
6.300000e+09	3.039369e+12	4.656814e-01	7.286432e-01	5.691710e+12	2.112071e+13	1.375139e+13	4.015253e+03	1.711385e+03	1.163836e+03	1	3.355989e-04
6.400000e+09	3.029598e+12	4.663020e-01	7.286432e-01	5.664978e+12	2.087740e+13	1.356595e+13	4.013646e+03	1.709605e+03	1.162626e+03	1	3.351331e-04
6.500000e+09	3.019972e+12	4.669187e-01	7.286432e-01	5.638659e+12	2.064082e+13	1.338579e+13	4.012052e+03	1.707857e+03	1.161437e+03	1	3.346727e-04
6.600000e+09	2.988164e+12	4.675290e-01	7.286432e-01	5.612741e+12	2.041067e+13	1.321065e+13	4.010470e+03	1.706141e+03	1.160270e+03	1	3.333900e-04
6.700000e+09	2.978776e+12	4.681340e-01	7.286432e-01	5.586911e+12	2.018656e+13	1.304030e+13	4.008868e+03	1.704456e+03	1.159124e+03	1	3.329381e-04
6.800000e+09	2.969521e+12	4.687353e-01	7.286432e-01	5.561462e+12	1.996833e+13	1.287454e+13	4.007278e+03	1.702800e+03	1.157998e+03	1	3.324912e-04
6.900000e+09	2.960393e+12	4.693331e-01	7.286432e-01	5.536386e+12	1.975572e+13	1.271314e+13	4.005700e+03	1.701173e+03	1.156891e+03	1	3.320493e-04
7.000000e+09	2.951391e+12	4.699275e-01	7.286432e-01	5.511671e+12	1.954851e+13	1.255593e+13	4.004133e+03	1.699573e+03	1.155803e+03	1	3.316121e-04
7.100000e+09	2.942509e+12	4.705184e-01	7.286432e-01	5.487307e+12	1.934647e+13	1.240272e+13	4.002578e+03	1.698000e+03	1.154734e+03	1	3.311797e-04
7.200000e+09	2.933745e+12	4.711060e-01	7.286432e-01	5.463286e+12	1.914938e+13	1.225334e+13	4.001034e+03	1.696453e+03	1.153681e+03	1	3.307518e-04
7.300000e+09	2.925095e+12	4.716902e-01	7.286432e-01	5.439598e+12	1.895706e+13	1.210762e+13	3.999501e+03	1.694930e+03	1.152646e+03	1	3.303283e-04
7.400000e+09	2.916555e+12	4.722711e-01	7.286432e-01	5.416234e+12	1.876930e+13	1.196541e+13	3.997980e+03	1.693432e+03	1.151627e+03	1	3.299091e-04
7.500000e+09	2.885669e+12	4.728350e-01	7.286432e-01	5.393186e+12	1.858593e+13	1.182656e+13	3.996468e+03	1.691957e+03	1.150624e+03	1	3.286463e-04
7.600000e+09	2.877295e+12	4.734051e-01	7.286432e-01	5.370146e+12	1.840667e+13	1.169095e+13	3.994936e+03	1.690505e+03	1.149637e+03	1	3.282331e-04
7.700000e+09	2.869022e+12	4.739720e-01	7.286432e-01	5.347408e+12	1.823145e+13	1.155843e+13	3.993413e+03	1.689075e+03	1.148664e+03	1	3.278238e-04
7.800000e+09	2.860847e+12	4.745358e-01	7.286432e-01	5.324966e+12	1.806011e+13	1.142888e+13	3.991902e+03	1.687666e+03	1.147706e+03	1	3.274185e-04
7.900000e+09	2.852768e+12	4.750966e-01	7.286432e-01	5.302811e+12	1.789251e+13	1.130220e+13	3.990400e+03	1.686277e+03	1.146761e+03	1	3.270169e-04
8.000000e+09	2.844783e+12	4.756543e-01	7.286432e-01	5.280936e+12	1.772851e+13	1.117826e+13	3.988909e+03	1.684908e+03	1.145830e+03	1	3.266190e-04
8.100000e+09	2.836888e+12	4.762090e-01	7.286432e-01	5.259335e+12	1.756798e+13	1.105695e+13	3.987428e+03	1.683558e+03	1.144912e+03	1	3.262248e-04
8.200000e+09	2.829081e+12	4.767607e-01	7.286432e-01	5.238001e+12	1.741079e+13	1.093820e+13	3.985957e+03	1.682227e+03	1.144007e+03	1	3.258341e-04
8.300000e+09	2.821361e+12	4.773096e-01	7.286432e-01	5.216928e+12	1.725682e+13	1.082188e+13	3.984496e+03	1.680913e+03	1.143114e+03	1	3.254468e-04
8.400000e+09	2.793708e+12	4.778433e-01	7.286432e-01	5.196110e+12	1.710596e+13	1.070793e+13	3.983045e+03	1.679618e+03	1.142233e+03	1	3.242923e-04
8.500000e+09	2.786111e+12	4.783825e-01	7.286432e-01	5.175277e+12	1.695800e+13	1.059624e+13	3.981574e+03	1.678339e+03	1.141363e+03	1	3.239095e-04
8.600000e+09	2.778594e+12	4.789190e-01	7.286432e-01	5.154689e+12	1.681293e+13	1.048675e+13	3.980112e+03	1.677076e+03	1.140504e+03	1	3.235300e-04
8.700000e+09	2.771154e+12	4.794526e-01	7.286432e-01	5.134341e+12	1.667063e+13	1.037937e+13	3.978660e+03	1.675830e+03	1.139657e+03	1	3.231536e-04
8.800000e+09	2.763789e+12	4.799835e-01	7.286432e-01	5.114227e+12	1.653103e+13	1.027403e+13	3.977218e+03	1.674598e+03	1.138819e+03	1	3.227802e-04
8.900000e+09	2.756498e+12	4.805116e-01	7.286432e-01	5.094342e+12	1.639402e+13	1.017065e+13	3.975785e+03	1.673382e+03	1.137992e+03	1	3.224099e-04
9.000000e+09	2.749279e+12	4.810371e-01	7.286432e-01	5.074681e+12	1.625953e+13	1.006919e+13	3.974361e+03	1.672180e+03	1.137175e+03	1	3.220424e-04
9.100000e+09	2.742130e+12	4.815599e-01	7.286432e-01	5.055239e+12	1.612748e+13	9.969559e+12	3.972946e+03	1.670993e+03	1.136367e+03	1	3.216779e-04
9.200000e+09	2.735050e+12	4.820801e-01	7.286432e-01	5.036012e+12	1.599778e+13	9.871711e+12	3.971540e+03	1.669819e+03	1.135569e+03	1	3.213161e-04
9.300000e+09	2.708810e+12	4.825953e-01	7.286432e-01	5.016994e+12	1.587036e+13	9.775586e+12	3.970143e+03	1.668658e+03	1.134779e+03	1	3.202017e-04
9.400000e+09	2.701820e+12	4.831067e-01	7.286432e-01	4.997933e+12	1.574505e+13	9.681128e+12	3.968726e+03	1.667510e+03	1.133999e+03	1	3.198433e-04
9.500000e+09	2.694894e+12	4.836155e-01	7.286432e-01	4.979075e+12	1.562188e+13	9.588286e+12	3.967317e+03	1.666375e+03	1.133227e+03	1	3.194875e-04
9.600000e+09	2.688030e+12	4.841219e-01	7.286432e-01	4.960417e+12	1.550077e+13	9.497010e+12	3.965918e+03	1.665252e+03	1.132463e+03	1	3.191342e-04
9.700000e+09	2.681228e+12	4.846257e-01	7.286432e-01	4.941953e+12	1.538167e+13	9.407251e+12	3.964527e+03	1.664141e+03	1.131708e+03	1	3.187835e-04
9.800000e+09	2.674485e+12	4.851271e-01	7.286432e-01	4.923681e+12	1.526451e+13	9.318964e+12	3.963145e+03	1.663041e+03	1.130960e+03	1	3.184353e-04
9.900000e+09	2.667801e+12	4.856260e-01	7.286432e-01	4.905596e+12	1.514924e+13	9.232107e+12	3.961771e+03	1.661952e+03	1.130219e+03	1	3.180896e-04
1.000000e+10	2.661174e+12	4.861225e-01	7.286432e-01	4.887696e+12	1.503580e+13	9.146637e+12	3.960405e+03	1.660875e+03	1.129486e+03	1	3.177462e-04
