#t		Qconv[W]	Ri[Rp]		R*[Rp]		Qc[W]		Qm[W]		Qr[W]		Tcmb[K]		Tl[K]		Tup[K]		RiFlag		Bs[T]
0.000000e+00	1.856736e+12	0.000000e+00	7.185929e-01	3.982326e+13	1.790748e+15	1.458093e+14	5.552496e+03	3.704400e+03	2.192708e+03	0	3.555558e-04
1.000000e+07	1.839392e+12	0.000000e+00	7.185929e-01	3.961739e+13	1.559815e+15	1.450014e+14	5.551046e+03	3.602725e+03	2.132524e+03	0	3.544452e-04
2.000000e+07	1.808098e+12	0.000000e+00	7.185929e-01	3.924980e+13	1.376171e+15	1.441996e+14	5.549604e+03	3.515069e+03	2.080639e+03	0	3.524236e-04
3.000000e+07	1.769166e+12	0.000000e+00	7.185929e-01	3.879370e+13	1.227563e+15	1.434037e+14	5.548175e+03	3.438639e+03	2.035399e+03	0	3.498758e-04
4.000000e+07	1.726395e+12	0.000000e+00	7.185929e-01	3.829313e+13	1.105458e+15	1.426138e+14	5.546762e+03	3.371346e+03	1.995567e+03	0	3.470332e-04
5.000000e+07	1.682092e+12	0.000000e+00	7.185929e-01	3.777488e+13	1.003776e+15	1.418298e+14	5.545368e+03	3.311595e+03	1.960199e+03	0	3.440390e-04
6.000000e+07	1.637665e+12	0.000000e+00	7.185929e-01	3.725524e+13	9.180913e+14	1.410516e+14	5.543993e+03	3.258148e+03	1.928562e+03	0	3.409830e-04
7.000000e+07	1.593963e+12	0.000000e+00	7.185929e-01	3.674407e+13	8.451241e+14	1.402792e+14	5.542637e+03	3.210027e+03	1.900078e+03	0	3.379225e-04
8.000000e+07	1.551488e+12	0.000000e+00	7.185929e-01	3.624718e+13	7.824014e+14	1.395126e+14	5.541299e+03	3.166451e+03	1.874285e+03	0	3.348938e-04
9.000000e+07	1.510521e+12	0.000000e+00	7.185929e-01	3.576785e+13	7.280293e+14	1.387517e+14	5.539979e+03	3.126790e+03	1.850809e+03	0	3.319199e-04
1.000000e+08	1.471206e+12	0.000000e+00	7.185929e-01	3.530772e+13	6.805374e+14	1.379964e+14	5.538677e+03	3.090524e+03	1.829342e+03	0	3.290149e-04
1.100000e+08	1.433595e+12	0.000000e+00	7.185929e-01	3.486740e+13	6.387697e+14	1.372467e+14	5.537391e+03	3.057226e+03	1.809633e+03	0	3.261869e-04
1.200000e+08	1.397686e+12	0.000000e+00	7.185929e-01	3.444687e+13	6.018064e+14	1.365025e+14	5.536122e+03	3.026537e+03	1.791467e+03	0	3.234404e-04
1.300000e+08	1.363441e+12	0.000000e+00	7.185929e-01	3.404568e+13	5.689083e+14	1.357639e+14	5.534867e+03	2.998157e+03	1.774669e+03	0	3.207769e-04
1.400000e+08	1.330801e+12	0.000000e+00	7.185929e-01	3.366316e+13	5.394755e+14	1.350308e+14	5.533628e+03	2.971831e+03	1.759086e+03	0	3.181965e-04
1.500000e+08	1.299697e+12	0.000000e+00	7.185929e-01	3.329848e+13	5.130166e+14	1.343030e+14	5.532402e+03	2.947340e+03	1.744589e+03	0	3.156979e-04
1.600000e+08	1.270051e+12	0.000000e+00	7.185929e-01	3.295076e+13	4.891259e+14	1.335807e+14	5.531190e+03	2.924496e+03	1.731067e+03	0	3.132791e-04
1.700000e+08	1.241786e+12	0.000000e+00	7.185929e-01	3.261909e+13	4.674661e+14	1.328637e+14	5.529990e+03	2.903137e+03	1.718424e+03	0	3.109376e-04
1.800000e+08	1.214823e+12	0.000000e+00	7.185929e-01	3.230256e+13	4.477543e+14	1.321519e+14	5.528802e+03	2.883121e+03	1.706576e+03	0	3.086707e-04
1.900000e+08	1.189088e+12	0.000000e+00	7.185929e-01	3.200029e+13	4.297523e+14	1.314454e+14	5.527626e+03	2.864325e+03	1.695451e+03	0	3.064754e-04
2.000000e+08	1.164506e+12	0.000000e+00	7.185929e-01	3.171145e+13	4.132576e+14	1.307441e+14	5.526461e+03	2.846640e+03	1.684983e+03	0	3.043488e-04
2.100000e+08	1.141010e+12	0.000000e+00	7.185929e-01	3.143521e+13	3.980977e+14	1.300480e+14	5.525306e+03	2.829971e+03	1.675116e+03	0	3.022880e-04
2.200000e+08	1.118534e+12	0.000000e+00	7.185929e-01	3.117084e+13	3.841247e+14	1.293570e+14	5.524161e+03	2.814231e+03	1.665799e+03	0	3.002899e-04
2.300000e+08	1.097016e+12	0.000000e+00	7.185929e-01	3.091761e+13	3.712108e+14	1.286710e+14	5.523026e+03	2.799347e+03	1.656989e+03	0	2.983518e-04
2.400000e+08	1.076398e+12	0.000000e+00	7.185929e-01	3.067485e+13	3.592455e+14	1.279901e+14	5.521900e+03	2.785249e+03	1.648644e+03	0	2.964709e-04
2.500000e+08	1.056628e+12	0.000000e+00	7.185929e-01	3.044195e+13	3.481328e+14	1.273141e+14	5.520783e+03	2.771878e+03	1.640730e+03	0	2.946446e-04
2.600000e+08	1.037655e+12	0.000000e+00	7.185929e-01	3.021831e+13	3.377885e+14	1.266431e+14	5.519675e+03	2.759180e+03	1.633213e+03	0	2.928703e-04
2.700000e+08	1.019432e+12	0.000000e+00	7.185929e-01	3.000339e+13	3.281391e+14	1.259770e+14	5.518575e+03	2.747104e+03	1.626065e+03	0	2.911457e-04
2.800000e+08	1.001915e+12	0.000000e+00	7.185929e-01	2.979670e+13	3.191197e+14	1.253158e+14	5.517482e+03	2.735607e+03	1.619260e+03	0	2.894685e-04
2.900000e+08	9.850636e+11	0.000000e+00	7.185929e-01	2.959774e+13	3.106731e+14	1.246594e+14	5.516397e+03	2.724648e+03	1.612773e+03	0	2.878364e-04
3.000000e+08	9.688403e+11	0.000000e+00	7.185929e-01	2.940609e+13	3.027485e+14	1.240078e+14	5.515319e+03	2.714191e+03	1.606583e+03	0	2.862475e-04
3.100000e+08	9.532096e+11	0.000000e+00	7.185929e-01	2.922133e+13	2.953008e+14	1.233609e+14	5.514248e+03	2.704202e+03	1.600671e+03	0	2.846998e-04
3.200000e+08	9.381386e+11	0.000000e+00	7.185929e-01	2.904309e+13	2.882897e+14	1.227188e+14	5.513184e+03	2.694652e+03	1.595018e+03	0	2.831914e-04
3.300000e+08	9.235966e+11	0.000000e+00	7.185929e-01	2.887099e+13	2.816794e+14	1.220813e+14	5.512127e+03	2.685511e+03	1.589607e+03	0	2.817205e-04
3.400000e+08	9.095548e+11	0.000000e+00	7.185929e-01	2.870472e+13	2.754375e+14	1.214484e+14	5.511075e+03	2.676755e+03	1.584425e+03	0	2.802855e-04
3.500000e+08	8.959866e+11	0.000000e+00	7.185929e-01	2.854396e+13	2.695350e+14	1.208202e+14	5.510030e+03	2.668360e+03	1.579455e+03	0	2.788848e-04
3.600000e+08	8.828670e+11	0.000000e+00	7.185929e-01	2.838842e+13	2.639459e+14	1.201965e+14	5.508991e+03	2.660305e+03	1.574687e+03	0	2.775169e-04
3.700000e+08	8.701726e+11	0.000000e+00	7.185929e-01	2.823783e+13	2.586465e+14	1.195773e+14	5.507957e+03	2.652569e+03	1.570108e+03	0	2.761804e-04
3.800000e+08	8.578816e+11	0.000000e+00	7.185929e-01	2.809194e+13	2.536155e+14	1.189625e+14	5.506929e+03	2.645134e+03	1.565707e+03	0	2.748739e-04
3.900000e+08	8.459734e+11	0.000000e+00	7.185929e-01	2.795050e+13	2.488335e+14	1.183523e+14	5.505906e+03	2.637983e+03	1.561474e+03	0	2.735961e-04
4.000000e+08	8.344289e+11	0.000000e+00	7.185929e-01	2.781329e+13	2.442828e+14	1.177464e+14	5.504888e+03	2.631100e+03	1.557400e+03	0	2.723459e-04
4.100000e+08	8.232301e+11	0.000000e+00	7.185929e-01	2.768011e+13	2.399474e+14	1.171449e+14	5.503875e+03	2.624470e+03	1.553476e+03	0	2.711220e-04
4.200000e+08	8.123601e+11	0.000000e+00	7.185929e-01	2.755075e+13	2.358127e+14	1.165477e+14	5.502867e+03	2.618080e+03	1.549693e+03	0	2.699234e-04
4.300000e+08	8.018031e+11	0.000000e+00	7.185929e-01	2.742505e+13	2.318653e+14	1.159549e+14	5.501864e+03	2.611917e+03	1.546045e+03	0	2.687490e-04
4.400000e+08	7.915441e+11	0.000000e+00	7.185929e-01	2.730281e+13	2.280928e+14	1.153663e+14	5.500865e+03	2.605969e+03	1.542525e+03	0	2.675979e-04
4.500000e+08	7.815692e+11	0.000000e+00	7.185929e-01	2.718388e+13	2.244841e+14	1.147819e+14	5.499871e+03	2.600225e+03	1.539125e+03	0	2.664691e-04
4.600000e+08	7.718651e+11	0.000000e+00	7.185929e-01	2.706810e+13	2.210288e+14	1.142018e+14	5.498881e+03	2.594675e+03	1.535840e+03	0	2.653616e-04
4.700000e+08	7.624194e+11	0.000000e+00	7.185929e-01	2.695534e+13	2.177174e+14	1.136257e+14	5.497895e+03	2.589309e+03	1.532664e+03	0	2.642747e-04
4.800000e+08	7.532204e+11	0.000000e+00	7.185929e-01	2.684544e+13	2.145411e+14	1.130539e+14	5.496914e+03	2.584118e+03	1.529591e+03	0	2.632076e-04
4.900000e+08	7.442571e+11	0.000000e+00	7.185929e-01	2.673830e+13	2.114918e+14	1.124861e+14	5.495936e+03	2.579094e+03	1.526617e+03	0	2.621593e-04
5.000000e+08	7.355190e+11	0.000000e+00	7.185929e-01	2.663378e+13	2.085619e+14	1.119223e+14	5.494962e+03	2.574228e+03	1.523737e+03	0	2.611293e-04
5.100000e+08	7.269962e+11	0.000000e+00	7.185929e-01	2.653176e+13	2.057447e+14	1.113626e+14	5.493992e+03	2.569514e+03	1.520946e+03	0	2.601168e-04
5.200000e+08	7.186796e+11	0.000000e+00	7.185929e-01	2.643215e+13	2.030337e+14	1.108069e+14	5.493026e+03	2.564943e+03	1.518241e+03	0	2.591211e-04
5.300000e+08	7.105602e+11	0.000000e+00	7.185929e-01	2.633484e+13	2.004228e+14	1.102552e+14	5.492064e+03	2.560510e+03	1.515616e+03	0	2.581416e-04
5.400000e+08	7.026298e+11	0.000000e+00	7.185929e-01	2.623973e+13	1.979066e+14	1.097074e+14	5.491105e+03	2.556207e+03	1.513070e+03	0	2.571776e-04
5.500000e+08	6.948804e+11	0.000000e+00	7.185929e-01	2.614673e+13	1.954799e+14	1.091635e+14	5.490149e+03	2.552031e+03	1.510598e+03	0	2.562287e-04
5.600000e+08	6.873045e+11	0.000000e+00	7.185929e-01	2.605576e+13	1.931379e+14	1.086234e+14	5.489197e+03	2.547973e+03	1.508196e+03	0	2.552941e-04
5.700000e+08	6.798952e+11	0.000000e+00	7.185929e-01	2.596672e+13	1.908762e+14	1.080872e+14	5.488248e+03	2.544031e+03	1.505862e+03	0	2.543734e-04
5.800000e+08	6.726457e+11	0.000000e+00	7.185929e-01	2.587955e+13	1.886906e+14	1.075548e+14	5.487303e+03	2.540198e+03	1.503593e+03	0	2.534661e-04
5.900000e+08	6.655495e+11	0.000000e+00	7.185929e-01	2.579417e+13	1.865771e+14	1.070262e+14	5.486360e+03	2.536470e+03	1.501387e+03	0	2.525716e-04
6.000000e+08	6.586007e+11	0.000000e+00	7.185929e-01	2.571051e+13	1.845321e+14	1.065013e+14	5.485421e+03	2.532842e+03	1.499239e+03	0	2.516895e-04
6.100000e+08	6.517935e+11	0.000000e+00	7.185929e-01	2.562850e+13	1.825523e+14	1.059801e+14	5.484484e+03	2.529310e+03	1.497149e+03	0	2.508193e-04
6.200000e+08	6.451223e+11	0.000000e+00	7.185929e-01	2.554808e+13	1.806343e+14	1.054626e+14	5.483551e+03	2.525871e+03	1.495113e+03	0	2.499607e-04
6.300000e+08	6.385821e+11	0.000000e+00	7.185929e-01	2.546918e+13	1.787753e+14	1.049487e+14	5.482621e+03	2.522520e+03	1.493130e+03	0	2.491131e-04
6.400000e+08	6.321679e+11	0.000000e+00	7.185929e-01	2.539175e+13	1.769724e+14	1.044385e+14	5.481693e+03	2.519254e+03	1.491196e+03	0	2.482762e-04
6.500000e+08	6.258749e+11	0.000000e+00	7.185929e-01	2.531574e+13	1.752230e+14	1.039319e+14	5.480769e+03	2.516069e+03	1.489311e+03	0	2.474497e-04
6.600000e+08	6.196986e+11	0.000000e+00	7.185929e-01	2.524109e+13	1.735245e+14	1.034288e+14	5.479847e+03	2.512963e+03	1.487473e+03	0	2.466330e-04
6.700000e+08	6.136349e+11	0.000000e+00	7.185929e-01	2.516776e+13	1.718746e+14	1.029293e+14	5.478927e+03	2.509932e+03	1.485679e+03	0	2.458259e-04
6.800000e+08	6.076795e+11	0.000000e+00	7.185929e-01	2.509569e+13	1.702712e+14	1.024333e+14	5.478011e+03	2.506973e+03	1.483927e+03	0	2.450281e-04
6.900000e+08	6.018287e+11	0.000000e+00	7.185929e-01	2.502484e+13	1.687122e+14	1.019408e+14	5.477097e+03	2.504084e+03	1.482217e+03	0	2.442392e-04
7.000000e+08	5.960786e+11	0.000000e+00	7.185929e-01	2.495517e+13	1.671955e+14	1.014517e+14	5.476186e+03	2.501261e+03	1.480546e+03	0	2.434588e-04
7.100000e+08	5.904258e+11	0.000000e+00	7.185929e-01	2.488663e+13	1.657194e+14	1.009660e+14	5.475277e+03	2.498503e+03	1.478913e+03	0	2.426868e-04
7.200000e+08	5.848669e+11	0.000000e+00	7.185929e-01	2.481920e+13	1.642821e+14	1.004838e+14	5.474371e+03	2.495806e+03	1.477317e+03	0	2.419228e-04
7.300000e+08	5.793986e+11	0.000000e+00	7.185929e-01	2.475282e+13	1.628819e+14	1.000049e+14	5.473467e+03	2.493170e+03	1.475757e+03	0	2.411664e-04
7.400000e+08	5.740179e+11	0.000000e+00	7.185929e-01	2.468746e+13	1.615174e+14	9.952932e+13	5.472565e+03	2.490590e+03	1.474230e+03	0	2.404176e-04
7.500000e+08	5.687218e+11	0.000000e+00	7.185929e-01	2.462309e+13	1.601869e+14	9.905708e+13	5.471666e+03	2.488066e+03	1.472736e+03	0	2.396759e-04
7.600000e+08	5.635074e+11	0.000000e+00	7.185929e-01	2.455968e+13	1.588892e+14	9.858814e+13	5.470770e+03	2.485595e+03	1.471273e+03	0	2.389411e-04
7.700000e+08	5.583721e+11	0.000000e+00	7.185929e-01	2.449719e+13	1.576229e+14	9.812245e+13	5.469875e+03	2.483176e+03	1.469841e+03	0	2.382131e-04
7.800000e+08	5.533133e+11	0.000000e+00	7.185929e-01	2.443560e+13	1.563868e+14	9.766001e+13	5.468983e+03	2.480806e+03	1.468438e+03	0	2.374915e-04
7.900000e+08	5.483284e+11	0.000000e+00	7.185929e-01	2.437487e+13	1.551795e+14	9.720077e+13	5.468093e+03	2.478484e+03	1.467064e+03	0	2.367761e-04
8.000000e+08	5.434152e+11	0.000000e+00	7.185929e-01	2.431498e+13	1.540001e+14	9.674473e+13	5.467205e+03	2.476209e+03	1.465717e+03	0	2.360668e-04
8.100000e+08	5.385714e+11	0.000000e+00	7.185929e-01	2.425590e+13	1.528475e+14	9.629184e+13	5.466320e+03	2.473978e+03	1.464396e+03	0	2.353633e-04
8.200000e+08	5.337947e+11	0.000000e+00	7.185929e-01	2.419760e+13	1.517206e+14	9.584208e+13	5.465437e+03	2.471790e+03	1.463101e+03	0	2.346654e-04
8.300000e+08	5.290830e+11	0.000000e+00	7.185929e-01	2.414007e+13	1.506184e+14	9.539544e+13	5.464555e+03	2.469643e+03	1.461831e+03	0	2.339729e-04
8.400000e+08	5.244345e+11	0.000000e+00	7.185929e-01	2.408328e+13	1.495401e+14	9.495188e+13	5.463676e+03	2.467537e+03	1.460584e+03	0	2.332857e-04
8.500000e+08	5.198471e+11	0.000000e+00	7.185929e-01	2.402720e+13	1.484847e+14	9.451138e+13	5.462799e+03	2.465470e+03	1.459361e+03	0	2.326035e-04
8.600000e+08	5.153189e+11	0.000000e+00	7.185929e-01	2.397181e+13	1.474515e+14	9.407391e+13	5.461924e+03	2.463440e+03	1.458159e+03	0	2.319262e-04
8.700000e+08	5.108483e+11	0.000000e+00	7.185929e-01	2.391710e+13	1.464395e+14	9.363946e+13	5.461051e+03	2.461447e+03	1.456979e+03	0	2.312535e-04
8.800000e+08	5.064335e+11	0.000000e+00	7.185929e-01	2.386304e+13	1.454482e+14	9.320800e+13	5.460180e+03	2.459489e+03	1.455820e+03	0	2.305854e-04
8.900000e+08	5.020729e+11	0.000000e+00	7.185929e-01	2.380962e+13	1.444766e+14	9.277950e+13	5.459311e+03	2.457565e+03	1.454681e+03	0	2.299217e-04
9.000000e+08	4.977649e+11	0.000000e+00	7.185929e-01	2.375682e+13	1.435242e+14	9.235394e+13	5.458444e+03	2.455674e+03	1.453562e+03	0	2.292622e-04
9.100000e+08	4.935080e+11	0.000000e+00	7.185929e-01	2.370461e+13	1.425903e+14	9.193130e+13	5.457579e+03	2.453815e+03	1.452462e+03	0	2.286068e-04
9.200000e+08	4.893007e+11	0.000000e+00	7.185929e-01	2.365298e+13	1.416743e+14	9.151155e+13	5.456716e+03	2.451986e+03	1.451379e+03	0	2.279553e-04
9.300000e+08	4.851416e+11	0.000000e+00	7.185929e-01	2.360192e+13	1.407755e+14	9.109468e+13	5.455854e+03	2.450188e+03	1.450315e+03	0	2.273076e-04
9.400000e+08	4.810295e+11	0.000000e+00	7.185929e-01	2.355141e+13	1.398934e+14	9.068065e+13	5.454995e+03	2.448419e+03	1.449268e+03	0	2.266635e-04
9.500000e+08	4.769629e+11	0.000000e+00	7.185929e-01	2.350144e+13	1.390274e+14	9.026945e+13	5.454137e+03	2.446677e+03	1.448237e+03	0	2.260230e-04
9.600000e+08	4.729407e+11	0.000000e+00	7.185929e-01	2.345198e+13	1.381771e+14	8.986106e+13	5.453281e+03	2.444963e+03	1.447222e+03	0	2.253858e-04
9.700000e+08	4.689617e+11	0.000000e+00	7.185929e-01	2.340303e+13	1.373418e+14	8.945544e+13	5.452427e+03	2.443276e+03	1.446224e+03	0	2.247520e-04
9.800000e+08	4.650246e+11	0.000000e+00	7.185929e-01	2.335458e+13	1.365211e+14	8.905259e+13	5.451575e+03	2.441614e+03	1.445240e+03	0	2.241212e-04
9.900000e+08	4.611285e+11	0.000000e+00	7.185929e-01	2.330660e+13	1.357146e+14	8.865247e+13	5.450724e+03	2.439977e+03	1.444271e+03	0	2.234936e-04
1.000000e+09	4.572721e+11	0.000000e+00	7.185929e-01	2.325909e+13	1.349219e+14	8.825507e+13	5.449875e+03	2.438364e+03	1.443316e+03	0	2.228688e-04
1.010000e+09	4.534545e+11	0.000000e+00	7.185929e-01	2.321204e+13	1.341424e+14	8.786037e+13	5.449028e+03	2.436775e+03	1.442376e+03	0	2.222468e-04
1.020000e+09	4.496747e+11	0.000000e+00	7.185929e-01	2.316543e+13	1.333758e+14	8.746833e+13	5.448183e+03	2.435209e+03	1.441448e+03	0	2.216276e-04
1.030000e+09	4.459317e+11	0.000000e+00	7.185929e-01	2.311925e+13	1.326217e+14	8.707896e+13	5.447339e+03	2.433664e+03	1.440534e+03	0	2.210110e-04
1.040000e+09	4.422247e+11	0.000000e+00	7.185929e-01	2.307349e+13	1.318797e+14	8.669221e+13	5.446497e+03	2.432141e+03	1.439633e+03	0	2.203968e-04
1.050000e+09	4.385525e+11	0.000000e+00	7.185929e-01	2.302815e+13	1.311495e+14	8.630807e+13	5.445657e+03	2.430639e+03	1.438743e+03	0	2.197851e-04
1.060000e+09	4.349146e+11	0.000000e+00	7.185929e-01	2.298320e+13	1.304307e+14	8.592653e+13	5.444818e+03	2.429157e+03	1.437866e+03	0	2.191757e-04
1.070000e+09	4.313099e+11	0.000000e+00	7.185929e-01	2.293865e+13	1.297230e+14	8.554755e+13	5.443981e+03	2.427695e+03	1.437001e+03	0	2.185685e-04
1.080000e+09	4.277377e+11	0.000000e+00	7.185929e-01	2.289448e+13	1.290260e+14	8.517113e+13	5.443146e+03	2.426252e+03	1.436147e+03	0	2.179634e-04
1.090000e+09	4.241973e+11	0.000000e+00	7.185929e-01	2.285068e+13	1.283395e+14	8.479724e+13	5.442312e+03	2.424828e+03	1.435304e+03	0	2.173603e-04
1.100000e+09	4.206878e+11	0.000000e+00	7.185929e-01	2.280725e+13	1.276632e+14	8.442585e+13	5.441480e+03	2.423422e+03	1.434471e+03	0	2.167593e-04
1.110000e+09	4.172085e+11	0.000000e+00	7.185929e-01	2.276417e+13	1.269968e+14	8.405696e+13	5.440649e+03	2.422033e+03	1.433650e+03	0	2.161600e-04
1.120000e+09	4.137588e+11	0.000000e+00	7.185929e-01	2.272145e+13	1.263400e+14	8.369054e+13	5.439820e+03	2.420662e+03	1.432838e+03	0	2.155626e-04
1.130000e+09	4.103379e+11	0.000000e+00	7.185929e-01	2.267906e+13	1.256926e+14	8.332657e+13	5.438993e+03	2.419307e+03	1.432036e+03	0	2.149669e-04
1.140000e+09	4.069453e+11	0.000000e+00	7.185929e-01	2.263700e+13	1.250542e+14	8.296504e+13	5.438167e+03	2.417969e+03	1.431244e+03	0	2.143728e-04
1.150000e+09	4.035802e+11	0.000000e+00	7.185929e-01	2.259527e+13	1.244248e+14	8.260591e+13	5.437343e+03	2.416647e+03	1.430461e+03	0	2.137803e-04
1.160000e+09	4.002421e+11	0.000000e+00	7.185929e-01	2.255385e+13	1.238039e+14	8.224919e+13	5.436520e+03	2.415340e+03	1.429687e+03	0	2.131892e-04
1.170000e+09	3.969304e+11	0.000000e+00	7.185929e-01	2.251275e+13	1.231915e+14	8.189484e+13	5.435698e+03	2.414048e+03	1.428923e+03	0	2.125996e-04
1.180000e+09	3.936444e+11	0.000000e+00	7.185929e-01	2.247195e+13	1.225872e+14	8.154285e+13	5.434878e+03	2.412770e+03	1.428167e+03	0	2.120113e-04
1.190000e+09	3.903837e+11	0.000000e+00	7.185929e-01	2.243144e+13	1.219909e+14	8.119319e+13	5.434060e+03	2.411507e+03	1.427419e+03	0	2.114243e-04
1.200000e+09	3.871477e+11	0.000000e+00	7.185929e-01	2.239123e+13	1.214024e+14	8.084586e+13	5.433243e+03	2.410258e+03	1.426680e+03	0	2.108385e-04
1.210000e+09	3.839359e+11	0.000000e+00	7.185929e-01	2.235131e+13	1.208215e+14	8.050084e+13	5.432428e+03	2.409022e+03	1.425948e+03	0	2.102538e-04
1.220000e+09	3.807478e+11	0.000000e+00	7.185929e-01	2.231166e+13	1.202480e+14	8.015809e+13	5.431614e+03	2.407800e+03	1.425225e+03	0	2.096703e-04
1.230000e+09	3.775829e+11	0.000000e+00	7.185929e-01	2.227229e+13	1.196817e+14	7.981762e+13	5.430801e+03	2.406591e+03	1.424509e+03	0	2.090877e-04
1.240000e+09	3.744407e+11	0.000000e+00	7.185929e-01	2.223318e+13	1.191224e+14	7.947940e+13	5.429990e+03	2.405394e+03	1.423800e+03	0	2.085061e-04
1.250000e+09	3.713208e+11	0.000000e+00	7.185929e-01	2.219434e+13	1.185700e+14	7.914341e+13	5.429180e+03	2.404209e+03	1.423099e+03	0	2.079254e-04
1.260000e+09	3.682227e+11	0.000000e+00	7.185929e-01	2.215576e+13	1.180243e+14	7.880963e+13	5.428372e+03	2.403037e+03	1.422405e+03	0	2.073455e-04
1.270000e+09	3.651460e+11	0.000000e+00	7.185929e-01	2.211742e+13	1.174852e+14	7.847805e+13	5.427565e+03	2.401876e+03	1.421718e+03	0	2.067664e-04
1.280000e+09	3.620902e+11	0.000000e+00	7.185929e-01	2.207934e+13	1.169524e+14	7.814866e+13	5.426760e+03	2.400727e+03	1.421038e+03	0	2.061880e-04
1.290000e+09	3.590551e+11	0.000000e+00	7.185929e-01	2.204150e+13	1.164259e+14	7.782143e+13	5.425955e+03	2.399588e+03	1.420364e+03	0	2.056102e-04
1.300000e+09	3.560401e+11	0.000000e+00	7.185929e-01	2.200390e+13	1.159055e+14	7.749634e+13	5.425153e+03	2.398461e+03	1.419697e+03	0	2.050331e-04
1.310000e+09	3.530450e+11	0.000000e+00	7.185929e-01	2.196653e+13	1.153911e+14	7.717339e+13	5.424351e+03	2.397344e+03	1.419036e+03	0	2.044566e-04
1.320000e+09	3.500692e+11	0.000000e+00	7.185929e-01	2.192939e+13	1.148826e+14	7.685255e+13	5.423551e+03	2.396238e+03	1.418381e+03	0	2.038805e-04
1.330000e+09	3.471126e+11	0.000000e+00	7.185929e-01	2.189248e+13	1.143797e+14	7.653381e+13	5.422753e+03	2.395142e+03	1.417732e+03	0	2.033049e-04
1.340000e+09	3.441746e+11	0.000000e+00	7.185929e-01	2.185579e+13	1.138824e+14	7.621716e+13	5.421955e+03	2.394056e+03	1.417089e+03	0	2.027297e-04
1.350000e+09	3.412551e+11	0.000000e+00	7.185929e-01	2.181932e+13	1.133906e+14	7.590257e+13	5.421159e+03	2.392980e+03	1.416452e+03	0	2.021548e-04
1.360000e+09	3.383537e+11	0.000000e+00	7.185929e-01	2.178306e+13	1.129042e+14	7.559003e+13	5.420365e+03	2.391913e+03	1.415821e+03	0	2.015803e-04
