#t		Qconv[W]	Ri[Rp]		R*[Rp]		Qc[W]		Qm[W]		Qr[W]		Tcmb[K]		Tl[K]		Tup[K]		RiFlag		Bs[T]
0.000000e+00	7.226077e+12	0.000000e+00	7.151163e-01	1.360571e+14	9.925991e+14	7.325942e+13	5.651920e+03	3.236719e+03	2.095854e+03	0	5.815209e-04
1.000000e+07	7.105693e+12	0.000000e+00	7.151163e-01	1.339737e+14	8.527805e+14	7.285351e+13	5.637971e+03	3.144346e+03	2.036040e+03	0	5.782735e-04
2.000000e+07	6.973645e+12	0.000000e+00	7.151163e-01	1.316920e+14	7.461494e+14	7.245064e+13	5.624234e+03	3.067515e+03	1.986290e+03	0	5.746690e-04
3.000000e+07	6.838102e+12	0.000000e+00	7.151163e-01	1.293513e+14	6.627887e+14	7.205077e+13	5.610729e+03	3.002594e+03	1.944252e+03	0	5.709214e-04
4.000000e+07	6.703401e+12	0.000000e+00	7.151163e-01	1.270255e+14	5.962325e+14	7.165389e+13	5.597462e+03	2.947005e+03	1.908257e+03	0	5.671477e-04
5.000000e+07	6.571820e+12	0.000000e+00	7.151163e-01	1.247534e+14	5.421253e+14	7.125997e+13	5.584432e+03	2.898871e+03	1.877089e+03	0	5.634123e-04
6.000000e+07	6.444500e+12	0.000000e+00	7.151163e-01	1.225545e+14	4.974476e+14	7.086899e+13	5.571635e+03	2.856789e+03	1.849840e+03	0	5.597501e-04
7.000000e+07	6.321946e+12	0.000000e+00	7.151163e-01	1.204373e+14	4.600520e+14	7.048092e+13	5.559061e+03	2.819690e+03	1.825817e+03	0	5.561792e-04
8.000000e+07	6.204302e+12	0.000000e+00	7.151163e-01	1.184042e+14	4.283768e+14	7.009573e+13	5.546704e+03	2.786744e+03	1.804484e+03	0	5.527076e-04
9.000000e+07	6.091511e+12	0.000000e+00	7.151163e-01	1.164544e+14	4.012633e+14	6.971341e+13	5.534554e+03	2.757298e+03	1.785417e+03	0	5.493378e-04
1.000000e+08	5.983407e+12	0.000000e+00	7.151163e-01	1.145848e+14	3.778363e+14	6.933393e+13	5.522604e+03	2.730830e+03	1.768278e+03	0	5.460687e-04
1.100000e+08	5.879766e+12	0.000000e+00	7.151163e-01	1.127918e+14	3.574242e+14	6.895726e+13	5.510844e+03	2.706915e+03	1.752793e+03	0	5.428975e-04
1.200000e+08	5.780343e+12	0.000000e+00	7.151163e-01	1.110710e+14	3.395045e+14	6.858339e+13	5.499268e+03	2.685207e+03	1.738737e+03	0	5.398200e-04
1.300000e+08	5.684884e+12	0.000000e+00	7.151163e-01	1.094182e+14	3.236649e+14	6.821228e+13	5.487867e+03	2.665420e+03	1.725924e+03	0	5.368319e-04
1.400000e+08	5.593141e+12	0.000000e+00	7.151163e-01	1.078291e+14	3.095767e+14	6.784393e+13	5.476636e+03	2.647314e+03	1.714200e+03	0	5.339284e-04
1.500000e+08	5.504877e+12	0.000000e+00	7.151163e-01	1.062997e+14	2.969749e+14	6.747829e+13	5.465567e+03	2.630687e+03	1.703434e+03	0	5.311049e-04
1.600000e+08	5.419868e+12	0.000000e+00	7.151163e-01	1.048261e+14	2.856437e+14	6.711535e+13	5.454654e+03	2.615370e+03	1.693515e+03	0	5.283569e-04
1.700000e+08	5.337904e+12	0.000000e+00	7.151163e-01	1.034047e+14	2.754058e+14	6.675510e+13	5.443892e+03	2.601215e+03	1.684350e+03	0	5.256799e-04
1.800000e+08	5.258793e+12	0.000000e+00	7.151163e-01	1.020323e+14	2.661144e+14	6.639749e+13	5.433275e+03	2.588098e+03	1.675856e+03	0	5.230700e-04
1.900000e+08	5.182355e+12	0.000000e+00	7.151163e-01	1.007058e+14	2.576472e+14	6.604253e+13	5.422799e+03	2.575911e+03	1.667964e+03	0	5.205233e-04
2.000000e+08	5.108425e+12	0.000000e+00	7.151163e-01	9.942226e+13	2.499012e+14	6.569017e+13	5.412458e+03	2.564558e+03	1.660614e+03	0	5.180362e-04
2.100000e+08	5.036851e+12	0.000000e+00	7.151163e-01	9.817922e+13	2.427893e+14	6.534041e+13	5.402249e+03	2.553960e+03	1.653751e+03	0	5.156054e-04
2.200000e+08	4.967493e+12	0.000000e+00	7.151163e-01	9.697423e+13	2.362377e+14	6.499321e+13	5.392166e+03	2.544042e+03	1.647329e+03	0	5.132279e-04
2.300000e+08	4.900223e+12	0.000000e+00	7.151163e-01	9.580509e+13	2.301829e+14	6.464856e+13	5.382207e+03	2.534742e+03	1.641307e+03	0	5.109006e-04
2.400000e+08	4.834922e+12	0.000000e+00	7.151163e-01	9.466979e+13	2.245706e+14	6.430644e+13	5.372368e+03	2.526005e+03	1.635649e+03	0	5.086210e-04
2.500000e+08	4.771480e+12	0.000000e+00	7.151163e-01	9.356645e+13	2.193536e+14	6.396683e+13	5.362645e+03	2.517779e+03	1.630323e+03	0	5.063866e-04
2.600000e+08	4.709799e+12	0.000000e+00	7.151163e-01	9.249335e+13	2.144913e+14	6.362970e+13	5.353035e+03	2.510021e+03	1.625300e+03	0	5.041951e-04
2.700000e+08	4.649783e+12	0.000000e+00	7.151163e-01	9.144890e+13	2.099479e+14	6.329503e+13	5.343534e+03	2.502692e+03	1.620554e+03	0	5.020443e-04
2.800000e+08	4.591349e+12	0.000000e+00	7.151163e-01	9.043164e+13	2.056923e+14	6.296281e+13	5.334141e+03	2.495756e+03	1.616062e+03	0	4.999323e-04
2.900000e+08	4.534416e+12	0.000000e+00	7.151163e-01	8.944019e+13	2.016972e+14	6.263301e+13	5.324852e+03	2.489181e+03	1.611805e+03	0	4.978573e-04
3.000000e+08	4.478911e+12	0.000000e+00	7.151163e-01	8.847332e+13	1.979384e+14	6.230562e+13	5.315664e+03	2.482938e+03	1.607762e+03	0	4.958176e-04
3.100000e+08	4.424765e+12	0.000000e+00	7.151163e-01	8.752983e+13	1.943946e+14	6.198062e+13	5.306575e+03	2.477002e+03	1.603919e+03	0	4.938115e-04
3.200000e+08	4.371916e+12	0.000000e+00	7.151163e-01	8.660866e+13	1.910468e+14	6.165797e+13	5.297583e+03	2.471350e+03	1.600259e+03	0	4.918376e-04
3.300000e+08	4.320304e+12	0.000000e+00	7.151163e-01	8.570879e+13	1.878783e+14	6.133768e+13	5.288685e+03	2.465960e+03	1.596769e+03	0	4.898945e-04
3.400000e+08	4.269874e+12	0.000000e+00	7.151163e-01	8.482928e+13	1.848739e+14	6.101971e+13	5.279879e+03	2.460812e+03	1.593436e+03	0	4.879809e-04
3.500000e+08	4.220576e+12	0.000000e+00	7.151163e-01	8.396926e+13	1.820201e+14	6.070404e+13	5.271163e+03	2.455891e+03	1.590249e+03	0	4.860956e-04
3.600000e+08	4.172361e+12	0.000000e+00	7.151163e-01	8.312789e+13	1.793050e+14	6.039067e+13	5.262536e+03	2.451178e+03	1.587197e+03	0	4.842375e-04
3.700000e+08	4.125184e+12	0.000000e+00	7.151163e-01	8.230443e+13	1.767177e+14	6.007956e+13	5.253994e+03	2.446661e+03	1.584272e+03	0	4.824055e-04
3.800000e+08	4.079005e+12	0.000000e+00	7.151163e-01	8.149814e+13	1.742483e+14	5.977071e+13	5.245537e+03	2.442325e+03	1.581465e+03	0	4.805986e-04
3.900000e+08	4.033782e+12	0.000000e+00	7.151163e-01	8.070836e+13	1.718879e+14	5.946409e+13	5.237163e+03	2.438159e+03	1.578767e+03	0	4.788160e-04
4.000000e+08	3.989481e+12	0.000000e+00	7.151163e-01	7.993445e+13	1.696287e+14	5.915968e+13	5.228869e+03	2.434150e+03	1.576171e+03	0	4.770566e-04
4.100000e+08	3.946066e+12	0.000000e+00	7.151163e-01	7.917582e+13	1.674633e+14	5.885747e+13	5.220655e+03	2.430289e+03	1.573671e+03	0	4.753198e-04
4.200000e+08	3.903504e+12	0.000000e+00	7.151163e-01	7.843192e+13	1.653852e+14	5.855744e+13	5.212518e+03	2.426567e+03	1.571261e+03	0	4.736047e-04
4.300000e+08	3.861764e+12	0.000000e+00	7.151163e-01	7.770220e+13	1.633882e+14	5.825956e+13	5.204458e+03	2.422974e+03	1.568934e+03	0	4.719106e-04
4.400000e+08	3.820819e+12	0.000000e+00	7.151163e-01	7.698619e+13	1.614669e+14	5.796383e+13	5.196472e+03	2.419502e+03	1.566686e+03	0	4.702368e-04
4.500000e+08	3.780639e+12	0.000000e+00	7.151163e-01	7.628340e+13	1.596164e+14	5.767023e+13	5.188560e+03	2.416145e+03	1.564512e+03	0	4.685827e-04
4.600000e+08	3.741201e+12	0.000000e+00	7.151163e-01	7.559340e+13	1.578319e+14	5.737873e+13	5.180720e+03	2.412894e+03	1.562407e+03	0	4.669476e-04
4.700000e+08	3.702478e+12	0.000000e+00	7.151163e-01	7.491576e+13	1.561094e+14	5.708933e+13	5.172950e+03	2.409744e+03	1.560368e+03	0	4.653310e-04
4.800000e+08	3.664448e+12	0.000000e+00	7.151163e-01	7.425008e+13	1.544449e+14	5.680199e+13	5.165250e+03	2.406689e+03	1.558389e+03	0	4.637323e-04
4.900000e+08	3.627089e+12	0.000000e+00	7.151163e-01	7.359599e+13	1.528349e+14	5.651672e+13	5.157619e+03	2.403723e+03	1.556469e+03	0	4.621510e-04
5.000000e+08	3.590380e+12	0.000000e+00	7.151163e-01	7.295313e+13	1.512761e+14	5.623348e+13	5.150054e+03	2.400841e+03	1.554603e+03	0	4.605866e-04
5.100000e+08	3.554300e+12	0.000000e+00	7.151163e-01	7.232116e+13	1.497655e+14	5.595227e+13	5.142555e+03	2.398039e+03	1.552788e+03	0	4.590386e-04
5.200000e+08	3.518832e+12	0.000000e+00	7.151163e-01	7.169974e+13	1.483004e+14	5.567307e+13	5.135121e+03	2.395311e+03	1.551022e+03	0	4.575066e-04
5.300000e+08	3.483957e+12	0.000000e+00	7.151163e-01	7.108859e+13	1.468782e+14	5.539585e+13	5.127750e+03	2.392655e+03	1.549302e+03	0	4.559901e-04
5.400000e+08	3.449659e+12	0.000000e+00	7.151163e-01	7.048739e+13	1.454964e+14	5.512061e+13	5.120443e+03	2.390065e+03	1.547625e+03	0	4.544888e-04
5.500000e+08	3.415919e+12	0.000000e+00	7.151163e-01	6.989587e+13	1.441529e+14	5.484733e+13	5.113196e+03	2.387539e+03	1.545990e+03	0	4.530022e-04
5.600000e+08	3.382724e+12	0.000000e+00	7.151163e-01	6.931376e+13	1.428456e+14	5.457599e+13	5.106011e+03	2.385074e+03	1.544393e+03	0	4.515301e-04
5.700000e+08	3.350058e+12	0.000000e+00	7.151163e-01	6.874081e+13	1.415727e+14	5.430658e+13	5.098885e+03	2.382665e+03	1.542833e+03	0	4.500719e-04
5.800000e+08	3.317907e+12	0.000000e+00	7.151163e-01	6.817676e+13	1.403324e+14	5.403908e+13	5.091818e+03	2.380310e+03	1.541308e+03	0	4.486275e-04
5.900000e+08	3.286257e+12	0.000000e+00	7.151163e-01	6.762139e+13	1.391229e+14	5.377348e+13	5.084809e+03	2.378007e+03	1.539817e+03	0	4.471964e-04
6.000000e+08	3.255096e+12	0.000000e+00	7.151163e-01	6.707446e+13	1.379429e+14	5.350976e+13	5.077856e+03	2.375752e+03	1.538357e+03	0	4.457784e-04
6.100000e+08	3.224409e+12	0.000000e+00	7.151163e-01	6.653577e+13	1.367909e+14	5.324790e+13	5.070960e+03	2.373544e+03	1.536927e+03	0	4.443732e-04
6.200000e+08	3.194187e+12	0.000000e+00	7.151163e-01	6.600511e+13	1.356655e+14	5.298789e+13	5.064119e+03	2.371381e+03	1.535526e+03	0	4.429805e-04
6.300000e+08	3.164416e+12	0.000000e+00	7.151163e-01	6.548227e+13	1.345655e+14	5.272972e+13	5.057332e+03	2.369259e+03	1.534153e+03	0	4.415999e-04
6.400000e+08	3.135086e+12	0.000000e+00	7.151163e-01	6.496707e+13	1.334897e+14	5.247337e+13	5.050599e+03	2.367177e+03	1.532805e+03	0	4.402314e-04
6.500000e+08	3.106187e+12	0.000000e+00	7.151163e-01	6.445932e+13	1.324371e+14	5.221882e+13	5.043919e+03	2.365134e+03	1.531482e+03	0	4.388745e-04
6.600000e+08	3.077708e+12	0.000000e+00	7.151163e-01	6.395884e+13	1.314067e+14	5.196607e+13	5.037291e+03	2.363127e+03	1.530182e+03	0	4.375291e-04
6.700000e+08	3.049638e+12	0.000000e+00	7.151163e-01	6.346547e+13	1.303974e+14	5.171509e+13	5.030715e+03	2.361156e+03	1.528905e+03	0	4.361949e-04
6.800000e+08	3.021969e+12	0.000000e+00	7.151163e-01	6.297905e+13	1.294084e+14	5.146588e+13	5.024188e+03	2.359217e+03	1.527650e+03	0	4.348717e-04
6.900000e+08	2.994692e+12	0.000000e+00	7.151163e-01	6.249941e+13	1.284388e+14	5.121841e+13	5.017712e+03	2.357311e+03	1.526416e+03	0	4.335593e-04
7.000000e+08	2.967797e+12	0.000000e+00	7.151163e-01	6.202640e+13	1.274878e+14	5.097268e+13	5.011285e+03	2.355434e+03	1.525201e+03	0	4.322575e-04
7.100000e+08	2.941276e+12	0.000000e+00	7.151163e-01	6.155987e+13	1.265548e+14	5.072867e+13	5.004907e+03	2.353588e+03	1.524005e+03	0	4.309661e-04
7.200000e+08	2.915121e+12	0.000000e+00	7.151163e-01	6.109969e+13	1.256389e+14	5.048636e+13	4.998576e+03	2.351769e+03	1.522827e+03	0	4.296848e-04
7.300000e+08	2.889324e+12	0.000000e+00	7.151163e-01	6.064571e+13	1.247396e+14	5.024575e+13	4.992292e+03	2.349977e+03	1.521667e+03	0	4.284136e-04
7.400000e+08	2.863877e+12	0.000000e+00	7.151163e-01	6.019780e+13	1.238562e+14	5.000682e+13	4.986056e+03	2.348211e+03	1.520524e+03	0	4.271521e-04
7.500000e+08	2.838772e+12	0.000000e+00	7.151163e-01	5.975584e+13	1.229881e+14	4.976955e+13	4.979865e+03	2.346470e+03	1.519396e+03	0	4.259003e-04
7.600000e+08	2.814003e+12	0.000000e+00	7.151163e-01	5.931970e+13	1.221347e+14	4.953394e+13	4.973719e+03	2.344752e+03	1.518284e+03	0	4.246580e-04
7.700000e+08	2.789563e+12	0.000000e+00	7.151163e-01	5.888926e+13	1.212956e+14	4.929996e+13	4.967618e+03	2.343058e+03	1.517187e+03	0	4.234250e-04
7.800000e+08	2.765444e+12	0.000000e+00	7.151163e-01	5.846440e+13	1.204703e+14	4.906761e+13	4.961561e+03	2.341385e+03	1.516104e+03	0	4.222012e-04
7.900000e+08	2.741640e+12	0.000000e+00	7.151163e-01	5.804502e+13	1.196582e+14	4.883688e+13	4.955548e+03	2.339734e+03	1.515034e+03	0	4.209863e-04
8.000000e+08	2.718145e+12	0.000000e+00	7.151163e-01	5.763099e+13	1.188589e+14	4.860775e+13	4.949578e+03	2.338103e+03	1.513978e+03	0	4.197803e-04
8.100000e+08	2.694953e+12	0.000000e+00	7.151163e-01	5.722222e+13	1.180720e+14	4.838020e+13	4.943651e+03	2.336491e+03	1.512935e+03	0	4.185830e-04
8.200000e+08	2.672058e+12	0.000000e+00	7.151163e-01	5.681860e+13	1.172971e+14	4.815423e+13	4.937765e+03	2.334899e+03	1.511904e+03	0	4.173942e-04
8.300000e+08	2.649453e+12	0.000000e+00	7.151163e-01	5.642004e+13	1.165339e+14	4.792982e+13	4.931921e+03	2.333325e+03	1.510885e+03	0	4.162139e-04
8.400000e+08	2.627134e+12	0.000000e+00	7.151163e-01	5.602643e+13	1.157818e+14	4.770696e+13	4.926117e+03	2.331769e+03	1.509877e+03	0	4.150418e-04
8.500000e+08	2.605095e+12	0.000000e+00	7.151163e-01	5.563768e+13	1.150407e+14	4.748564e+13	4.920354e+03	2.330230e+03	1.508880e+03	0	4.138780e-04
8.600000e+08	2.583330e+12	0.000000e+00	7.151163e-01	5.525370e+13	1.143102e+14	4.726584e+13	4.914631e+03	2.328707e+03	1.507894e+03	0	4.127221e-04
8.700000e+08	2.561835e+12	0.000000e+00	7.151163e-01	5.487440e+13	1.135899e+14	4.704756e+13	4.908948e+03	2.327201e+03	1.506919e+03	0	4.115742e-04
8.800000e+08	2.540604e+12	0.000000e+00	7.151163e-01	5.449970e+13	1.128796e+14	4.683078e+13	4.903303e+03	2.325710e+03	1.505953e+03	0	4.104341e-04
8.900000e+08	2.519632e+12	0.000000e+00	7.151163e-01	5.412950e+13	1.121790e+14	4.661549e+13	4.897697e+03	2.324233e+03	1.504997e+03	0	4.093017e-04
9.000000e+08	2.498915e+12	0.000000e+00	7.151163e-01	5.376374e+13	1.114878e+14	4.640167e+13	4.892128e+03	2.322772e+03	1.504051e+03	0	4.081768e-04
9.100000e+08	2.478448e+12	0.000000e+00	7.151163e-01	5.340232e+13	1.108058e+14	4.618932e+13	4.886598e+03	2.321324e+03	1.503114e+03	0	4.070594e-04
9.200000e+08	2.458227e+12	0.000000e+00	7.151163e-01	5.304517e+13	1.101327e+14	4.597843e+13	4.881104e+03	2.319890e+03	1.502185e+03	0	4.059493e-04
9.300000e+08	2.438247e+12	0.000000e+00	7.151163e-01	5.269221e+13	1.094682e+14	4.576898e+13	4.875647e+03	2.318470e+03	1.501265e+03	0	4.048465e-04
9.400000e+08	2.418504e+12	0.000000e+00	7.151163e-01	5.234338e+13	1.088122e+14	4.556096e+13	4.870226e+03	2.317062e+03	1.500354e+03	0	4.037508e-04
9.500000e+08	2.398994e+12	0.000000e+00	7.151163e-01	5.199859e+13	1.081645e+14	4.535436e+13	4.864841e+03	2.315667e+03	1.499450e+03	0	4.026622e-04
9.600000e+08	2.379712e+12	0.000000e+00	7.151163e-01	5.165778e+13	1.075247e+14	4.514916e+13	4.859492e+03	2.314284e+03	1.498555e+03	0	4.015805e-04
9.700000e+08	2.360655e+12	0.000000e+00	7.151163e-01	5.132089e+13	1.068928e+14	4.494537e+13	4.854177e+03	2.312913e+03	1.497667e+03	0	4.005057e-04
9.800000e+08	2.341820e+12	0.000000e+00	7.151163e-01	5.098783e+13	1.062686e+14	4.474296e+13	4.848897e+03	2.311553e+03	1.496787e+03	0	3.994376e-04
9.900000e+08	2.323201e+12	0.000000e+00	7.151163e-01	5.065856e+13	1.056518e+14	4.454193e+13	4.843651e+03	2.310205e+03	1.495914e+03	0	3.983762e-04
1.000000e+09	2.304796e+12	0.000000e+00	7.151163e-01	5.033300e+13	1.050423e+14	4.434226e+13	4.838439e+03	2.308867e+03	1.495048e+03	0	3.973214e-04
1.010000e+09	2.286600e+12	0.000000e+00	7.151163e-01	5.001109e+13	1.044399e+14	4.414395e+13	4.833261e+03	2.307540e+03	1.494188e+03	0	3.962731e-04
1.020000e+09	2.268611e+12	0.000000e+00	7.151163e-01	4.969278e+13	1.038444e+14	4.394698e+13	4.828115e+03	2.306224e+03	1.493336e+03	0	3.952311e-04
1.030000e+09	2.250825e+12	0.000000e+00	7.151163e-01	4.937800e+13	1.032558e+14	4.375134e+13	4.823003e+03	2.304918e+03	1.492490e+03	0	3.941955e-04
1.040000e+09	2.233239e+12	0.000000e+00	7.151163e-01	4.906669e+13	1.026738e+14	4.355703e+13	4.817922e+03	2.303621e+03	1.491651e+03	0	3.931662e-04
1.050000e+09	2.215849e+12	0.000000e+00	7.151163e-01	4.875880e+13	1.020983e+14	4.336403e+13	4.812873e+03	2.302334e+03	1.490817e+03	0	3.921430e-04
1.060000e+09	2.198652e+12	0.000000e+00	7.151163e-01	4.845428e+13	1.015292e+14	4.317233e+13	4.807856e+03	2.301057e+03	1.489990e+03	0	3.911259e-04
1.070000e+09	2.181645e+12	0.000000e+00	7.151163e-01	4.815307e+13	1.009663e+14	4.298192e+13	4.802871e+03	2.299789e+03	1.489169e+03	0	3.901149e-04
1.080000e+09	2.164825e+12	0.000000e+00	7.151163e-01	4.785512e+13	1.004096e+14	4.279279e+13	4.797916e+03	2.298530e+03	1.488354e+03	0	3.891097e-04
1.090000e+09	2.148189e+12	0.000000e+00	7.151163e-01	4.756037e+13	9.985880e+13	4.260493e+13	4.792992e+03	2.297280e+03	1.487544e+03	0	3.881104e-04
1.100000e+09	2.131735e+12	0.000000e+00	7.151163e-01	4.726878e+13	9.931389e+13	4.241834e+13	4.788098e+03	2.296038e+03	1.486740e+03	0	3.871169e-04
1.110000e+09	2.115458e+12	0.000000e+00	7.151163e-01	4.698029e+13	9.877473e+13	4.223299e+13	4.783234e+03	2.294805e+03	1.485942e+03	0	3.861292e-04
1.120000e+09	2.099357e+12	0.000000e+00	7.151163e-01	4.669486e+13	9.824120e+13	4.204889e+13	4.778400e+03	2.293580e+03	1.485148e+03	0	3.851471e-04
1.130000e+09	2.083429e+12	0.000000e+00	7.151163e-01	4.641245e+13	9.771321e+13	4.186602e+13	4.773595e+03	2.292363e+03	1.484360e+03	0	3.841705e-04
1.140000e+09	2.067671e+12	0.000000e+00	7.151163e-01	4.613300e+13	9.719064e+13	4.168438e+13	4.768819e+03	2.291154e+03	1.483578e+03	0	3.831995e-04
1.150000e+09	2.052081e+12	0.000000e+00	7.151163e-01	4.585646e+13	9.667340e+13	4.150394e+13	4.764071e+03	2.289953e+03	1.482800e+03	0	3.822340e-04
1.160000e+09	2.036655e+12	0.000000e+00	7.151163e-01	4.558281e+13	9.616138e+13	4.132471e+13	4.759352e+03	2.288759e+03	1.482027e+03	0	3.812738e-04
1.170000e+09	2.021392e+12	0.000000e+00	7.151163e-01	4.531198e+13	9.565450e+13	4.114667e+13	4.754662e+03	2.287573e+03	1.481259e+03	0	3.803190e-04
1.180000e+09	2.006289e+12	0.000000e+00	7.151163e-01	4.504395e+13	9.515266e+13	4.096982e+13	4.749999e+03	2.286394e+03	1.480496e+03	0	3.793694e-04
1.190000e+09	1.991343e+12	0.000000e+00	7.151163e-01	4.477866e+13	9.465578e+13	4.079414e+13	4.745363e+03	2.285223e+03	1.479737e+03	0	3.784250e-04
1.200000e+09	1.976553e+12	0.000000e+00	7.151163e-01	4.451608e+13	9.416375e+13	4.061963e+13	4.740755e+03	2.284059e+03	1.478983e+03	0	3.774858e-04
1.210000e+09	1.961915e+12	0.000000e+00	7.151163e-01	4.425617e+13	9.367652e+13	4.044628e+13	4.736174e+03	2.282901e+03	1.478234e+03	0	3.765516e-04
1.220000e+09	1.947428e+12	0.000000e+00	7.151163e-01	4.399889e+13	9.319398e+13	4.027407e+13	4.731619e+03	2.281751e+03	1.477489e+03	0	3.756225e-04
1.230000e+09	1.933090e+12	0.000000e+00	7.151163e-01	4.374420e+13	9.271607e+13	4.010301e+13	4.727091e+03	2.280607e+03	1.476748e+03	0	3.746984e-04
1.240000e+09	1.918898e+12	0.000000e+00	7.151163e-01	4.349206e+13	9.224271e+13	3.993307e+13	4.722589e+03	2.279469e+03	1.476012e+03	0	3.737791e-04
1.250000e+09	1.904850e+12	0.000000e+00	7.151163e-01	4.324243e+13	9.177381e+13	3.976426e+13	4.718113e+03	2.278339e+03	1.475279e+03	0	3.728648e-04
1.260000e+09	1.890944e+12	0.000000e+00	7.151163e-01	4.299529e+13	9.130932e+13	3.959656e+13	4.713662e+03	2.277214e+03	1.474551e+03	0	3.719552e-04
1.270000e+09	1.877178e+12	0.000000e+00	7.151163e-01	4.275059e+13	9.084916e+13	3.942997e+13	4.709237e+03	2.276096e+03	1.473827e+03	0	3.710504e-04
1.280000e+09	1.863550e+12	0.000000e+00	7.151163e-01	4.250829e+13	9.039326e+13	3.926447e+13	4.704837e+03	2.274984e+03	1.473107e+03	0	3.701503e-04
1.290000e+09	1.850058e+12	0.000000e+00	7.151163e-01	4.226838e+13	8.994156e+13	3.910006e+13	4.700462e+03	2.273878e+03	1.472391e+03	0	3.692549e-04
1.300000e+09	1.836700e+12	0.000000e+00	7.151163e-01	4.203080e+13	8.949399e+13	3.893672e+13	4.696112e+03	2.272779e+03	1.471679e+03	0	3.683640e-04
1.310000e+09	1.823475e+12	0.000000e+00	7.151163e-01	4.179554e+13	8.905048e+13	3.877446e+13	4.691786e+03	2.271685e+03	1.470971e+03	0	3.674778e-04
1.320000e+09	1.810380e+12	0.000000e+00	7.151163e-01	4.156255e+13	8.861098e+13	3.861326e+13	4.687484e+03	2.270597e+03	1.470266e+03	0	3.665960e-04
1.330000e+09	1.797413e+12	0.000000e+00	7.151163e-01	4.133181e+13	8.817543e+13	3.845312e+13	4.683206e+03	2.269514e+03	1.469565e+03	0	3.657186e-04
1.340000e+09	1.784573e+12	0.000000e+00	7.151163e-01	4.110328e+13	8.774376e+13	3.829402e+13	4.678952e+03	2.268438e+03	1.468868e+03	0	3.648457e-04
1.350000e+09	1.771859e+12	0.000000e+00	7.151163e-01	4.087693e+13	8.731593e+13	3.813596e+13	4.674721e+03	2.267367e+03	1.468175e+03	0	3.639772e-04
1.360000e+09	1.759267e+12	0.000000e+00	7.151163e-01	4.065274e+13	8.689187e+13	3.797893e+13	4.670514e+03	2.266301e+03	1.467485e+03	0	3.631129e-04
