#t		Qconv[W]	Ri[Rp]		R*[Rp]		Qc[W]		Qm[W]		Qr[W]		Tcmb[K]		Tl[K]		Tup[K]		RiFlag		Bs[T]
0.000000e+00	1.971000e+14	0.000000e+00	7.093026e-01	2.356782e+15	2.873704e+15	1.448852e+14	1.166190e+04	5.077552e+03	2.289892e+03	0	1.690741e-03
1.000000e+07	1.898512e+14	0.000000e+00	7.093026e-01	2.273288e+15	2.766507e+15	1.440824e+14	1.155877e+04	5.052151e+03	2.278437e+03	0	1.669755e-03
2.000000e+07	1.830112e+14	0.000000e+00	7.093026e-01	2.194483e+15	2.667563e+15	1.432857e+14	1.145926e+04	5.028239e+03	2.267653e+03	0	1.649456e-03
3.000000e+07	1.765493e+14	0.000000e+00	7.093026e-01	2.120014e+15	2.575700e+15	1.424949e+14	1.136316e+04	5.005585e+03	2.257437e+03	0	1.629810e-03
4.000000e+07	1.704375e+14	0.000000e+00	7.093026e-01	2.049559e+15	2.490002e+15	1.417099e+14	1.127029e+04	4.984014e+03	2.247708e+03	0	1.610781e-03
5.000000e+07	1.646504e+14	0.000000e+00	7.093026e-01	1.982830e+15	2.409734e+15	1.409309e+14	1.118047e+04	4.963384e+03	2.238405e+03	0	1.592340e-03
6.000000e+07	1.591649e+14	0.000000e+00	7.093026e-01	1.919560e+15	2.334300e+15	1.401576e+14	1.109355e+04	4.943588e+03	2.229477e+03	0	1.574456e-03
7.000000e+07	1.539599e+14	0.000000e+00	7.093026e-01	1.859509e+15	2.263207e+15	1.393902e+14	1.100937e+04	4.924536e+03	2.220885e+03	0	1.557103e-03
8.000000e+07	1.490162e+14	0.000000e+00	7.093026e-01	1.802457e+15	2.196040e+15	1.386284e+14	1.092780e+04	4.906155e+03	2.212595e+03	0	1.540255e-03
9.000000e+07	1.443161e+14	0.000000e+00	7.093026e-01	1.748201e+15	2.132450e+15	1.378723e+14	1.084871e+04	4.888388e+03	2.204583e+03	0	1.523888e-03
1.000000e+08	1.398436e+14	0.000000e+00	7.093026e-01	1.696558e+15	2.072134e+15	1.371218e+14	1.077198e+04	4.871184e+03	2.196824e+03	0	1.507980e-03
1.100000e+08	1.355837e+14	0.000000e+00	7.093026e-01	1.647357e+15	2.014829e+15	1.363768e+14	1.069749e+04	4.854500e+03	2.189300e+03	0	1.492510e-03
1.200000e+08	1.315230e+14	0.000000e+00	7.093026e-01	1.600443e+15	1.960305e+15	1.356374e+14	1.062515e+04	4.838301e+03	2.181994e+03	0	1.477459e-03
1.300000e+08	1.276489e+14	0.000000e+00	7.093026e-01	1.555672e+15	1.908358e+15	1.349035e+14	1.055484e+04	4.822556e+03	2.174894e+03	0	1.462808e-03
1.400000e+08	1.239499e+14	0.000000e+00	7.093026e-01	1.512912e+15	1.858806e+15	1.341750e+14	1.048649e+04	4.807237e+03	2.167985e+03	0	1.448539e-03
1.500000e+08	1.204152e+14	0.000000e+00	7.093026e-01	1.472041e+15	1.811487e+15	1.334519e+14	1.042000e+04	4.792321e+03	2.161258e+03	0	1.434637e-03
1.600000e+08	1.170352e+14	0.000000e+00	7.093026e-01	1.432947e+15	1.766254e+15	1.327341e+14	1.035529e+04	4.777784e+03	2.154702e+03	0	1.421086e-03
1.700000e+08	1.138006e+14	0.000000e+00	7.093026e-01	1.395524e+15	1.722972e+15	1.320216e+14	1.029228e+04	4.763608e+03	2.148309e+03	0	1.407871e-03
1.800000e+08	1.107030e+14	0.000000e+00	7.093026e-01	1.359677e+15	1.681522e+15	1.313144e+14	1.023091e+04	4.749776e+03	2.142071e+03	0	1.394980e-03
1.900000e+08	1.077346e+14	0.000000e+00	7.093026e-01	1.325315e+15	1.641791e+15	1.306123e+14	1.017110e+04	4.736271e+03	2.135980e+03	0	1.382399e-03
2.000000e+08	1.048881e+14	0.000000e+00	7.093026e-01	1.292355e+15	1.603679e+15	1.299155e+14	1.011279e+04	4.723079e+03	2.130031e+03	0	1.370115e-03
2.100000e+08	1.021568e+14	0.000000e+00	7.093026e-01	1.260719e+15	1.567092e+15	1.292238e+14	1.005592e+04	4.710186e+03	2.124217e+03	0	1.358117e-03
2.200000e+08	9.953438e+13	0.000000e+00	7.093026e-01	1.230336e+15	1.531943e+15	1.285371e+14	1.000043e+04	4.697580e+03	2.118531e+03	0	1.346395e-03
2.300000e+08	9.701495e+13	0.000000e+00	7.093026e-01	1.201138e+15	1.498153e+15	1.278555e+14	9.946262e+03	4.685249e+03	2.112970e+03	0	1.334938e-03
2.400000e+08	9.459304e+13	0.000000e+00	7.093026e-01	1.173062e+15	1.465648e+15	1.271789e+14	9.893374e+03	4.673182e+03	2.107528e+03	0	1.323736e-03
2.500000e+08	9.226357e+13	0.000000e+00	7.093026e-01	1.146049e+15	1.434359e+15	1.265072e+14	9.841714e+03	4.661369e+03	2.102201e+03	0	1.312779e-03
2.600000e+08	9.002175e+13	0.000000e+00	7.093026e-01	1.120046e+15	1.404223e+15	1.258405e+14	9.791234e+03	4.649800e+03	2.096983e+03	0	1.302059e-03
2.700000e+08	8.786312e+13	0.000000e+00	7.093026e-01	1.095001e+15	1.375180e+15	1.251786e+14	9.741891e+03	4.638467e+03	2.091872e+03	0	1.291567e-03
2.800000e+08	8.578351e+13	0.000000e+00	7.093026e-01	1.070865e+15	1.347174e+15	1.245216e+14	9.693644e+03	4.627361e+03	2.086864e+03	0	1.281296e-03
2.900000e+08	8.377900e+13	0.000000e+00	7.093026e-01	1.047595e+15	1.320154e+15	1.238694e+14	9.646453e+03	4.616475e+03	2.081954e+03	0	1.271237e-03
3.000000e+08	8.184590e+13	0.000000e+00	7.093026e-01	1.025146e+15	1.294072e+15	1.232219e+14	9.600280e+03	4.605799e+03	2.077140e+03	0	1.261384e-03
3.100000e+08	7.998078e+13	0.000000e+00	7.093026e-01	1.003481e+15	1.268881e+15	1.225791e+14	9.555090e+03	4.595328e+03	2.072418e+03	0	1.251728e-03
3.200000e+08	7.818039e+13	0.000000e+00	7.093026e-01	9.825623e+14	1.244540e+15	1.219410e+14	9.510849e+03	4.585055e+03	2.067784e+03	0	1.242265e-03
3.300000e+08	7.644168e+13	0.000000e+00	7.093026e-01	9.623540e+14	1.221008e+15	1.213076e+14	9.467523e+03	4.574973e+03	2.063238e+03	0	1.232986e-03
3.400000e+08	7.476179e+13	0.000000e+00	7.093026e-01	9.428236e+14	1.198247e+15	1.206787e+14	9.425083e+03	4.565076e+03	2.058774e+03	0	1.223887e-03
3.500000e+08	7.313802e+13	0.000000e+00	7.093026e-01	9.239402e+14	1.176224e+15	1.200544e+14	9.383498e+03	4.555358e+03	2.054391e+03	0	1.214962e-03
3.600000e+08	7.156782e+13	0.000000e+00	7.093026e-01	9.056744e+14	1.154903e+15	1.194347e+14	9.342741e+03	4.545813e+03	2.050087e+03	0	1.206204e-03
3.700000e+08	7.004879e+13	0.000000e+00	7.093026e-01	8.879987e+14	1.134255e+15	1.188194e+14	9.302785e+03	4.536436e+03	2.045858e+03	0	1.197609e-03
3.800000e+08	6.857866e+13	0.000000e+00	7.093026e-01	8.708871e+14	1.114248e+15	1.182086e+14	9.263603e+03	4.527223e+03	2.041703e+03	0	1.189172e-03
3.900000e+08	6.715530e+13	0.000000e+00	7.093026e-01	8.543150e+14	1.094857e+15	1.176022e+14	9.225172e+03	4.518168e+03	2.037619e+03	0	1.180887e-03
4.000000e+08	6.577668e+13	0.000000e+00	7.093026e-01	8.382591e+14	1.076053e+15	1.170001e+14	9.187468e+03	4.509266e+03	2.033605e+03	0	1.172750e-03
4.100000e+08	6.444089e+13	0.000000e+00	7.093026e-01	8.226974e+14	1.057812e+15	1.164025e+14	9.150467e+03	4.500513e+03	2.029657e+03	0	1.164757e-03
4.200000e+08	6.314612e+13	0.000000e+00	7.093026e-01	8.076092e+14	1.040111e+15	1.158091e+14	9.114150e+03	4.491905e+03	2.025775e+03	0	1.156903e-03
4.300000e+08	6.189066e+13	0.000000e+00	7.093026e-01	7.929748e+14	1.022927e+15	1.152200e+14	9.078495e+03	4.483437e+03	2.021956e+03	0	1.149185e-03
4.400000e+08	6.067288e+13	0.000000e+00	7.093026e-01	7.787754e+14	1.006239e+15	1.146351e+14	9.043482e+03	4.475106e+03	2.018199e+03	0	1.141598e-03
4.500000e+08	5.949124e+13	0.000000e+00	7.093026e-01	7.649933e+14	9.900268e+14	1.140544e+14	9.009092e+03	4.466908e+03	2.014502e+03	0	1.134138e-03
4.600000e+08	5.834428e+13	0.000000e+00	7.093026e-01	7.516119e+14	9.742718e+14	1.134780e+14	8.975308e+03	4.458839e+03	2.010863e+03	0	1.126802e-03
4.700000e+08	5.723062e+13	0.000000e+00	7.093026e-01	7.386150e+14	9.589558e+14	1.129056e+14	8.942111e+03	4.450896e+03	2.007281e+03	0	1.119587e-03
4.800000e+08	5.614894e+13	0.000000e+00	7.093026e-01	7.259876e+14	9.440616e+14	1.123373e+14	8.909485e+03	4.443075e+03	2.003754e+03	0	1.112488e-03
4.900000e+08	5.509799e+13	0.000000e+00	7.093026e-01	7.137153e+14	9.295729e+14	1.117732e+14	8.877413e+03	4.435373e+03	2.000280e+03	0	1.105503e-03
5.000000e+08	5.407657e+13	0.000000e+00	7.093026e-01	7.017843e+14	9.154743e+14	1.112130e+14	8.845881e+03	4.427787e+03	1.996859e+03	0	1.098629e-03
5.100000e+08	5.308356e+13	0.000000e+00	7.093026e-01	6.901818e+14	9.017509e+14	1.106568e+14	8.814873e+03	4.420314e+03	1.993489e+03	0	1.091863e-03
5.200000e+08	5.211787e+13	0.000000e+00	7.093026e-01	6.788951e+14	8.883888e+14	1.101047e+14	8.784375e+03	4.412951e+03	1.990168e+03	0	1.085202e-03
5.300000e+08	5.117849e+13	0.000000e+00	7.093026e-01	6.679126e+14	8.753746e+14	1.095564e+14	8.754373e+03	4.405695e+03	1.986896e+03	0	1.078642e-03
5.400000e+08	5.026444e+13	0.000000e+00	7.093026e-01	6.572231e+14	8.626955e+14	1.090121e+14	8.724854e+03	4.398543e+03	1.983671e+03	0	1.072182e-03
5.500000e+08	4.937478e+13	0.000000e+00	7.093026e-01	6.468156e+14	8.503394e+14	1.084716e+14	8.695804e+03	4.391493e+03	1.980491e+03	0	1.065818e-03
5.600000e+08	4.850862e+13	0.000000e+00	7.093026e-01	6.366801e+14	8.382948e+14	1.079350e+14	8.667213e+03	4.384543e+03	1.977357e+03	0	1.059549e-03
5.700000e+08	4.766512e+13	0.000000e+00	7.093026e-01	6.268068e+14	8.265506e+14	1.074022e+14	8.639067e+03	4.377690e+03	1.974266e+03	0	1.053372e-03
5.800000e+08	4.684347e+13	0.000000e+00	7.093026e-01	6.171864e+14	8.150962e+14	1.068731e+14	8.611355e+03	4.370931e+03	1.971218e+03	0	1.047284e-03
5.900000e+08	4.604290e+13	0.000000e+00	7.093026e-01	6.078099e+14	8.039216e+14	1.063478e+14	8.584067e+03	4.364265e+03	1.968212e+03	0	1.041284e-03
6.000000e+08	4.526266e+13	0.000000e+00	7.093026e-01	5.986688e+14	7.930171e+14	1.058263e+14	8.557191e+03	4.357688e+03	1.965246e+03	0	1.035368e-03
6.100000e+08	4.450205e+13	0.000000e+00	7.093026e-01	5.897551e+14	7.823735e+14	1.053084e+14	8.530717e+03	4.351200e+03	1.962320e+03	0	1.029536e-03
6.200000e+08	4.376040e+13	0.000000e+00	7.093026e-01	5.810609e+14	7.719820e+14	1.047942e+14	8.504635e+03	4.344797e+03	1.959432e+03	0	1.023785e-03
6.300000e+08	4.303705e+13	0.000000e+00	7.093026e-01	5.725788e+14	7.618342e+14	1.042836e+14	8.478936e+03	4.338479e+03	1.956583e+03	0	1.018112e-03
6.400000e+08	4.233141e+13	0.000000e+00	7.093026e-01	5.643016e+14	7.519220e+14	1.037766e+14	8.453611e+03	4.332243e+03	1.953770e+03	0	1.012517e-03
6.500000e+08	4.164286e+13	0.000000e+00	7.093026e-01	5.562227e+14	7.422377e+14	1.032732e+14	8.428649e+03	4.326087e+03	1.950994e+03	0	1.006997e-03
6.600000e+08	4.097084e+13	0.000000e+00	7.093026e-01	5.483353e+14	7.327738e+14	1.027733e+14	8.404044e+03	4.320009e+03	1.948253e+03	0	1.001551e-03
6.700000e+08	4.031482e+13	0.000000e+00	7.093026e-01	5.406333e+14	7.235233e+14	1.022770e+14	8.379786e+03	4.314008e+03	1.945546e+03	0	9.961768e-04
6.800000e+08	3.967427e+13	0.000000e+00	7.093026e-01	5.331107e+14	7.144794e+14	1.017841e+14	8.355866e+03	4.308081e+03	1.942874e+03	0	9.908726e-04
6.900000e+08	3.904869e+13	0.000000e+00	7.093026e-01	5.257616e+14	7.056355e+14	1.012947e+14	8.332279e+03	4.302228e+03	1.940234e+03	0	9.856370e-04
7.000000e+08	3.843760e+13	0.000000e+00	7.093026e-01	5.185807e+14	6.969854e+14	1.008087e+14	8.309015e+03	4.296447e+03	1.937627e+03	0	9.804684e-04
7.100000e+08	3.784055e+13	0.000000e+00	7.093026e-01	5.115625e+14	6.885231e+14	1.003261e+14	8.286067e+03	4.290736e+03	1.935051e+03	0	9.753653e-04
7.200000e+08	3.725708e+13	0.000000e+00	7.093026e-01	5.047020e+14	6.802427e+14	9.984691e+13	8.263428e+03	4.285094e+03	1.932507e+03	0	9.703263e-04
7.300000e+08	3.668679e+13	0.000000e+00	7.093026e-01	4.979943e+14	6.721388e+14	9.937105e+13	8.241092e+03	4.279519e+03	1.929993e+03	0	9.653499e-04
7.400000e+08	3.612926e+13	0.000000e+00	7.093026e-01	4.914347e+14	6.642059e+14	9.889851e+13	8.219051e+03	4.274010e+03	1.927508e+03	0	9.604348e-04
7.500000e+08	3.558410e+13	0.000000e+00	7.093026e-01	4.850187e+14	6.564391e+14	9.842927e+13	8.197299e+03	4.268565e+03	1.925052e+03	0	9.555796e-04
7.600000e+08	3.505093e+13	0.000000e+00	7.093026e-01	4.787420e+14	6.488332e+14	9.796330e+13	8.175830e+03	4.263183e+03	1.922625e+03	0	9.507830e-04
7.700000e+08	3.452940e+13	0.000000e+00	7.093026e-01	4.726003e+14	6.413837e+14	9.750057e+13	8.154638e+03	4.257863e+03	1.920226e+03	0	9.460437e-04
7.800000e+08	3.401916e+13	0.000000e+00	7.093026e-01	4.665897e+14	6.340860e+14	9.704105e+13	8.133716e+03	4.252604e+03	1.917854e+03	0	9.413606e-04
7.900000e+08	3.351986e+13	0.000000e+00	7.093026e-01	4.607063e+14	6.269356e+14	9.658473e+13	8.113059e+03	4.247404e+03	1.915509e+03	0	9.367325e-04
8.000000e+08	3.303120e+13	0.000000e+00	7.093026e-01	4.549464e+14	6.199283e+14	9.613157e+13	8.092662e+03	4.242262e+03	1.913191e+03	0	9.321582e-04
8.100000e+08	3.255285e+13	0.000000e+00	7.093026e-01	4.493064e+14	6.130600e+14	9.568155e+13	8.072519e+03	4.237178e+03	1.910898e+03	0	9.276366e-04
8.200000e+08	3.208452e+13	0.000000e+00	7.093026e-01	4.437829e+14	6.063269e+14	9.523465e+13	8.052624e+03	4.232149e+03	1.908630e+03	0	9.231665e-04
8.300000e+08	3.162593e+13	0.000000e+00	7.093026e-01	4.383725e+14	5.997251e+14	9.479083e+13	8.032973e+03	4.227175e+03	1.906387e+03	0	9.187471e-04
8.400000e+08	3.117679e+13	0.000000e+00	7.093026e-01	4.330720e+14	5.932510e+14	9.435008e+13	8.013560e+03	4.222255e+03	1.904168e+03	0	9.143771e-04
8.500000e+08	3.073685e+13	0.000000e+00	7.093026e-01	4.278784e+14	5.869011e+14	9.391238e+13	7.994381e+03	4.217388e+03	1.901973e+03	0	9.100556e-04
8.600000e+08	3.030583e+13	0.000000e+00	7.093026e-01	4.227886e+14	5.806720e+14	9.347769e+13	7.975432e+03	4.212572e+03	1.899801e+03	0	9.057817e-04
8.700000e+08	2.988349e+13	0.000000e+00	7.093026e-01	4.177998e+14	5.745604e+14	9.304599e+13	7.956707e+03	4.207807e+03	1.897652e+03	0	9.015545e-04
8.800000e+08	2.946960e+13	0.000000e+00	7.093026e-01	4.129092e+14	5.685631e+14	9.261726e+13	7.938202e+03	4.203092e+03	1.895525e+03	0	8.973728e-04
8.900000e+08	2.906391e+13	0.000000e+00	7.093026e-01	4.081142e+14	5.626771e+14	9.219148e+13	7.919912e+03	4.198426e+03	1.893421e+03	0	8.932360e-04
9.000000e+08	2.866622e+13	0.000000e+00	7.093026e-01	4.034121e+14	5.568995e+14	9.176861e+13	7.901835e+03	4.193808e+03	1.891338e+03	0	8.891431e-04
9.100000e+08	2.827629e+13	0.000000e+00	7.093026e-01	3.988005e+14	5.512274e+14	9.134865e+13	7.883964e+03	4.189237e+03	1.889277e+03	0	8.850932e-04
9.200000e+08	2.789393e+13	0.000000e+00	7.093026e-01	3.942770e+14	5.456580e+14	9.093157e+13	7.866298e+03	4.184712e+03	1.887236e+03	0	8.810856e-04
9.300000e+08	2.751894e+13	0.000000e+00	7.093026e-01	3.898391e+14	5.401888e+14	9.051733e+13	7.848831e+03	4.180233e+03	1.885216e+03	0	8.771194e-04
9.400000e+08	2.715111e+13	0.000000e+00	7.093026e-01	3.854848e+14	5.348171e+14	9.010593e+13	7.831559e+03	4.175798e+03	1.883216e+03	0	8.731939e-04
9.500000e+08	2.679026e+13	0.000000e+00	7.093026e-01	3.812117e+14	5.295404e+14	8.969734e+13	7.814480e+03	4.171407e+03	1.881236e+03	0	8.693083e-04
9.600000e+08	2.643620e+13	0.000000e+00	7.093026e-01	3.770179e+14	5.243564e+14	8.929153e+13	7.797590e+03	4.167059e+03	1.879275e+03	0	8.654617e-04
9.700000e+08	2.608877e+13	0.000000e+00	7.093026e-01	3.729012e+14	5.192627e+14	8.888848e+13	7.780885e+03	4.162753e+03	1.877333e+03	0	8.616536e-04
9.800000e+08	2.574779e+13	0.000000e+00	7.093026e-01	3.688597e+14	5.142571e+14	8.848818e+13	7.764361e+03	4.158489e+03	1.875410e+03	0	8.578833e-04
9.900000e+08	2.541310e+13	0.000000e+00	7.093026e-01	3.648915e+14	5.093374e+14	8.809060e+13	7.748016e+03	4.154266e+03	1.873506e+03	0	8.541499e-04
1.000000e+09	2.508454e+13	0.000000e+00	7.093026e-01	3.609947e+14	5.045014e+14	8.769572e+13	7.731846e+03	4.150083e+03	1.871619e+03	0	8.504528e-04
1.010000e+09	2.476195e+13	0.000000e+00	7.093026e-01	3.571676e+14	4.997473e+14	8.730352e+13	7.715848e+03	4.145940e+03	1.869751e+03	0	8.467915e-04
1.020000e+09	2.444519e+13	0.000000e+00	7.093026e-01	3.534085e+14	4.950729e+14	8.691397e+13	7.700019e+03	4.141835e+03	1.867899e+03	0	8.431652e-04
1.030000e+09	2.413411e+13	0.000000e+00	7.093026e-01	3.497156e+14	4.904763e+14	8.652706e+13	7.684356e+03	4.137768e+03	1.866065e+03	0	8.395733e-04
1.040000e+09	2.382857e+13	0.000000e+00	7.093026e-01	3.460874e+14	4.859557e+14	8.614276e+13	7.668857e+03	4.133739e+03	1.864248e+03	0	8.360152e-04
1.050000e+09	2.352843e+13	0.000000e+00	7.093026e-01	3.425222e+14	4.815094e+14	8.576106e+13	7.653517e+03	4.129747e+03	1.862448e+03	0	8.324903e-04
1.060000e+09	2.323357e+13	0.000000e+00	7.093026e-01	3.390186e+14	4.771355e+14	8.538194e+13	7.638335e+03	4.125791e+03	1.860664e+03	0	8.289981e-04
1.070000e+09	2.294386e+13	0.000000e+00	7.093026e-01	3.355751e+14	4.728324e+14	8.500536e+13	7.623308e+03	4.121870e+03	1.858896e+03	0	8.255379e-04
1.080000e+09	2.265917e+13	0.000000e+00	7.093026e-01	3.321902e+14	4.685984e+14	8.463133e+13	7.608433e+03	4.117985e+03	1.857144e+03	0	8.221092e-04
1.090000e+09	2.237939e+13	0.000000e+00	7.093026e-01	3.288626e+14	4.644319e+14	8.425980e+13	7.593707e+03	4.114134e+03	1.855407e+03	0	8.187115e-04
1.100000e+09	2.210439e+13	0.000000e+00	7.093026e-01	3.255909e+14	4.603314e+14	8.389077e+13	7.579128e+03	4.110318e+03	1.853686e+03	0	8.153443e-04
1.110000e+09	2.183407e+13	0.000000e+00	7.093026e-01	3.223738e+14	4.562955e+14	8.352422e+13	7.564694e+03	4.106535e+03	1.851980e+03	0	8.120069e-04
1.120000e+09	2.156831e+13	0.000000e+00	7.093026e-01	3.192101e+14	4.523225e+14	8.316012e+13	7.550402e+03	4.102784e+03	1.850288e+03	0	8.086990e-04
1.130000e+09	2.130701e+13	0.000000e+00	7.093026e-01	3.160985e+14	4.484112e+14	8.279846e+13	7.536250e+03	4.099066e+03	1.848612e+03	0	8.054199e-04
1.140000e+09	2.105007e+13	0.000000e+00	7.093026e-01	3.130378e+14	4.445602e+14	8.243921e+13	7.522235e+03	4.095381e+03	1.846949e+03	0	8.021693e-04
1.150000e+09	2.079739e+13	0.000000e+00	7.093026e-01	3.100269e+14	4.407681e+14	8.208237e+13	7.508356e+03	4.091726e+03	1.845301e+03	0	7.989467e-04
1.160000e+09	2.054887e+13	0.000000e+00	7.093026e-01	3.070646e+14	4.370336e+14	8.172790e+13	7.494610e+03	4.088102e+03	1.843667e+03	0	7.957516e-04
1.170000e+09	2.030442e+13	0.000000e+00	7.093026e-01	3.041499e+14	4.333555e+14	8.137580e+13	7.480994e+03	4.084509e+03	1.842046e+03	0	7.925835e-04
1.180000e+09	2.006394e+13	0.000000e+00	7.093026e-01	3.012817e+14	4.297325e+14	8.102604e+13	7.467508e+03	4.080946e+03	1.840440e+03	0	7.894421e-04
1.190000e+09	1.982735e+13	0.000000e+00	7.093026e-01	2.984589e+14	4.261636e+14	8.067860e+13	7.454148e+03	4.077412e+03	1.838846e+03	0	7.863268e-04
1.200000e+09	1.959455e+13	0.000000e+00	7.093026e-01	2.956806e+14	4.226474e+14	8.033347e+13	7.440913e+03	4.073908e+03	1.837265e+03	0	7.832372e-04
1.210000e+09	1.936548e+13	0.000000e+00	7.093026e-01	2.929458e+14	4.191829e+14	7.999063e+13	7.427801e+03	4.070432e+03	1.835698e+03	0	7.801730e-04
1.220000e+09	1.914004e+13	0.000000e+00	7.093026e-01	2.902535e+14	4.157691e+14	7.965006e+13	7.414809e+03	4.066985e+03	1.834143e+03	0	7.771337e-04
1.230000e+09	1.891815e+13	0.000000e+00	7.093026e-01	2.876029e+14	4.124048e+14	7.931175e+13	7.401937e+03	4.063565e+03	1.832601e+03	0	7.741190e-04
1.240000e+09	1.869974e+13	0.000000e+00	7.093026e-01	2.849929e+14	4.090889e+14	7.897567e+13	7.389182e+03	4.060173e+03	1.831071e+03	0	7.711284e-04
1.250000e+09	1.848474e+13	0.000000e+00	7.093026e-01	2.824228e+14	4.058206e+14	7.864180e+13	7.376542e+03	4.056807e+03	1.829553e+03	0	7.681616e-04
1.260000e+09	1.827306e+13	0.000000e+00	7.093026e-01	2.798918e+14	4.025989e+14	7.831014e+13	7.364016e+03	4.053469e+03	1.828048e+03	0	7.652182e-04
1.270000e+09	1.806465e+13	0.000000e+00	7.093026e-01	2.773989e+14	3.994227e+14	7.798067e+13	7.351602e+03	4.050156e+03	1.826554e+03	0	7.622978e-04
1.280000e+09	1.785942e+13	0.000000e+00	7.093026e-01	2.749434e+14	3.962911e+14	7.765336e+13	7.339298e+03	4.046870e+03	1.825072e+03	0	7.594001e-04
1.290000e+09	1.765732e+13	0.000000e+00	7.093026e-01	2.725245e+14	3.932034e+14	7.732820e+13	7.327103e+03	4.043609e+03	1.823601e+03	0	7.565247e-04
1.300000e+09	1.745828e+13	0.000000e+00	7.093026e-01	2.701414e+14	3.901584e+14	7.700518e+13	7.315015e+03	4.040373e+03	1.822142e+03	0	7.536713e-04
1.310000e+09	1.726223e+13	0.000000e+00	7.093026e-01	2.677935e+14	3.871555e+14	7.668428e+13	7.303032e+03	4.037162e+03	1.820694e+03	0	7.508395e-04
1.320000e+09	1.706911e+13	0.000000e+00	7.093026e-01	2.654799e+14	3.841938e+14	7.636547e+13	7.291152e+03	4.033975e+03	1.819256e+03	0	7.480291e-04
1.330000e+09	1.687887e+13	0.000000e+00	7.093026e-01	2.632000e+14	3.812725e+14	7.604875e+13	7.279376e+03	4.030813e+03	1.817830e+03	0	7.452397e-04
1.340000e+09	1.669144e+13	0.000000e+00	7.093026e-01	2.609531e+14	3.783907e+14	7.573410e+13	7.267700e+03	4.027674e+03	1.816415e+03	0	7.424709e-04
1.350000e+09	1.650676e+13	0.000000e+00	7.093026e-01	2.587386e+14	3.755478e+14	7.542151e+13	7.256123e+03	4.024559e+03	1.815010e+03	0	7.397225e-04
1.360000e+09	1.632479e+13	0.000000e+00	7.093026e-01	2.565557e+14	3.727429e+14	7.511095e+13	7.244645e+03	4.021467e+03	1.813615e+03	0	7.369942e-04
