#t		Qconv[W]	Ri[Rp]		R*[Rp]		Qc[W]		Qm[W]		Qr[W]		Tcmb[K]		Tl[K]		Tup[K]		RiFlag		Bs[T]
0.000000e+00	9.709897e+12	0.000000e+00	7.076021e-01	2.314642e+14	1.683221e+15	1.869407e+14	7.806776e+03	4.074302e+03	2.399832e+03	0	6.163533e-04
1.000000e+07	9.397668e+12	0.000000e+00	7.076021e-01	2.281978e+14	1.539181e+15	1.859049e+14	7.799383e+03	4.011027e+03	2.362563e+03	0	6.096748e-04
2.000000e+07	9.097996e+12	0.000000e+00	7.076021e-01	2.250595e+14	1.417573e+15	1.848769e+14	7.792093e+03	3.954556e+03	2.329300e+03	0	6.031243e-04
3.000000e+07	8.811527e+12	0.000000e+00	7.076021e-01	2.220556e+14	1.313818e+15	1.838565e+14	7.784904e+03	3.903833e+03	2.299423e+03	0	5.967264e-04
4.000000e+07	8.538267e+12	0.000000e+00	7.076021e-01	2.191862e+14	1.224463e+15	1.828438e+14	7.777810e+03	3.858012e+03	2.272434e+03	0	5.904931e-04
5.000000e+07	8.277860e+12	0.000000e+00	7.076021e-01	2.164476e+14	1.146862e+15	1.818386e+14	7.770808e+03	3.816409e+03	2.247929e+03	0	5.844279e-04
6.000000e+07	8.029751e+12	0.000000e+00	7.076021e-01	2.138341e+14	1.078959e+15	1.808409e+14	7.763893e+03	3.778464e+03	2.225579e+03	0	5.785296e-04
7.000000e+07	7.793286e+12	0.000000e+00	7.076021e-01	2.113392e+14	1.019136e+15	1.798506e+14	7.757061e+03	3.743714e+03	2.205111e+03	0	5.727939e-04
8.000000e+07	7.567774e+12	0.000000e+00	7.076021e-01	2.089558e+14	9.661048e+14	1.788677e+14	7.750309e+03	3.711772e+03	2.186296e+03	0	5.672149e-04
9.000000e+07	7.352523e+12	0.000000e+00	7.076021e-01	2.066768e+14	9.188285e+14	1.778921e+14	7.743633e+03	3.682311e+03	2.168943e+03	0	5.617853e-04
1.000000e+08	7.146861e+12	0.000000e+00	7.076021e-01	2.044956e+14	8.764648e+14	1.769238e+14	7.737030e+03	3.655055e+03	2.152889e+03	0	5.564976e-04
1.100000e+08	6.950147e+12	0.000000e+00	7.076021e-01	2.024055e+14	8.383228e+14	1.759626e+14	7.730496e+03	3.629767e+03	2.137994e+03	0	5.513443e-04
1.200000e+08	6.761780e+12	0.000000e+00	7.076021e-01	2.004005e+14	8.038315e+14	1.750086e+14	7.724028e+03	3.606244e+03	2.124138e+03	0	5.463176e-04
1.300000e+08	6.581195e+12	0.000000e+00	7.076021e-01	1.984748e+14	7.725154e+14	1.740616e+14	7.717625e+03	3.584309e+03	2.111219e+03	0	5.414103e-04
1.400000e+08	6.407872e+12	0.000000e+00	7.076021e-01	1.966232e+14	7.439755e+14	1.731217e+14	7.711283e+03	3.563811e+03	2.099145e+03	0	5.366150e-04
1.500000e+08	6.241326e+12	0.000000e+00	7.076021e-01	1.948408e+14	7.178750e+14	1.721886e+14	7.705001e+03	3.544614e+03	2.087837e+03	0	5.319251e-04
1.600000e+08	6.081111e+12	0.000000e+00	7.076021e-01	1.931230e+14	6.939276e+14	1.712625e+14	7.698775e+03	3.526600e+03	2.077227e+03	0	5.273341e-04
1.700000e+08	5.926815e+12	0.000000e+00	7.076021e-01	1.914656e+14	6.718891e+14	1.703432e+14	7.692603e+03	3.509667e+03	2.067253e+03	0	5.228358e-04
1.800000e+08	5.778059e+12	0.000000e+00	7.076021e-01	1.898649e+14	6.515493e+14	1.694307e+14	7.686485e+03	3.493722e+03	2.057861e+03	0	5.184245e-04
1.900000e+08	5.634494e+12	0.000000e+00	7.076021e-01	1.883173e+14	6.327271e+14	1.685249e+14	7.680418e+03	3.478682e+03	2.049002e+03	0	5.140948e-04
2.000000e+08	5.495796e+12	0.000000e+00	7.076021e-01	1.868194e+14	6.152654e+14	1.676258e+14	7.674400e+03	3.464475e+03	2.040634e+03	0	5.098414e-04
2.100000e+08	5.361669e+12	0.000000e+00	7.076021e-01	1.853683e+14	5.990274e+14	1.667333e+14	7.668430e+03	3.451035e+03	2.032718e+03	0	5.056595e-04
2.200000e+08	5.231838e+12	0.000000e+00	7.076021e-01	1.839613e+14	5.838933e+14	1.658473e+14	7.662506e+03	3.438304e+03	2.025219e+03	0	5.015447e-04
2.300000e+08	5.106050e+12	0.000000e+00	7.076021e-01	1.825956e+14	5.697581e+14	1.649678e+14	7.656627e+03	3.426227e+03	2.018106e+03	0	4.974925e-04
2.400000e+08	4.984071e+12	0.000000e+00	7.076021e-01	1.812690e+14	5.565292e+14	1.640948e+14	7.650792e+03	3.414758e+03	2.011350e+03	0	4.934990e-04
2.500000e+08	4.865684e+12	0.000000e+00	7.076021e-01	1.799792e+14	5.441247e+14	1.632282e+14	7.644999e+03	3.403852e+03	2.004926e+03	0	4.895603e-04
2.600000e+08	4.750689e+12	0.000000e+00	7.076021e-01	1.787243e+14	5.324721e+14	1.623679e+14	7.639247e+03	3.393471e+03	1.998811e+03	0	4.856728e-04
2.700000e+08	4.638900e+12	0.000000e+00	7.076021e-01	1.775022e+14	5.215067e+14	1.615140e+14	7.633535e+03	3.383577e+03	1.992984e+03	0	4.818330e-04
2.800000e+08	4.530143e+12	0.000000e+00	7.076021e-01	1.763114e+14	5.111707e+14	1.606662e+14	7.627863e+03	3.374139e+03	1.987425e+03	0	4.780378e-04
2.900000e+08	4.424260e+12	0.000000e+00	7.076021e-01	1.751501e+14	5.014127e+14	1.598246e+14	7.622228e+03	3.365126e+03	1.982116e+03	0	4.742840e-04
3.000000e+08	4.321100e+12	0.000000e+00	7.076021e-01	1.740168e+14	4.921862e+14	1.589892e+14	7.616630e+03	3.356511e+03	1.977041e+03	0	4.705687e-04
3.100000e+08	4.220526e+12	0.000000e+00	7.076021e-01	1.729101e+14	4.834496e+14	1.581599e+14	7.611068e+03	3.348268e+03	1.972186e+03	0	4.668891e-04
3.200000e+08	4.122407e+12	0.000000e+00	7.076021e-01	1.718287e+14	4.751652e+14	1.573366e+14	7.605542e+03	3.340374e+03	1.967536e+03	0	4.632426e-04
3.300000e+08	4.026623e+12	0.000000e+00	7.076021e-01	1.707714e+14	4.672991e+14	1.565192e+14	7.600050e+03	3.332808e+03	1.963080e+03	0	4.596266e-04
3.400000e+08	3.933061e+12	0.000000e+00	7.076021e-01	1.697370e+14	4.598205e+14	1.557079e+14	7.594592e+03	3.325549e+03	1.958805e+03	0	4.560388e-04
3.500000e+08	3.841616e+12	0.000000e+00	7.076021e-01	1.687245e+14	4.527015e+14	1.549024e+14	7.589167e+03	3.318580e+03	1.954700e+03	0	4.524767e-04
3.600000e+08	3.752190e+12	0.000000e+00	7.076021e-01	1.677328e+14	4.459165e+14	1.541027e+14	7.583775e+03	3.311884e+03	1.950756e+03	0	4.489381e-04
3.700000e+08	3.664690e+12	0.000000e+00	7.076021e-01	1.667610e+14	4.394425e+14	1.533088e+14	7.578413e+03	3.305445e+03	1.946963e+03	0	4.454209e-04
3.800000e+08	3.579029e+12	0.000000e+00	7.076021e-01	1.658083e+14	4.332582e+14	1.525207e+14	7.573083e+03	3.299248e+03	1.943313e+03	0	4.419230e-04
3.900000e+08	3.495128e+12	0.000000e+00	7.076021e-01	1.648737e+14	4.273443e+14	1.517383e+14	7.567784e+03	3.293280e+03	1.939798e+03	0	4.384424e-04
4.000000e+08	3.412908e+12	0.000000e+00	7.076021e-01	1.639566e+14	4.216830e+14	1.509615e+14	7.562514e+03	3.287529e+03	1.936410e+03	0	4.349771e-04
4.100000e+08	3.332300e+12	0.000000e+00	7.076021e-01	1.630562e+14	4.162581e+14	1.501903e+14	7.557273e+03	3.281981e+03	1.933142e+03	0	4.315253e-04
4.200000e+08	3.253234e+12	0.000000e+00	7.076021e-01	1.621718e+14	4.110545e+14	1.494247e+14	7.552062e+03	3.276628e+03	1.929989e+03	0	4.280850e-04
4.300000e+08	3.175649e+12	0.000000e+00	7.076021e-01	1.613028e+14	4.060585e+14	1.486646e+14	7.546878e+03	3.271457e+03	1.926943e+03	0	4.246545e-04
4.400000e+08	3.099484e+12	0.000000e+00	7.076021e-01	1.604485e+14	4.012574e+14	1.479100e+14	7.541722e+03	3.266460e+03	1.924000e+03	0	4.212320e-04
4.500000e+08	3.024683e+12	0.000000e+00	7.076021e-01	1.596084e+14	3.966393e+14	1.471608e+14	7.536594e+03	3.261628e+03	1.921154e+03	0	4.178158e-04
4.600000e+08	2.951193e+12	0.000000e+00	7.076021e-01	1.587820e+14	3.921936e+14	1.464170e+14	7.531492e+03	3.256952e+03	1.918400e+03	0	4.144041e-04
4.700000e+08	2.878963e+12	0.000000e+00	7.076021e-01	1.579687e+14	3.879101e+14	1.456785e+14	7.526417e+03	3.252425e+03	1.915733e+03	0	4.109953e-04
4.800000e+08	2.807946e+12	0.000000e+00	7.076021e-01	1.571680e+14	3.837795e+14	1.449453e+14	7.521367e+03	3.248039e+03	1.913150e+03	0	4.075878e-04
4.900000e+08	2.738097e+12	0.000000e+00	7.076021e-01	1.563795e+14	3.797931e+14	1.442173e+14	7.516343e+03	3.243787e+03	1.910645e+03	0	4.041797e-04
5.000000e+08	2.669375e+12	0.000000e+00	7.076021e-01	1.556028e+14	3.759430e+14	1.434946e+14	7.511345e+03	3.239662e+03	1.908216e+03	0	4.007696e-04
5.100000e+08	2.601737e+12	0.000000e+00	7.076021e-01	1.548374e+14	3.722217e+14	1.427770e+14	7.506371e+03	3.235659e+03	1.905858e+03	0	3.973556e-04
5.200000e+08	2.535147e+12	0.000000e+00	7.076021e-01	1.540829e+14	3.686221e+14	1.420645e+14	7.501421e+03	3.231772e+03	1.903568e+03	0	3.939362e-04
5.300000e+08	2.469568e+12	0.000000e+00	7.076021e-01	1.533390e+14	3.651379e+14	1.413571e+14	7.496496e+03	3.227995e+03	1.901344e+03	0	3.905098e-04
5.400000e+08	2.404966e+12	0.000000e+00	7.076021e-01	1.526054e+14	3.617630e+14	1.406548e+14	7.491594e+03	3.224323e+03	1.899181e+03	0	3.870745e-04
5.500000e+08	2.341308e+12	0.000000e+00	7.076021e-01	1.518816e+14	3.584916e+14	1.399574e+14	7.486716e+03	3.220752e+03	1.897077e+03	0	3.836287e-04
5.600000e+08	2.278564e+12	0.000000e+00	7.076021e-01	1.511675e+14	3.553186e+14	1.392650e+14	7.481861e+03	3.217276e+03	1.895030e+03	0	3.801707e-04
5.700000e+08	2.216703e+12	0.000000e+00	7.076021e-01	1.504626e+14	3.522390e+14	1.385776e+14	7.477029e+03	3.213892e+03	1.893037e+03	0	3.766987e-04
5.800000e+08	2.155699e+12	0.000000e+00	7.076021e-01	1.497667e+14	3.492482e+14	1.378950e+14	7.472219e+03	3.210595e+03	1.891095e+03	0	3.732108e-04
5.900000e+08	2.095523e+12	0.000000e+00	7.076021e-01	1.490795e+14	3.463418e+14	1.372172e+14	7.467431e+03	3.207382e+03	1.889202e+03	0	3.697053e-04
6.000000e+08	2.036152e+12	0.000000e+00	7.076021e-01	1.484008e+14	3.435157e+14	1.365442e+14	7.462665e+03	3.204248e+03	1.887356e+03	0	3.661803e-04
6.100000e+08	1.977560e+12	0.000000e+00	7.076021e-01	1.477303e+14	3.407662e+14	1.358760e+14	7.457921e+03	3.201191e+03	1.885555e+03	0	3.626336e-04
6.200000e+08	1.919724e+12	0.000000e+00	7.076021e-01	1.470678e+14	3.380896e+14	1.352126e+14	7.453199e+03	3.198207e+03	1.883798e+03	0	3.590634e-04
6.300000e+08	1.862624e+12	0.000000e+00	7.076021e-01	1.464130e+14	3.354825e+14	1.345538e+14	7.448497e+03	3.195292e+03	1.882081e+03	0	3.554675e-04
6.400000e+08	1.806236e+12	0.000000e+00	7.076021e-01	1.457658e+14	3.329418e+14	1.338996e+14	7.443817e+03	3.192445e+03	1.880404e+03	0	3.518437e-04
6.500000e+08	1.750542e+12	0.000000e+00	7.076021e-01	1.451258e+14	3.304645e+14	1.332501e+14	7.439157e+03	3.189662e+03	1.878765e+03	0	3.481896e-04
6.600000e+08	1.695523e+12	0.000000e+00	7.076021e-01	1.444930e+14	3.280478e+14	1.326051e+14	7.434518e+03	3.186941e+03	1.877162e+03	0	3.445028e-04
6.700000e+08	1.641159e+12	0.000000e+00	7.076021e-01	1.438672e+14	3.256889e+14	1.319647e+14	7.429898e+03	3.184279e+03	1.875594e+03	0	3.407808e-04
6.800000e+08	1.587433e+12	0.000000e+00	7.076021e-01	1.432481e+14	3.233854e+14	1.313287e+14	7.425299e+03	3.181673e+03	1.874059e+03	0	3.370208e-04
6.900000e+08	1.534330e+12	0.000000e+00	7.076021e-01	1.426356e+14	3.211349e+14	1.306973e+14	7.420720e+03	3.179122e+03	1.872556e+03	0	3.332200e-04
7.000000e+08	1.481831e+12	0.000000e+00	7.076021e-01	1.420295e+14	3.189352e+14	1.300702e+14	7.416160e+03	3.176623e+03	1.871084e+03	0	3.293754e-04
7.100000e+08	1.429923e+12	0.000000e+00	7.076021e-01	1.414297e+14	3.167842e+14	1.294476e+14	7.411619e+03	3.174174e+03	1.869642e+03	0	3.254836e-04
7.200000e+08	1.378590e+12	0.000000e+00	7.076021e-01	1.408360e+14	3.146798e+14	1.288293e+14	7.407098e+03	3.171773e+03	1.868228e+03	0	3.215412e-04
7.300000e+08	1.327818e+12	0.000000e+00	7.076021e-01	1.402483e+14	3.126201e+14	1.282153e+14	7.402595e+03	3.169419e+03	1.866841e+03	0	3.175444e-04
7.400000e+08	1.277594e+12	0.000000e+00	7.076021e-01	1.396664e+14	3.106034e+14	1.276056e+14	7.398111e+03	3.167109e+03	1.865481e+03	0	3.134891e-04
7.500000e+08	1.227904e+12	0.000000e+00	7.076021e-01	1.390902e+14	3.086279e+14	1.270001e+14	7.393646e+03	3.164842e+03	1.864145e+03	0	3.093711e-04
7.600000e+08	1.178736e+12	0.000000e+00	7.076021e-01	1.385196e+14	3.066921e+14	1.263989e+14	7.389200e+03	3.162616e+03	1.862834e+03	0	3.051854e-04
7.700000e+08	1.130078e+12	0.000000e+00	7.076021e-01	1.379544e+14	3.047943e+14	1.258018e+14	7.384771e+03	3.160430e+03	1.861547e+03	0	3.009269e-04
7.800000e+08	1.081919e+12	0.000000e+00	7.076021e-01	1.373945e+14	3.029332e+14	1.252090e+14	7.380361e+03	3.158282e+03	1.860282e+03	0	2.965899e-04
7.900000e+08	1.034246e+12	0.000000e+00	7.076021e-01	1.368398e+14	3.011074e+14	1.246202e+14	7.375968e+03	3.156171e+03	1.859038e+03	0	2.921681e-04
8.000000e+08	9.870503e+11	0.000000e+00	7.076021e-01	1.362902e+14	2.993154e+14	1.240355e+14	7.371593e+03	3.154095e+03	1.857815e+03	0	2.876546e-04
8.100000e+08	9.403206e+11	0.000000e+00	7.076021e-01	1.357456e+14	2.975562e+14	1.234548e+14	7.367236e+03	3.152054e+03	1.856613e+03	0	2.830416e-04
8.200000e+08	8.940472e+11	0.000000e+00	7.076021e-01	1.352059e+14	2.958285e+14	1.228782e+14	7.362896e+03	3.150045e+03	1.855430e+03	0	2.783204e-04
8.300000e+08	8.482204e+11	0.000000e+00	7.076021e-01	1.346710e+14	2.941312e+14	1.223056e+14	7.358573e+03	3.148069e+03	1.854265e+03	0	2.734814e-04
8.400000e+08	8.028311e+11	0.000000e+00	7.076021e-01	1.341408e+14	2.924632e+14	1.217369e+14	7.354268e+03	3.146122e+03	1.853119e+03	0	2.685136e-04
8.500000e+08	7.578704e+11	0.000000e+00	7.076021e-01	1.336152e+14	2.908235e+14	1.211721e+14	7.349979e+03	3.144206e+03	1.851990e+03	0	2.634045e-04
8.600000e+08	7.133297e+11	0.000000e+00	7.076021e-01	1.330940e+14	2.892111e+14	1.206113e+14	7.345707e+03	3.142318e+03	1.850878e+03	0	2.581398e-04
8.700000e+08	6.692007e+11	0.000000e+00	7.076021e-01	1.325774e+14	2.876250e+14	1.200542e+14	7.341452e+03	3.140457e+03	1.849782e+03	0	2.527030e-04
8.800000e+08	6.254755e+11	0.000000e+00	7.076021e-01	1.320650e+14	2.860645e+14	1.195011e+14	7.337213e+03	3.138624e+03	1.848702e+03	0	2.470747e-04
8.900000e+08	5.821463e+11	0.000000e+00	7.076021e-01	1.315569e+14	2.845286e+14	1.189517e+14	7.332990e+03	3.136815e+03	1.847637e+03	0	2.412324e-04
9.000000e+08	5.392057e+11	0.000000e+00	7.076021e-01	1.310530e+14	2.830165e+14	1.184061e+14	7.328784e+03	3.135032e+03	1.846587e+03	0	2.351489e-04
9.100000e+08	4.966464e+11	0.000000e+00	7.076021e-01	1.305532e+14	2.815275e+14	1.178642e+14	7.324594e+03	3.133273e+03	1.845551e+03	0	2.287919e-04
9.200000e+08	4.544615e+11	0.000000e+00	7.076021e-01	1.300575e+14	2.800609e+14	1.173261e+14	7.320420e+03	3.131537e+03	1.844528e+03	0	2.221215e-04
9.300000e+08	4.126442e+11	0.000000e+00	7.076021e-01	1.295657e+14	2.786158e+14	1.167916e+14	7.316262e+03	3.129824e+03	1.843519e+03	0	2.150883e-04
9.400000e+08	3.711881e+11	0.000000e+00	7.076021e-01	1.290778e+14	2.771917e+14	1.162608e+14	7.312119e+03	3.128132e+03	1.842523e+03	0	2.076297e-04
9.500000e+08	3.300868e+11	0.000000e+00	7.076021e-01	1.285938e+14	2.757879e+14	1.157336e+14	7.307992e+03	3.126462e+03	1.841539e+03	0	1.996645e-04
9.600000e+08	2.893341e+11	0.000000e+00	7.076021e-01	1.281135e+14	2.744038e+14	1.152100e+14	7.303881e+03	3.124812e+03	1.840567e+03	0	1.910842e-04
9.700000e+08	2.489242e+11	0.000000e+00	7.076021e-01	1.276369e+14	2.730388e+14	1.146900e+14	7.299784e+03	3.123182e+03	1.839607e+03	0	1.817386e-04
9.800000e+08	2.088513e+11	0.000000e+00	7.076021e-01	1.271640e+14	2.716924e+14	1.141735e+14	7.295703e+03	3.121571e+03	1.838658e+03	0	1.714104e-04
9.900000e+08	1.691098e+11	0.000000e+00	7.076021e-01	1.266947e+14	2.703639e+14	1.136605e+14	7.291637e+03	3.119978e+03	1.837720e+03	0	1.597648e-04
1.000000e+09	1.296943e+11	0.000000e+00	7.076021e-01	1.262289e+14	2.690529e+14	1.131510e+14	7.287587e+03	3.118404e+03	1.836792e+03	0	1.462397e-04
1.010000e+09	9.059963e+10	0.000000e+00	7.076021e-01	1.257666e+14	2.677589e+14	1.126449e+14	7.283551e+03	3.116847e+03	1.835875e+03	0	1.297579e-04
1.020000e+09	5.182063e+10	0.000000e+00	7.076021e-01	1.253077e+14	2.664815e+14	1.121423e+14	7.279529e+03	3.115307e+03	1.834968e+03	0	1.077108e-04
1.030000e+09	1.335237e+10	0.000000e+00	7.076021e-01	1.248522e+14	2.652200e+14	1.116431e+14	7.275523e+03	3.113783e+03	1.834071e+03	0	6.854004e-05
1.040000e+09	-2.480995e+10	0.000000e+00	7.076021e-01	1.244000e+14	2.639742e+14	1.111472e+14	7.271531e+03	3.112275e+03	1.833183e+03	0	nan
