#t		Qconv[W]	Ri[Rp]		R*[Rp]		Qc[W]		Qm[W]		Qr[W]		Tcmb[K]		Tl[K]		Tup[K]		RiFlag		Bs[T]
0.000000e+00	8.909712e+12	0.000000e+00	7.076026e-01	2.853567e+14	1.822106e+15	2.143717e+14	8.488213e+03	4.310334e+03	2.455394e+03	0	5.957234e-04
1.000000e+07	8.524151e+12	0.000000e+00	7.076026e-01	2.815557e+14	1.682033e+15	2.131839e+14	8.480761e+03	4.251549e+03	2.421907e+03	0	5.870032e-04
2.000000e+07	8.156233e+12	0.000000e+00	7.076026e-01	2.779229e+14	1.562086e+15	2.120051e+14	8.473408e+03	4.198622e+03	2.391757e+03	0	5.784333e-04
3.000000e+07	7.805714e+12	0.000000e+00	7.076026e-01	2.744558e+14	1.458450e+15	2.108350e+14	8.466150e+03	4.150710e+03	2.364464e+03	0	5.700255e-04
4.000000e+07	7.471974e+12	0.000000e+00	7.076026e-01	2.711486e+14	1.368183e+15	2.096736e+14	8.458982e+03	4.107126e+03	2.339636e+03	0	5.617829e-04
5.000000e+07	7.154200e+12	0.000000e+00	7.076026e-01	2.679936e+14	1.288990e+15	2.085209e+14	8.451900e+03	4.067306e+03	2.316952e+03	0	5.537033e-04
6.000000e+07	6.851485e+12	0.000000e+00	7.076026e-01	2.649820e+14	1.219053e+15	2.073768e+14	8.444901e+03	4.030782e+03	2.296146e+03	0	5.457809e-04
7.000000e+07	6.562900e+12	0.000000e+00	7.076026e-01	2.621051e+14	1.156923e+15	2.062413e+14	8.437980e+03	3.997160e+03	2.276994e+03	0	5.380080e-04
8.000000e+07	6.287531e+12	0.000000e+00	7.076026e-01	2.593542e+14	1.101427e+15	2.051141e+14	8.431134e+03	3.966110e+03	2.259306e+03	0	5.303755e-04
9.000000e+07	6.024495e+12	0.000000e+00	7.076026e-01	2.567210e+14	1.051607e+15	2.039954e+14	8.424359e+03	3.937349e+03	2.242922e+03	0	5.228739e-04
1.000000e+08	5.772961e+12	0.000000e+00	7.076026e-01	2.541974e+14	1.006679e+15	2.028850e+14	8.417654e+03	3.910634e+03	2.227704e+03	0	5.154932e-04
1.100000e+08	5.532149e+12	0.000000e+00	7.076026e-01	2.517763e+14	9.659891e+14	2.017828e+14	8.411014e+03	3.885759e+03	2.213533e+03	0	5.082235e-04
1.200000e+08	5.301331e+12	0.000000e+00	7.076026e-01	2.494505e+14	9.289936e+14	2.006887e+14	8.404437e+03	3.862541e+03	2.200307e+03	0	5.010546e-04
1.300000e+08	5.079836e+12	0.000000e+00	7.076026e-01	2.472139e+14	8.952343e+14	1.996028e+14	8.397921e+03	3.840823e+03	2.187936e+03	0	4.939769e-04
1.400000e+08	4.867042e+12	0.000000e+00	7.076026e-01	2.450603e+14	8.643236e+14	1.985249e+14	8.391464e+03	3.820467e+03	2.176340e+03	0	4.869807e-04
1.500000e+08	4.662374e+12	0.000000e+00	7.076026e-01	2.429846e+14	8.359317e+14	1.974550e+14	8.385062e+03	3.801352e+03	2.165451e+03	0	4.800566e-04
1.600000e+08	4.465305e+12	0.000000e+00	7.076026e-01	2.409815e+14	8.097759e+14	1.963930e+14	8.378715e+03	3.783369e+03	2.155207e+03	0	4.731954e-04
1.700000e+08	4.275348e+12	0.000000e+00	7.076026e-01	2.390465e+14	7.856133e+14	1.953388e+14	8.372419e+03	3.766423e+03	2.145554e+03	0	4.663879e-04
1.800000e+08	4.092054e+12	0.000000e+00	7.076026e-01	2.371753e+14	7.632337e+14	1.942924e+14	8.366175e+03	3.750430e+03	2.136443e+03	0	4.596253e-04
1.900000e+08	3.915010e+12	0.000000e+00	7.076026e-01	2.353641e+14	7.424545e+14	1.932536e+14	8.359979e+03	3.735313e+03	2.127831e+03	0	4.528987e-04
2.000000e+08	3.743834e+12	0.000000e+00	7.076026e-01	2.336091e+14	7.231166e+14	1.922226e+14	8.353830e+03	3.721004e+03	2.119680e+03	0	4.461994e-04
2.100000e+08	3.578174e+12	0.000000e+00	7.076026e-01	2.319070e+14	7.050804e+14	1.911991e+14	8.347727e+03	3.707441e+03	2.111954e+03	0	4.395186e-04
2.200000e+08	3.417707e+12	0.000000e+00	7.076026e-01	2.302549e+14	6.882234e+14	1.901831e+14	8.341669e+03	3.694570e+03	2.104622e+03	0	4.328476e-04
2.300000e+08	3.262130e+12	0.000000e+00	7.076026e-01	2.286497e+14	6.724373e+14	1.891746e+14	8.335653e+03	3.682340e+03	2.097655e+03	0	4.261775e-04
2.400000e+08	3.111167e+12	0.000000e+00	7.076026e-01	2.270888e+14	6.576263e+14	1.881735e+14	8.329680e+03	3.670705e+03	2.091028e+03	0	4.194993e-04
2.500000e+08	2.964560e+12	0.000000e+00	7.076026e-01	2.255699e+14	6.437055e+14	1.871797e+14	8.323747e+03	3.659625e+03	2.084716e+03	0	4.128036e-04
2.600000e+08	2.822069e+12	0.000000e+00	7.076026e-01	2.240906e+14	6.305989e+14	1.861932e+14	8.317854e+03	3.649062e+03	2.078698e+03	0	4.060810e-04
2.700000e+08	2.683474e+12	0.000000e+00	7.076026e-01	2.226489e+14	6.182389e+14	1.852139e+14	8.311999e+03	3.638981e+03	2.072956e+03	0	3.993214e-04
2.800000e+08	2.548569e+12	0.000000e+00	7.076026e-01	2.212427e+14	6.065648e+14	1.842418e+14	8.306182e+03	3.629350e+03	2.067470e+03	0	3.925143e-04
2.900000e+08	2.417161e+12	0.000000e+00	7.076026e-01	2.198702e+14	5.955221e+14	1.832767e+14	8.300402e+03	3.620142e+03	2.062224e+03	0	3.856487e-04
3.000000e+08	2.289072e+12	0.000000e+00	7.076026e-01	2.185298e+14	5.850617e+14	1.823187e+14	8.294657e+03	3.611328e+03	2.057203e+03	0	3.787127e-04
3.100000e+08	2.164136e+12	0.000000e+00	7.076026e-01	2.172199e+14	5.751393e+14	1.813677e+14	8.288948e+03	3.602885e+03	2.052394e+03	0	3.716935e-04
3.200000e+08	2.042199e+12	0.000000e+00	7.076026e-01	2.159390e+14	5.657147e+14	1.804236e+14	8.283272e+03	3.594791e+03	2.047783e+03	0	3.645771e-04
3.300000e+08	1.923114e+12	0.000000e+00	7.076026e-01	2.146857e+14	5.567517e+14	1.794863e+14	8.277630e+03	3.587023e+03	2.043358e+03	0	3.573484e-04
3.400000e+08	1.806747e+12	0.000000e+00	7.076026e-01	2.134587e+14	5.482171e+14	1.785559e+14	8.272021e+03	3.579564e+03	2.039109e+03	0	3.499902e-04
3.500000e+08	1.692970e+12	0.000000e+00	7.076026e-01	2.122568e+14	5.400810e+14	1.776322e+14	8.266444e+03	3.572395e+03	2.035025e+03	0	3.424837e-04
3.600000e+08	1.581665e+12	0.000000e+00	7.076026e-01	2.110789e+14	5.323159e+14	1.767152e+14	8.260898e+03	3.565500e+03	2.031097e+03	0	3.348073e-04
3.700000e+08	1.472721e+12	0.000000e+00	7.076026e-01	2.099239e+14	5.248966e+14	1.758048e+14	8.255383e+03	3.558863e+03	2.027316e+03	0	3.269366e-04
3.800000e+08	1.366033e+12	0.000000e+00	7.076026e-01	2.087908e+14	5.178003e+14	1.749011e+14	8.249898e+03	3.552470e+03	2.023674e+03	0	3.188432e-04
3.900000e+08	1.261502e+12	0.000000e+00	7.076026e-01	2.076787e+14	5.110059e+14	1.740038e+14	8.244442e+03	3.546307e+03	2.020164e+03	0	3.104937e-04
4.000000e+08	1.159037e+12	0.000000e+00	7.076026e-01	2.065867e+14	5.044941e+14	1.731131e+14	8.239016e+03	3.540363e+03	2.016778e+03	0	3.018486e-04
4.100000e+08	1.058550e+12	0.000000e+00	7.076026e-01	2.055140e+14	4.982471e+14	1.722287e+14	8.233618e+03	3.534625e+03	2.013509e+03	0	2.928603e-04
4.200000e+08	9.599605e+11	0.000000e+00	7.076026e-01	2.044597e+14	4.922485e+14	1.713508e+14	8.228248e+03	3.529083e+03	2.010352e+03	0	2.834705e-04
4.300000e+08	8.631907e+11	0.000000e+00	7.076026e-01	2.034233e+14	4.864832e+14	1.704791e+14	8.222905e+03	3.523727e+03	2.007301e+03	0	2.736060e-04
4.400000e+08	7.681682e+11	0.000000e+00	7.076026e-01	2.024039e+14	4.809373e+14	1.696138e+14	8.217590e+03	3.518547e+03	2.004350e+03	0	2.631735e-04
4.500000e+08	6.748243e+11	0.000000e+00	7.076026e-01	2.014009e+14	4.755977e+14	1.687546e+14	8.212301e+03	3.513534e+03	2.001494e+03	0	2.520502e-04
4.600000e+08	5.830942e+11	0.000000e+00	7.076026e-01	2.004137e+14	4.704526e+14	1.679017e+14	8.207039e+03	3.508680e+03	1.998729e+03	0	2.400691e-04
4.700000e+08	4.929168e+11	0.000000e+00	7.076026e-01	1.994417e+14	4.654909e+14	1.670548e+14	8.201802e+03	3.503976e+03	1.996050e+03	0	2.269941e-04
4.800000e+08	4.042342e+11	0.000000e+00	7.076026e-01	1.984844e+14	4.607022e+14	1.662140e+14	8.196590e+03	3.499417e+03	1.993453e+03	0	2.124717e-04
4.900000e+08	3.169915e+11	0.000000e+00	7.076026e-01	1.975412e+14	4.560769e+14	1.653792e+14	8.191404e+03	3.494994e+03	1.990933e+03	0	1.959323e-04
5.000000e+08	2.311369e+11	0.000000e+00	7.076026e-01	1.966116e+14	4.516063e+14	1.645504e+14	8.186242e+03	3.490702e+03	1.988488e+03	0	1.763518e-04
5.100000e+08	1.466211e+11	0.000000e+00	7.076026e-01	1.956952e+14	4.472818e+14	1.637275e+14	8.181104e+03	3.486533e+03	1.986113e+03	0	1.515266e-04
5.200000e+08	6.339744e+10	0.000000e+00	7.076026e-01	1.947914e+14	4.430959e+14	1.629105e+14	8.175990e+03	3.482483e+03	1.983806e+03	0	1.145814e-04
5.300000e+08	-1.857829e+10	0.000000e+00	7.076026e-01	1.939000e+14	4.390413e+14	1.620993e+14	8.170900e+03	3.478546e+03	1.981563e+03	0	nan
