#t		Qconv[W]	Ri[Rp]		R*[Rp]		Qc[W]		Qm[W]		Qr[W]		Tcmb[K]		Tl[K]		Tup[K]		RiFlag		Bs[T]
0.000000e+00	2.748642e+13	0.000000e+00	7.058823e-01	6.704804e+14	2.174788e+15	2.694589e+14	1.082895e+04	5.002393e+03	2.563199e+03	0	8.621271e-04
1.000000e+07	2.663774e+13	0.000000e+00	7.058823e-01	6.627629e+14	2.055161e+15	2.679659e+14	1.081637e+04	4.956438e+03	2.539652e+03	0	8.531610e-04
2.000000e+07	2.582784e+13	0.000000e+00	7.058823e-01	6.553806e+14	1.949810e+15	2.664841e+14	1.080394e+04	4.914516e+03	2.518171e+03	0	8.444253e-04
3.000000e+07	2.505407e+13	0.000000e+00	7.058823e-01	6.483108e+14	1.856445e+15	2.650133e+14	1.079164e+04	4.876128e+03	2.498501e+03	0	8.359070e-04
4.000000e+07	2.431390e+13	0.000000e+00	7.058823e-01	6.415319e+14	1.773231e+15	2.635535e+14	1.077947e+04	4.840855e+03	2.480427e+03	0	8.275929e-04
5.000000e+07	2.360494e+13	0.000000e+00	7.058823e-01	6.350232e+14	1.698673e+15	2.621046e+14	1.076743e+04	4.808341e+03	2.463768e+03	0	8.194696e-04
6.000000e+07	2.292499e+13	0.000000e+00	7.058823e-01	6.287659e+14	1.631550e+15	2.606666e+14	1.075552e+04	4.778285e+03	2.448367e+03	0	8.115244e-04
7.000000e+07	2.227198e+13	0.000000e+00	7.058823e-01	6.227421e+14	1.570852e+15	2.592392e+14	1.074372e+04	4.750424e+03	2.434091e+03	0	8.037447e-04
8.000000e+07	2.164402e+13	0.000000e+00	7.058823e-01	6.169358e+14	1.515739e+15	2.578224e+14	1.073203e+04	4.724536e+03	2.420826e+03	0	7.961188e-04
9.000000e+07	2.103939e+13	0.000000e+00	7.058823e-01	6.113320e+14	1.465506e+15	2.564162e+14	1.072045e+04	4.700423e+03	2.408471e+03	0	7.886354e-04
1.000000e+08	2.045649e+13	0.000000e+00	7.058823e-01	6.059170e+14	1.419559e+15	2.550204e+14	1.070898e+04	4.677916e+03	2.396938e+03	0	7.812840e-04
1.100000e+08	1.989386e+13	0.000000e+00	7.058823e-01	6.006784e+14	1.377393e+15	2.536349e+14	1.069761e+04	4.656864e+03	2.386152e+03	0	7.740546e-04
1.200000e+08	1.935017e+13	0.000000e+00	7.058823e-01	5.956046e+14	1.338576e+15	2.522598e+14	1.068633e+04	4.637136e+03	2.376043e+03	0	7.669378e-04
1.300000e+08	1.882419e+13	0.000000e+00	7.058823e-01	5.906851e+14	1.302738e+15	2.508948e+14	1.067515e+04	4.618615e+03	2.366553e+03	0	7.599249e-04
1.400000e+08	1.831480e+13	0.000000e+00	7.058823e-01	5.859102e+14	1.269560e+15	2.495399e+14	1.066407e+04	4.601197e+03	2.357628e+03	0	7.530074e-04
1.500000e+08	1.782097e+13	0.000000e+00	7.058823e-01	5.812712e+14	1.238766e+15	2.481951e+14	1.065307e+04	4.584790e+03	2.349221e+03	0	7.461778e-04
1.600000e+08	1.734175e+13	0.000000e+00	7.058823e-01	5.767597e+14	1.210113e+15	2.468601e+14	1.064216e+04	4.569311e+03	2.341290e+03	0	7.394285e-04
1.700000e+08	1.687627e+13	0.000000e+00	7.058823e-01	5.723685e+14	1.183391e+15	2.455350e+14	1.063133e+04	4.554686e+03	2.333796e+03	0	7.327526e-04
1.800000e+08	1.642373e+13	0.000000e+00	7.058823e-01	5.680904e+14	1.158415e+15	2.442197e+14	1.062059e+04	4.540848e+03	2.326706e+03	0	7.261435e-04
1.900000e+08	1.598339e+13	0.000000e+00	7.058823e-01	5.639193e+14	1.135022e+15	2.429141e+14	1.060993e+04	4.527737e+03	2.319988e+03	0	7.195950e-04
2.000000e+08	1.555457e+13	0.000000e+00	7.058823e-01	5.598491e+14	1.113067e+15	2.416181e+14	1.059934e+04	4.515298e+03	2.313614e+03	0	7.131013e-04
2.100000e+08	1.513664e+13	0.000000e+00	7.058823e-01	5.558746e+14	1.092424e+15	2.403316e+14	1.058883e+04	4.503482e+03	2.307560e+03	0	7.066565e-04
2.200000e+08	1.472902e+13	0.000000e+00	7.058823e-01	5.519906e+14	1.072978e+15	2.390546e+14	1.057840e+04	4.492244e+03	2.301801e+03	0	7.002554e-04
2.300000e+08	1.433116e+13	0.000000e+00	7.058823e-01	5.481926e+14	1.054628e+15	2.377869e+14	1.056804e+04	4.481544e+03	2.296319e+03	0	6.938928e-04
2.400000e+08	1.394258e+13	0.000000e+00	7.058823e-01	5.444761e+14	1.037283e+15	2.365285e+14	1.055774e+04	4.471343e+03	2.291092e+03	0	6.875636e-04
2.500000e+08	1.356279e+13	0.000000e+00	7.058823e-01	5.408372e+14	1.020861e+15	2.352794e+14	1.054752e+04	4.461608e+03	2.286104e+03	0	6.812632e-04
2.600000e+08	1.319138e+13	0.000000e+00	7.058823e-01	5.372723e+14	1.005290e+15	2.340394e+14	1.053737e+04	4.452308e+03	2.281338e+03	0	6.749868e-04
2.700000e+08	1.282794e+13	0.000000e+00	7.058823e-01	5.337777e+14	9.905035e+14	2.328084e+14	1.052728e+04	4.443413e+03	2.276780e+03	0	6.687300e-04
2.800000e+08	1.247209e+13	0.000000e+00	7.058823e-01	5.303503e+14	9.764413e+14	2.315865e+14	1.051726e+04	4.434897e+03	2.272417e+03	0	6.624884e-04
2.900000e+08	1.212349e+13	0.000000e+00	7.058823e-01	5.269870e+14	9.630498e+14	2.303734e+14	1.050731e+04	4.426737e+03	2.268236e+03	0	6.562578e-04
3.000000e+08	1.178182e+13	0.000000e+00	7.058823e-01	5.236851e+14	9.502799e+14	2.291692e+14	1.049741e+04	4.418909e+03	2.264225e+03	0	6.500338e-04
3.100000e+08	1.144676e+13	0.000000e+00	7.058823e-01	5.204420e+14	9.380870e+14	2.279738e+14	1.048758e+04	4.411394e+03	2.260374e+03	0	6.438124e-04
3.200000e+08	1.111803e+13	0.000000e+00	7.058823e-01	5.172550e+14	9.264304e+14	2.267871e+14	1.047781e+04	4.404171e+03	2.256673e+03	0	6.375895e-04
3.300000e+08	1.079537e+13	0.000000e+00	7.058823e-01	5.141221e+14	9.152732e+14	2.256090e+14	1.046810e+04	4.397223e+03	2.253113e+03	0	6.313610e-04
3.400000e+08	1.047853e+13	0.000000e+00	7.058823e-01	5.110409e+14	9.045815e+14	2.244394e+14	1.045845e+04	4.390534e+03	2.249686e+03	0	6.251228e-04
3.500000e+08	1.016727e+13	0.000000e+00	7.058823e-01	5.080094e+14	8.943242e+14	2.232784e+14	1.044885e+04	4.384089e+03	2.246383e+03	0	6.188708e-04
3.600000e+08	9.861376e+12	0.000000e+00	7.058823e-01	5.050259e+14	8.844729e+14	2.221258e+14	1.043932e+04	4.377873e+03	2.243198e+03	0	6.126010e-04
3.700000e+08	9.560635e+12	0.000000e+00	7.058823e-01	5.020883e+14	8.750014e+14	2.209815e+14	1.042984e+04	4.371873e+03	2.240124e+03	0	6.063091e-04
3.800000e+08	9.264855e+12	0.000000e+00	7.058823e-01	4.991952e+14	8.658858e+14	2.198455e+14	1.042041e+04	4.366077e+03	2.237154e+03	0	5.999910e-04
3.900000e+08	8.973852e+12	0.000000e+00	7.058823e-01	4.963448e+14	8.571038e+14	2.187177e+14	1.041104e+04	4.360474e+03	2.234283e+03	0	5.936423e-04
4.000000e+08	8.687455e+12	0.000000e+00	7.058823e-01	4.935357e+14	8.486351e+14	2.175980e+14	1.040172e+04	4.355053e+03	2.231505e+03	0	5.872586e-04
4.100000e+08	8.405499e+12	0.000000e+00	7.058823e-01	4.907664e+14	8.404607e+14	2.164864e+14	1.039245e+04	4.349803e+03	2.228815e+03	0	5.808353e-04
4.200000e+08	8.127831e+12	0.000000e+00	7.058823e-01	4.880357e+14	8.325633e+14	2.153829e+14	1.038324e+04	4.344717e+03	2.226209e+03	0	5.743678e-04
4.300000e+08	7.854305e+12	0.000000e+00	7.058823e-01	4.853423e+14	8.249267e+14	2.142872e+14	1.037407e+04	4.339784e+03	2.223682e+03	0	5.678511e-04
4.400000e+08	7.584784e+12	0.000000e+00	7.058823e-01	4.826848e+14	8.175360e+14	2.131995e+14	1.036496e+04	4.334997e+03	2.221229e+03	0	5.612801e-04
4.500000e+08	7.319138e+12	0.000000e+00	7.058823e-01	4.800624e+14	8.103771e+14	2.121196e+14	1.035590e+04	4.330348e+03	2.218847e+03	0	5.546494e-04
4.600000e+08	7.057242e+12	0.000000e+00	7.058823e-01	4.774737e+14	8.034373e+14	2.110474e+14	1.034688e+04	4.325831e+03	2.216532e+03	0	5.479533e-04
4.700000e+08	6.798981e+12	0.000000e+00	7.058823e-01	4.749179e+14	7.967045e+14	2.099829e+14	1.033792e+04	4.321437e+03	2.214281e+03	0	5.411859e-04
4.800000e+08	6.544243e+12	0.000000e+00	7.058823e-01	4.723940e+14	7.901676e+14	2.089261e+14	1.032900e+04	4.317162e+03	2.212090e+03	0	5.343408e-04
4.900000e+08	6.292922e+12	0.000000e+00	7.058823e-01	4.699010e+14	7.838161e+14	2.078768e+14	1.032013e+04	4.312999e+03	2.209957e+03	0	5.274112e-04
5.000000e+08	6.044920e+12	0.000000e+00	7.058823e-01	4.674381e+14	7.776404e+14	2.068350e+14	1.031131e+04	4.308943e+03	2.207879e+03	0	5.203897e-04
5.100000e+08	5.800139e+12	0.000000e+00	7.058823e-01	4.650044e+14	7.716314e+14	2.058007e+14	1.030253e+04	4.304988e+03	2.205852e+03	0	5.132686e-04
5.200000e+08	5.558490e+12	0.000000e+00	7.058823e-01	4.625991e+14	7.657807e+14	2.047737e+14	1.029380e+04	4.301129e+03	2.203875e+03	0	5.060392e-04
5.300000e+08	5.319887e+12	0.000000e+00	7.058823e-01	4.602216e+14	7.600802e+14	2.037541e+14	1.028511e+04	4.297362e+03	2.201945e+03	0	4.986923e-04
5.400000e+08	5.084246e+12	0.000000e+00	7.058823e-01	4.578710e+14	7.545227e+14	2.027417e+14	1.027647e+04	4.293683e+03	2.200060e+03	0	4.912178e-04
5.500000e+08	4.851490e+12	0.000000e+00	7.058823e-01	4.555467e+14	7.491011e+14	2.017365e+14	1.026787e+04	4.290087e+03	2.198217e+03	0	4.836044e-04
5.600000e+08	4.621544e+12	0.000000e+00	7.058823e-01	4.532480e+14	7.438091e+14	2.007385e+14	1.025932e+04	4.286571e+03	2.196415e+03	0	4.758399e-04
5.700000e+08	4.394335e+12	0.000000e+00	7.058823e-01	4.509744e+14	7.386404e+14	1.997476e+14	1.025081e+04	4.283130e+03	2.194652e+03	0	4.679107e-04
5.800000e+08	4.169797e+12	0.000000e+00	7.058823e-01	4.487251e+14	7.335893e+14	1.987637e+14	1.024234e+04	4.279762e+03	2.192926e+03	0	4.598013e-04
5.900000e+08	3.947863e+12	0.000000e+00	7.058823e-01	4.464997e+14	7.286506e+14	1.977868e+14	1.023391e+04	4.276462e+03	2.191236e+03	0	4.514946e-04
6.000000e+08	3.728471e+12	0.000000e+00	7.058823e-01	4.442975e+14	7.238190e+14	1.968167e+14	1.022553e+04	4.273229e+03	2.189579e+03	0	4.429712e-04
6.100000e+08	3.511561e+12	0.000000e+00	7.058823e-01	4.421181e+14	7.190900e+14	1.958536e+14	1.021718e+04	4.270059e+03	2.187955e+03	0	4.342088e-04
6.200000e+08	3.297075e+12	0.000000e+00	7.058823e-01	4.399609e+14	7.144589e+14	1.948972e+14	1.020888e+04	4.266949e+03	2.186361e+03	0	4.251819e-04
6.300000e+08	3.084959e+12	0.000000e+00	7.058823e-01	4.378255e+14	7.099216e+14	1.939476e+14	1.020062e+04	4.263897e+03	2.184798e+03	0	4.158611e-04
6.400000e+08	2.875159e+12	0.000000e+00	7.058823e-01	4.357114e+14	7.054740e+14	1.930048e+14	1.019240e+04	4.260900e+03	2.183262e+03	0	4.062118e-04
6.500000e+08	2.667625e+12	0.000000e+00	7.058823e-01	4.336181e+14	7.011126e+14	1.920685e+14	1.018421e+04	4.257956e+03	2.181753e+03	0	3.961930e-04
6.600000e+08	2.462308e+12	0.000000e+00	7.058823e-01	4.315453e+14	6.968336e+14	1.911388e+14	1.017607e+04	4.255063e+03	2.180271e+03	0	3.857560e-04
6.700000e+08	2.259162e+12	0.000000e+00	7.058823e-01	4.294925e+14	6.926338e+14	1.902157e+14	1.016797e+04	4.252218e+03	2.178813e+03	0	3.748415e-04
6.800000e+08	2.058141e+12	0.000000e+00	7.058823e-01	4.274592e+14	6.885100e+14	1.892990e+14	1.015990e+04	4.249420e+03	2.177380e+03	0	3.633766e-04
6.900000e+08	1.859203e+12	0.000000e+00	7.058823e-01	4.254453e+14	6.844593e+14	1.883888e+14	1.015187e+04	4.246666e+03	2.175969e+03	0	3.512698e-04
7.000000e+08	1.662304e+12	0.000000e+00	7.058823e-01	4.234501e+14	6.804788e+14	1.874850e+14	1.014388e+04	4.243956e+03	2.174580e+03	0	3.384039e-04
7.100000e+08	1.467405e+12	0.000000e+00	7.058823e-01	4.214735e+14	6.765657e+14	1.865875e+14	1.013593e+04	4.241286e+03	2.173212e+03	0	3.246250e-04
7.200000e+08	1.274468e+12	0.000000e+00	7.058823e-01	4.195150e+14	6.727177e+14	1.856963e+14	1.012802e+04	4.238656e+03	2.171864e+03	0	3.097240e-04
7.300000e+08	1.083455e+12	0.000000e+00	7.058823e-01	4.175743e+14	6.689323e+14	1.848112e+14	1.012014e+04	4.236064e+03	2.170536e+03	0	2.934059e-04
7.400000e+08	8.943289e+11	0.000000e+00	7.058823e-01	4.156512e+14	6.652073e+14	1.839324e+14	1.011230e+04	4.233509e+03	2.169227e+03	0	2.752312e-04
7.500000e+08	7.070561e+11	0.000000e+00	7.058823e-01	4.137452e+14	6.615404e+14	1.830597e+14	1.010449e+04	4.230988e+03	2.167935e+03	0	2.544973e-04
7.600000e+08	5.216026e+11	0.000000e+00	7.058823e-01	4.118562e+14	6.579296e+14	1.821931e+14	1.009672e+04	4.228502e+03	2.166661e+03	0	2.299562e-04
7.700000e+08	3.379357e+11	0.000000e+00	7.058823e-01	4.099837e+14	6.543731e+14	1.813325e+14	1.008898e+04	4.226048e+03	2.165404e+03	0	1.989802e-04
7.800000e+08	1.560240e+11	0.000000e+00	7.058823e-01	4.081276e+14	6.508688e+14	1.804779e+14	1.008128e+04	4.223625e+03	2.164163e+03	0	1.537903e-04
7.900000e+08	-2.416294e+10	0.000000e+00	7.058823e-01	4.062875e+14	6.474152e+14	1.796292e+14	1.007362e+04	4.221233e+03	2.162937e+03	0	nan
