#t		Qconv[W]	Ri[Rp]		R*[Rp]		Qc[W]		Qm[W]		Qr[W]		Tcmb[K]		Tl[K]		Tup[K]		RiFlag		Bs[T]
0.000000e+00	2.593792e+13	0.000000e+00	7.058824e-01	7.691804e+14	2.258487e+15	2.901259e+14	1.140819e+04	5.181697e+03	2.594823e+03	0	8.435664e-04
1.000000e+07	2.501698e+13	0.000000e+00	7.058824e-01	7.609482e+14	2.147274e+15	2.885184e+14	1.139541e+04	5.139759e+03	2.573822e+03	0	8.334620e-04
2.000000e+07	2.413673e+13	0.000000e+00	7.058824e-01	7.530590e+14	2.048449e+15	2.869229e+14	1.138276e+04	5.101306e+03	2.554566e+03	0	8.235697e-04
3.000000e+07	2.329431e+13	0.000000e+00	7.058824e-01	7.454887e+14	1.960149e+15	2.853393e+14	1.137024e+04	5.065933e+03	2.536852e+03	0	8.138746e-04
4.000000e+07	2.248700e+13	0.000000e+00	7.058824e-01	7.382147e+14	1.880858e+15	2.837676e+14	1.135784e+04	5.033292e+03	2.520507e+03	0	8.043618e-04
5.000000e+07	2.171232e+13	0.000000e+00	7.058824e-01	7.312162e+14	1.809326e+15	2.822075e+14	1.134557e+04	5.003090e+03	2.505383e+03	0	7.950168e-04
6.000000e+07	2.096796e+13	0.000000e+00	7.058824e-01	7.244738e+14	1.744518e+15	2.806592e+14	1.133341e+04	4.975072e+03	2.491352e+03	0	7.858258e-04
7.000000e+07	2.025178e+13	0.000000e+00	7.058824e-01	7.179698e+14	1.685570e+15	2.791223e+14	1.132136e+04	4.949016e+03	2.478304e+03	0	7.767751e-04
8.000000e+07	1.956185e+13	0.000000e+00	7.058824e-01	7.116879e+14	1.631755e+15	2.775969e+14	1.130943e+04	4.924732e+03	2.466143e+03	0	7.678520e-04
9.000000e+07	1.889638e+13	0.000000e+00	7.058824e-01	7.056133e+14	1.582456e+15	2.760828e+14	1.129759e+04	4.902050e+03	2.454785e+03	0	7.590443e-04
1.000000e+08	1.825374e+13	0.000000e+00	7.058824e-01	6.997321e+14	1.537150e+15	2.745799e+14	1.128586e+04	4.880824e+03	2.444156e+03	0	7.503401e-04
1.100000e+08	1.763242e+13	0.000000e+00	7.058824e-01	6.940320e+14	1.495389e+15	2.730882e+14	1.127423e+04	4.860922e+03	2.434189e+03	0	7.417284e-04
1.200000e+08	1.703106e+13	0.000000e+00	7.058824e-01	6.885014e+14	1.456785e+15	2.716076e+14	1.126269e+04	4.842229e+03	2.424829e+03	0	7.331983e-04
1.300000e+08	1.644840e+13	0.000000e+00	7.058824e-01	6.831297e+14	1.421005e+15	2.701379e+14	1.125124e+04	4.824642e+03	2.416022e+03	0	7.247398e-04
1.400000e+08	1.588328e+13	0.000000e+00	7.058824e-01	6.779073e+14	1.387758e+15	2.686791e+14	1.123988e+04	4.808069e+03	2.407722e+03	0	7.163429e-04
1.500000e+08	1.533463e+13	0.000000e+00	7.058824e-01	6.728253e+14	1.356792e+15	2.672311e+14	1.122861e+04	4.792428e+03	2.399890e+03	0	7.079980e-04
1.600000e+08	1.480149e+13	0.000000e+00	7.058824e-01	6.678755e+14	1.327885e+15	2.657938e+14	1.121742e+04	4.777644e+03	2.392487e+03	0	6.996960e-04
1.700000e+08	1.428295e+13	0.000000e+00	7.058824e-01	6.630504e+14	1.300841e+15	2.643671e+14	1.120631e+04	4.763652e+03	2.385480e+03	0	6.914279e-04
1.800000e+08	1.377818e+13	0.000000e+00	7.058824e-01	6.583430e+14	1.275488e+15	2.629509e+14	1.119528e+04	4.750392e+03	2.378840e+03	0	6.831848e-04
1.900000e+08	1.328642e+13	0.000000e+00	7.058824e-01	6.537468e+14	1.251675e+15	2.615451e+14	1.118434e+04	4.737807e+03	2.372538e+03	0	6.749582e-04
2.000000e+08	1.280696e+13	0.000000e+00	7.058824e-01	6.492560e+14	1.229266e+15	2.601497e+14	1.117346e+04	4.725850e+03	2.366550e+03	0	6.667396e-04
2.100000e+08	1.233914e+13	0.000000e+00	7.058824e-01	6.448650e+14	1.208140e+15	2.587646e+14	1.116267e+04	4.714475e+03	2.360854e+03	0	6.585203e-04
2.200000e+08	1.188236e+13	0.000000e+00	7.058824e-01	6.405688e+14	1.188189e+15	2.573896e+14	1.115194e+04	4.703642e+03	2.355429e+03	0	6.502920e-04
2.300000e+08	1.143605e+13	0.000000e+00	7.058824e-01	6.363626e+14	1.169318e+15	2.560247e+14	1.114129e+04	4.693312e+03	2.350256e+03	0	6.420461e-04
2.400000e+08	1.099969e+13	0.000000e+00	7.058824e-01	6.322420e+14	1.151439e+15	2.546698e+14	1.113071e+04	4.683451e+03	2.345318e+03	0	6.337740e-04
2.500000e+08	1.057281e+13	0.000000e+00	7.058824e-01	6.282030e+14	1.134474e+15	2.533248e+14	1.112019e+04	4.674029e+03	2.340600e+03	0	6.254669e-04
2.600000e+08	1.015493e+13	0.000000e+00	7.058824e-01	6.242418e+14	1.118353e+15	2.519897e+14	1.110974e+04	4.665015e+03	2.336086e+03	0	6.171156e-04
2.700000e+08	9.745650e+12	0.000000e+00	7.058824e-01	6.203547e+14	1.103013e+15	2.506644e+14	1.109936e+04	4.656385e+03	2.331764e+03	0	6.087110e-04
2.800000e+08	9.344571e+12	0.000000e+00	7.058824e-01	6.165386e+14	1.088394e+15	2.493487e+14	1.108904e+04	4.648112e+03	2.327621e+03	0	6.002433e-04
2.900000e+08	8.951325e+12	0.000000e+00	7.058824e-01	6.127903e+14	1.074446e+15	2.480426e+14	1.107879e+04	4.640175e+03	2.323647e+03	0	5.917024e-04
3.000000e+08	8.565571e+12	0.000000e+00	7.058824e-01	6.091069e+14	1.061120e+15	2.467460e+14	1.106860e+04	4.632553e+03	2.319830e+03	0	5.830776e-04
3.100000e+08	8.186987e+12	0.000000e+00	7.058824e-01	6.054858e+14	1.048373e+15	2.454589e+14	1.105847e+04	4.625226e+03	2.316161e+03	0	5.743575e-04
3.200000e+08	7.815274e+12	0.000000e+00	7.058824e-01	6.019243e+14	1.036164e+15	2.441812e+14	1.104840e+04	4.618177e+03	2.312631e+03	0	5.655300e-04
3.300000e+08	7.450151e+12	0.000000e+00	7.058824e-01	5.984202e+14	1.024458e+15	2.429127e+14	1.103839e+04	4.611389e+03	2.309232e+03	0	5.565821e-04
3.400000e+08	7.091352e+12	0.000000e+00	7.058824e-01	5.949711e+14	1.013222e+15	2.416535e+14	1.102843e+04	4.604847e+03	2.305956e+03	0	5.474997e-04
3.500000e+08	6.738629e+12	0.000000e+00	7.058824e-01	5.915751e+14	1.002424e+15	2.404034e+14	1.101854e+04	4.598536e+03	2.302796e+03	0	5.382674e-04
3.600000e+08	6.391751e+12	0.000000e+00	7.058824e-01	5.882301e+14	9.920372e+14	2.391623e+14	1.100870e+04	4.592444e+03	2.299745e+03	0	5.288682e-04
3.700000e+08	6.050496e+12	0.000000e+00	7.058824e-01	5.849343e+14	9.820349e+14	2.379303e+14	1.099891e+04	4.586557e+03	2.296797e+03	0	5.192835e-04
3.800000e+08	5.714658e+12	0.000000e+00	7.058824e-01	5.816859e+14	9.723935e+14	2.367072e+14	1.098918e+04	4.580865e+03	2.293946e+03	0	5.094923e-04
3.900000e+08	5.384043e+12	0.000000e+00	7.058824e-01	5.784833e+14	9.630912e+14	2.354929e+14	1.097951e+04	4.575355e+03	2.291187e+03	0	4.994712e-04
4.000000e+08	5.058467e+12	0.000000e+00	7.058824e-01	5.753249e+14	9.541074e+14	2.342873e+14	1.096989e+04	4.570020e+03	2.288515e+03	0	4.891933e-04
4.100000e+08	4.737756e+12	0.000000e+00	7.058824e-01	5.722092e+14	9.454235e+14	2.330905e+14	1.096032e+04	4.564848e+03	2.285926e+03	0	4.786284e-04
4.200000e+08	4.421746e+12	0.000000e+00	7.058824e-01	5.691350e+14	9.370220e+14	2.319023e+14	1.095080e+04	4.559832e+03	2.283414e+03	0	4.677410e-04
4.300000e+08	4.110282e+12	0.000000e+00	7.058824e-01	5.661007e+14	9.288867e+14	2.307226e+14	1.094133e+04	4.554963e+03	2.280975e+03	0	4.564902e-04
4.400000e+08	3.803216e+12	0.000000e+00	7.058824e-01	5.631053e+14	9.210028e+14	2.295515e+14	1.093191e+04	4.550233e+03	2.278607e+03	0	4.448271e-04
4.500000e+08	3.500411e+12	0.000000e+00	7.058824e-01	5.601475e+14	9.133562e+14	2.283887e+14	1.092255e+04	4.545635e+03	2.276304e+03	0	4.326937e-04
4.600000e+08	3.201734e+12	0.000000e+00	7.058824e-01	5.572262e+14	9.059340e+14	2.272343e+14	1.091323e+04	4.541163e+03	2.274065e+03	0	4.200193e-04
4.700000e+08	2.907059e+12	0.000000e+00	7.058824e-01	5.543403e+14	8.987241e+14	2.260882e+14	1.090396e+04	4.536809e+03	2.271885e+03	0	4.067169e-04
4.800000e+08	2.616269e+12	0.000000e+00	7.058824e-01	5.514889e+14	8.917153e+14	2.249503e+14	1.089474e+04	4.532569e+03	2.269761e+03	0	3.926766e-04
4.900000e+08	2.329249e+12	0.000000e+00	7.058824e-01	5.486709e+14	8.848971e+14	2.238205e+14	1.088557e+04	4.528436e+03	2.267692e+03	0	3.777573e-04
5.000000e+08	2.045894e+12	0.000000e+00	7.058824e-01	5.458855e+14	8.782598e+14	2.226988e+14	1.087644e+04	4.524405e+03	2.265673e+03	0	3.617722e-04
5.100000e+08	1.766100e+12	0.000000e+00	7.058824e-01	5.431318e+14	8.717941e+14	2.215852e+14	1.086736e+04	4.520471e+03	2.263703e+03	0	3.444657e-04
5.200000e+08	1.489770e+12	0.000000e+00	7.058824e-01	5.404089e+14	8.654915e+14	2.204794e+14	1.085832e+04	4.516630e+03	2.261780e+03	0	3.254722e-04
5.300000e+08	1.216811e+12	0.000000e+00	7.058824e-01	5.377160e+14	8.593439e+14	2.193816e+14	1.084933e+04	4.512877e+03	2.259900e+03	0	3.042393e-04
5.400000e+08	9.471358e+11	0.000000e+00	7.058824e-01	5.350525e+14	8.533440e+14	2.182916e+14	1.084039e+04	4.509208e+03	2.258063e+03	0	2.798627e-04
5.500000e+08	6.806589e+11	0.000000e+00	7.058824e-01	5.324176e+14	8.474846e+14	2.172093e+14	1.083149e+04	4.505618e+03	2.256265e+03	0	2.506787e-04
5.600000e+08	4.173001e+11	0.000000e+00	7.058824e-01	5.298105e+14	8.417592e+14	2.161348e+14	1.082263e+04	4.502105e+03	2.254506e+03	0	2.129562e-04
5.700000e+08	1.569821e+11	0.000000e+00	7.058824e-01	5.272307e+14	8.361616e+14	2.150678e+14	1.081382e+04	4.498665e+03	2.252783e+03	0	1.537296e-04
5.800000e+08	-1.003686e+11	0.000000e+00	7.058824e-01	5.246775e+14	8.306858e+14	2.140085e+14	1.080504e+04	4.495294e+03	2.251095e+03	0	nan
