#t		Qconv[W]	Ri[Rp]		R*[Rp]		Qc[W]		Qm[W]		Qr[W]		Tcmb[K]		Tl[K]		Tup[K]		RiFlag		Bs[T]
0.000000e+00	2.042686e+13	0.000000e+00	7.058821e-01	8.052952e+14	2.273603e+15	3.035609e+14	1.172052e+04	5.282771e+03	2.617532e+03	0	7.780566e-04
1.000000e+07	1.950997e+13	0.000000e+00	7.058821e-01	7.971626e+14	2.169865e+15	3.018790e+14	1.170809e+04	5.243595e+03	2.598122e+03	0	7.662366e-04
2.000000e+07	1.863259e+13	0.000000e+00	7.058821e-01	7.893581e+14	2.077086e+15	3.002096e+14	1.169579e+04	5.207528e+03	2.580251e+03	0	7.545739e-04
3.000000e+07	1.779191e+13	0.000000e+00	7.058821e-01	7.818586e+14	1.993699e+15	2.985527e+14	1.168361e+04	5.174224e+03	2.563749e+03	0	7.430503e-04
4.000000e+07	1.698533e+13	0.000000e+00	7.058821e-01	7.746426e+14	1.918412e+15	2.969082e+14	1.167154e+04	5.143388e+03	2.548470e+03	0	7.316477e-04
5.000000e+07	1.621045e+13	0.000000e+00	7.058821e-01	7.676904e+14	1.850154e+15	2.952759e+14	1.165959e+04	5.114763e+03	2.534287e+03	0	7.203481e-04
6.000000e+07	1.546506e+13	0.000000e+00	7.058821e-01	7.609837e+14	1.788026e+15	2.936558e+14	1.164774e+04	5.088129e+03	2.521090e+03	0	7.091333e-04
7.000000e+07	1.474713e+13	0.000000e+00	7.058821e-01	7.545060e+14	1.731275e+15	2.920478e+14	1.163599e+04	5.063291e+03	2.508784e+03	0	6.979856e-04
8.000000e+07	1.405479e+13	0.000000e+00	7.058821e-01	7.482418e+14	1.679259e+15	2.904517e+14	1.162435e+04	5.040082e+03	2.497284e+03	0	6.868872e-04
9.000000e+07	1.338634e+13	0.000000e+00	7.058821e-01	7.421771e+14	1.631433e+15	2.888675e+14	1.161280e+04	5.018352e+03	2.486517e+03	0	6.758204e-04
1.000000e+08	1.274022e+13	0.000000e+00	7.058821e-01	7.362990e+14	1.587329e+15	2.872951e+14	1.160134e+04	4.997970e+03	2.476418e+03	0	6.647673e-04
1.100000e+08	1.211499e+13	0.000000e+00	7.058821e-01	7.305958e+14	1.546544e+15	2.857343e+14	1.158997e+04	4.978818e+03	2.466928e+03	0	6.537098e-04
1.200000e+08	1.150933e+13	0.000000e+00	7.058821e-01	7.250564e+14	1.508729e+15	2.841851e+14	1.157870e+04	4.960793e+03	2.457997e+03	0	6.426295e-04
1.300000e+08	1.092203e+13	0.000000e+00	7.058821e-01	7.196710e+14	1.473581e+15	2.826474e+14	1.156750e+04	4.943801e+03	2.449578e+03	0	6.315075e-04
1.400000e+08	1.035199e+13	0.000000e+00	7.058821e-01	7.144304e+14	1.440834e+15	2.811210e+14	1.155640e+04	4.927761e+03	2.441630e+03	0	6.203240e-04
1.500000e+08	9.798167e+12	0.000000e+00	7.058821e-01	7.093261e+14	1.410257e+15	2.796060e+14	1.154537e+04	4.912596e+03	2.434116e+03	0	6.090584e-04
1.600000e+08	9.259632e+12	0.000000e+00	7.058821e-01	7.043504e+14	1.381645e+15	2.781021e+14	1.153442e+04	4.898239e+03	2.427003e+03	0	5.976890e-04
1.700000e+08	8.735510e+12	0.000000e+00	7.058821e-01	6.994960e+14	1.354818e+15	2.766093e+14	1.152354e+04	4.884629e+03	2.420259e+03	0	5.861923e-04
1.800000e+08	8.224997e+12	0.000000e+00	7.058821e-01	6.947563e+14	1.329616e+15	2.751275e+14	1.151275e+04	4.871712e+03	2.413859e+03	0	5.745431e-04
1.900000e+08	7.727351e+12	0.000000e+00	7.058821e-01	6.901253e+14	1.305897e+15	2.736567e+14	1.150202e+04	4.859436e+03	2.407776e+03	0	5.627138e-04
2.000000e+08	7.241885e+12	0.000000e+00	7.058821e-01	6.855972e+14	1.283533e+15	2.721966e+14	1.149137e+04	4.847756e+03	2.401989e+03	0	5.506740e-04
2.100000e+08	6.767960e+12	0.000000e+00	7.058821e-01	6.811667e+14	1.262412e+15	2.707473e+14	1.148078e+04	4.836630e+03	2.396477e+03	0	5.383895e-04
2.200000e+08	6.304985e+12	0.000000e+00	7.058821e-01	6.768290e+14	1.242433e+15	2.693087e+14	1.147027e+04	4.826021e+03	2.391220e+03	0	5.258219e-04
2.300000e+08	5.852412e+12	0.000000e+00	7.058821e-01	6.725795e+14	1.223503e+15	2.678806e+14	1.145982e+04	4.815893e+03	2.386202e+03	0	5.129271e-04
2.400000e+08	5.409730e+12	0.000000e+00	7.058821e-01	6.684140e+14	1.205541e+15	2.664629e+14	1.144943e+04	4.806214e+03	2.381406e+03	0	4.996538e-04
2.500000e+08	4.976464e+12	0.000000e+00	7.058821e-01	6.643285e+14	1.188472e+15	2.650557e+14	1.143911e+04	4.796955e+03	2.376818e+03	0	4.859419e-04
2.600000e+08	4.552170e+12	0.000000e+00	7.058821e-01	6.603194e+14	1.172230e+15	2.636588e+14	1.142886e+04	4.788089e+03	2.372425e+03	0	4.717192e-04
2.700000e+08	4.136436e+12	0.000000e+00	7.058821e-01	6.563833e+14	1.156754e+15	2.622720e+14	1.141866e+04	4.779591e+03	2.368215e+03	0	4.568982e-04
2.800000e+08	3.728876e+12	0.000000e+00	7.058821e-01	6.525169e+14	1.141987e+15	2.608954e+14	1.140853e+04	4.771438e+03	2.364175e+03	0	4.413705e-04
2.900000e+08	3.329129e+12	0.000000e+00	7.058821e-01	6.487174e+14	1.127880e+15	2.595289e+14	1.139846e+04	4.763608e+03	2.360295e+03	0	4.249986e-04
3.000000e+08	2.936857e+12	0.000000e+00	7.058821e-01	6.449818e+14	1.114387e+15	2.581723e+14	1.138844e+04	4.756082e+03	2.356566e+03	0	4.076039e-04
3.100000e+08	2.551745e+12	0.000000e+00	7.058821e-01	6.413075e+14	1.101466e+15	2.568256e+14	1.137848e+04	4.748842e+03	2.352979e+03	0	3.889464e-04
3.200000e+08	2.173497e+12	0.000000e+00	7.058821e-01	6.376922e+14	1.089078e+15	2.554886e+14	1.136858e+04	4.741871e+03	2.349525e+03	0	3.686920e-04
3.300000e+08	1.801833e+12	0.000000e+00	7.058821e-01	6.341334e+14	1.077188e+15	2.541615e+14	1.135873e+04	4.735153e+03	2.346196e+03	0	3.463503e-04
3.400000e+08	1.436494e+12	0.000000e+00	7.058821e-01	6.306290e+14	1.065764e+15	2.528439e+14	1.134894e+04	4.728673e+03	2.342985e+03	0	3.211530e-04
3.500000e+08	1.077233e+12	0.000000e+00	7.058821e-01	6.271770e+14	1.054776e+15	2.515359e+14	1.133921e+04	4.722418e+03	2.339886e+03	0	2.917745e-04
3.600000e+08	7.238203e+11	0.000000e+00	7.058821e-01	6.237755e+14	1.044196e+15	2.502374e+14	1.132952e+04	4.716375e+03	2.336892e+03	0	2.555569e-04
3.700000e+08	3.760373e+11	0.000000e+00	7.058821e-01	6.204226e+14	1.034000e+15	2.489483e+14	1.131989e+04	4.710532e+03	2.333997e+03	0	2.054413e-04
3.800000e+08	3.367925e+10	0.000000e+00	7.058821e-01	6.171166e+14	1.024164e+15	2.476685e+14	1.131031e+04	4.704879e+03	2.331196e+03	0	9.191749e-05
3.900000e+08	-3.034472e+11	0.000000e+00	7.058821e-01	6.138559e+14	1.014666e+15	2.463980e+14	1.130078e+04	4.699404e+03	2.328483e+03	0	nan
