#t		Qconv[W]	Ri[Rp]		R*[Rp]		Qc[W]		Qm[W]		Qr[W]		Tcmb[K]		Tl[K]		Tup[K]		RiFlag		Bs[T]
0.000000e+00	2.560846e+13	0.000000e+00	5.813951e-01	4.504288e+14	5.964973e+13	1.653322e+14	1.021554e+04	3.660674e+03	2.527317e+03	0	9.978205e-04
1.000000e+07	2.514088e+13	0.000000e+00	5.813951e-01	4.426688e+14	6.321307e+13	1.644161e+14	1.016577e+04	3.692007e+03	2.548949e+03	0	9.917102e-04
2.000000e+07	2.468295e+13	0.000000e+00	5.813951e-01	4.350681e+14	6.685233e+13	1.635069e+14	1.011685e+04	3.722645e+03	2.570102e+03	0	9.856521e-04
3.000000e+07	2.423442e+13	0.000000e+00	5.813951e-01	4.276229e+14	7.056203e+13	1.626045e+14	1.006876e+04	3.752595e+03	2.590779e+03	0	9.796452e-04
4.000000e+07	2.379506e+13	0.000000e+00	5.813951e-01	4.203294e+14	7.433648e+13	1.617088e+14	1.002149e+04	3.781860e+03	2.610984e+03	0	9.736889e-04
5.000000e+07	2.336467e+13	0.000000e+00	5.813951e-01	4.131842e+14	7.816985e+13	1.608198e+14	9.975015e+03	3.810448e+03	2.630721e+03	0	9.677826e-04
6.000000e+07	2.294303e+13	0.000000e+00	5.813951e-01	4.061837e+14	8.205616e+13	1.599374e+14	9.929327e+03	3.838362e+03	2.649993e+03	0	9.619257e-04
7.000000e+07	2.252995e+13	0.000000e+00	5.813951e-01	3.993248e+14	8.598938e+13	1.590616e+14	9.884407e+03	3.865610e+03	2.668805e+03	0	9.561177e-04
8.000000e+07	2.212523e+13	0.000000e+00	5.813951e-01	3.926043e+14	8.996340e+13	1.581923e+14	9.840239e+03	3.892197e+03	2.687160e+03	0	9.503580e-04
9.000000e+07	2.172870e+13	0.000000e+00	5.813951e-01	3.860192e+14	9.397206e+13	1.573295e+14	9.796810e+03	3.918129e+03	2.705063e+03	0	9.446463e-04
1.000000e+08	2.134018e+13	0.000000e+00	5.813951e-01	3.795665e+14	9.800916e+13	1.564731e+14	9.754104e+03	3.943412e+03	2.722518e+03	0	9.389821e-04
1.100000e+08	2.095950e+13	0.000000e+00	5.813951e-01	3.732435e+14	1.020686e+14	1.556230e+14	9.712107e+03	3.968052e+03	2.739530e+03	0	9.333652e-04
1.200000e+08	2.058649e+13	0.000000e+00	5.813951e-01	3.670475e+14	1.061442e+14	1.547793e+14	9.670804e+03	3.992057e+03	2.756103e+03	0	9.277951e-04
1.300000e+08	2.022100e+13	0.000000e+00	5.813951e-01	3.609758e+14	1.102299e+14	1.539418e+14	9.630182e+03	4.015433e+03	2.772242e+03	0	9.222716e-04
1.400000e+08	1.986288e+13	0.000000e+00	5.813951e-01	3.550260e+14	1.143198e+14	1.531104e+14	9.590228e+03	4.038187e+03	2.787951e+03	0	9.167945e-04
1.500000e+08	1.951197e+13	0.000000e+00	5.813951e-01	3.491955e+14	1.184079e+14	1.522853e+14	9.550927e+03	4.060327e+03	2.803236e+03	0	9.113635e-04
1.600000e+08	1.916813e+13	0.000000e+00	5.813951e-01	3.434820e+14	1.224885e+14	1.514662e+14	9.512268e+03	4.081858e+03	2.818102e+03	0	9.059784e-04
1.700000e+08	1.883122e+13	0.000000e+00	5.813951e-01	3.378831e+14	1.265560e+14	1.506532e+14	9.474237e+03	4.102790e+03	2.832553e+03	0	9.006390e-04
1.800000e+08	1.850110e+13	0.000000e+00	5.813951e-01	3.323967e+14	1.306050e+14	1.498461e+14	9.436822e+03	4.123130e+03	2.846596e+03	0	8.953452e-04
1.900000e+08	1.817765e+13	0.000000e+00	5.813951e-01	3.270204e+14	1.346301e+14	1.490450e+14	9.400010e+03	4.142886e+03	2.860235e+03	0	8.900967e-04
2.000000e+08	1.786073e+13	0.000000e+00	5.813951e-01	3.217523e+14	1.386262e+14	1.482498e+14	9.363790e+03	4.162065e+03	2.873476e+03	0	8.848935e-04
2.100000e+08	1.755021e+13	0.000000e+00	5.813951e-01	3.165900e+14	1.425884e+14	1.474605e+14	9.328150e+03	4.180677e+03	2.886326e+03	0	8.797355e-04
2.200000e+08	1.724598e+13	0.000000e+00	5.813951e-01	3.115317e+14	1.465121e+14	1.466769e+14	9.293078e+03	4.198729e+03	2.898789e+03	0	8.746224e-04
2.300000e+08	1.694791e+13	0.000000e+00	5.813951e-01	3.065752e+14	1.503927e+14	1.458991e+14	9.258563e+03	4.216230e+03	2.910871e+03	0	8.695542e-04
2.400000e+08	1.665587e+13	0.000000e+00	5.813951e-01	3.017187e+14	1.542260e+14	1.451270e+14	9.224594e+03	4.233188e+03	2.922579e+03	0	8.645307e-04
2.500000e+08	1.636976e+13	0.000000e+00	5.813951e-01	2.969602e+14	1.580079e+14	1.443606e+14	9.191160e+03	4.249613e+03	2.933919e+03	0	8.595518e-04
2.600000e+08	1.608946e+13	0.000000e+00	5.813951e-01	2.922977e+14	1.617347e+14	1.435998e+14	9.158250e+03	4.265513e+03	2.944896e+03	0	8.546174e-04
2.700000e+08	1.581485e+13	0.000000e+00	5.813951e-01	2.877295e+14	1.654028e+14	1.428445e+14	9.125853e+03	4.280897e+03	2.955517e+03	0	8.497275e-04
2.800000e+08	1.554583e+13	0.000000e+00	5.813951e-01	2.832536e+14	1.690088e+14	1.420947e+14	9.093960e+03	4.295774e+03	2.965788e+03	0	8.448817e-04
2.900000e+08	1.528228e+13	0.000000e+00	5.813951e-01	2.788683e+14	1.725498e+14	1.413504e+14	9.062560e+03	4.310154e+03	2.975716e+03	0	8.400801e-04
3.000000e+08	1.502411e+13	0.000000e+00	5.813951e-01	2.745718e+14	1.760228e+14	1.406116e+14	9.031644e+03	4.324045e+03	2.985307e+03	0	8.353225e-04
3.100000e+08	1.477119e+13	0.000000e+00	5.813951e-01	2.703624e+14	1.794252e+14	1.398781e+14	9.001201e+03	4.337457e+03	2.994566e+03	0	8.306087e-04
3.200000e+08	1.452344e+13	0.000000e+00	5.813951e-01	2.662383e+14	1.827548e+14	1.391500e+14	8.971222e+03	4.350400e+03	3.003502e+03	0	8.259386e-04
3.300000e+08	1.428074e+13	0.000000e+00	5.813951e-01	2.621979e+14	1.860093e+14	1.384271e+14	8.941698e+03	4.362881e+03	3.012119e+03	0	8.213120e-04
3.400000e+08	1.404300e+13	0.000000e+00	5.813951e-01	2.582394e+14	1.891868e+14	1.377095e+14	8.912620e+03	4.374912e+03	3.020425e+03	0	8.167288e-04
3.500000e+08	1.381011e+13	0.000000e+00	5.813951e-01	2.543612e+14	1.922856e+14	1.369971e+14	8.883978e+03	4.386500e+03	3.028425e+03	0	8.121888e-04
3.600000e+08	1.358198e+13	0.000000e+00	5.813951e-01	2.505617e+14	1.953044e+14	1.362899e+14	8.855764e+03	4.397656e+03	3.036127e+03	0	8.076918e-04
3.700000e+08	1.335851e+13	0.000000e+00	5.813951e-01	2.468394e+14	1.982419e+14	1.355878e+14	8.827969e+03	4.408389e+03	3.043537e+03	0	8.032375e-04
3.800000e+08	1.313961e+13	0.000000e+00	5.813951e-01	2.431925e+14	2.010969e+14	1.348908e+14	8.800585e+03	4.418708e+03	3.050661e+03	0	7.988259e-04
3.900000e+08	1.292518e+13	0.000000e+00	5.813951e-01	2.396196e+14	2.038686e+14	1.341988e+14	8.773603e+03	4.428621e+03	3.057506e+03	0	7.944565e-04
4.000000e+08	1.271513e+13	0.000000e+00	5.813951e-01	2.361191e+14	2.065564e+14	1.335118e+14	8.747016e+03	4.438140e+03	3.064077e+03	0	7.901293e-04
4.100000e+08	1.250936e+13	0.000000e+00	5.813951e-01	2.326896e+14	2.091597e+14	1.328298e+14	8.720815e+03	4.447272e+03	3.070382e+03	0	7.858440e-04
4.200000e+08	1.230780e+13	0.000000e+00	5.813951e-01	2.293295e+14	2.116783e+14	1.321527e+14	8.694993e+03	4.456026e+03	3.076426e+03	0	7.816004e-04
4.300000e+08	1.211034e+13	0.000000e+00	5.813951e-01	2.260374e+14	2.141121e+14	1.314804e+14	8.669542e+03	4.464413e+03	3.082216e+03	0	7.773980e-04
4.400000e+08	1.191691e+13	0.000000e+00	5.813951e-01	2.228119e+14	2.164609e+14	1.308130e+14	8.644454e+03	4.472440e+03	3.087758e+03	0	7.732368e-04
4.500000e+08	1.172742e+13	0.000000e+00	5.813951e-01	2.196514e+14	2.187250e+14	1.301504e+14	8.619723e+03	4.480116e+03	3.093057e+03	0	7.691164e-04
4.600000e+08	1.154177e+13	0.000000e+00	5.813951e-01	2.165547e+14	2.209047e+14	1.294926e+14	8.595341e+03	4.487451e+03	3.098121e+03	0	7.650365e-04
4.700000e+08	1.135990e+13	0.000000e+00	5.813951e-01	2.135204e+14	2.230004e+14	1.288394e+14	8.571300e+03	4.494452e+03	3.102955e+03	0	7.609968e-04
4.800000e+08	1.118172e+13	0.000000e+00	5.813951e-01	2.105471e+14	2.250126e+14	1.281910e+14	8.547595e+03	4.501129e+03	3.107564e+03	0	7.569970e-04
4.900000e+08	1.100714e+13	0.000000e+00	5.813951e-01	2.076335e+14	2.269420e+14	1.275472e+14	8.524219e+03	4.507489e+03	3.111956e+03	0	7.530367e-04
5.000000e+08	1.083610e+13	0.000000e+00	5.813951e-01	2.047783e+14	2.287893e+14	1.269080e+14	8.501164e+03	4.513542e+03	3.116134e+03	0	7.491157e-04
5.100000e+08	1.066850e+13	0.000000e+00	5.813951e-01	2.019802e+14	2.305555e+14	1.262733e+14	8.478425e+03	4.519294e+03	3.120106e+03	0	7.452336e-04
5.200000e+08	1.050428e+13	0.000000e+00	5.813951e-01	1.992379e+14	2.322415e+14	1.256432e+14	8.455996e+03	4.524755e+03	3.123876e+03	0	7.413901e-04
5.300000e+08	1.034336e+13	0.000000e+00	5.813951e-01	1.965503e+14	2.338483e+14	1.250176e+14	8.433869e+03	4.529933e+03	3.127451e+03	0	7.375847e-04
5.400000e+08	1.018568e+13	0.000000e+00	5.813951e-01	1.939161e+14	2.353770e+14	1.243964e+14	8.412039e+03	4.534834e+03	3.130834e+03	0	7.338172e-04
5.500000e+08	1.003114e+13	0.000000e+00	5.813951e-01	1.913341e+14	2.368289e+14	1.237797e+14	8.390501e+03	4.539467e+03	3.134033e+03	0	7.300872e-04
5.600000e+08	9.879692e+12	0.000000e+00	5.813951e-01	1.888032e+14	2.382050e+14	1.231673e+14	8.369248e+03	4.543839e+03	3.137052e+03	0	7.263943e-04
5.700000e+08	9.731259e+12	0.000000e+00	5.813951e-01	1.863222e+14	2.395068e+14	1.225593e+14	8.348275e+03	4.547958e+03	3.139895e+03	0	7.227381e-04
5.800000e+08	9.585774e+12	0.000000e+00	5.813951e-01	1.838899e+14	2.407357e+14	1.219556e+14	8.327577e+03	4.551830e+03	3.142569e+03	0	7.191183e-04
5.900000e+08	9.443170e+12	0.000000e+00	5.813951e-01	1.815054e+14	2.418928e+14	1.213562e+14	8.307147e+03	4.555464e+03	3.145077e+03	0	7.155345e-04
6.000000e+08	9.303383e+12	0.000000e+00	5.813951e-01	1.791675e+14	2.429798e+14	1.207610e+14	8.286981e+03	4.558865e+03	3.147425e+03	0	7.119862e-04
6.100000e+08	9.166347e+12	0.000000e+00	5.813951e-01	1.768751e+14	2.439980e+14	1.201701e+14	8.267074e+03	4.562041e+03	3.149618e+03	0	7.084732e-04
6.200000e+08	9.032002e+12	0.000000e+00	5.813951e-01	1.746273e+14	2.449490e+14	1.195833e+14	8.247421e+03	4.564998e+03	3.151660e+03	0	7.049949e-04
6.300000e+08	8.900285e+12	0.000000e+00	5.813951e-01	1.724230e+14	2.458341e+14	1.190006e+14	8.228016e+03	4.567743e+03	3.153555e+03	0	7.015510e-04
6.400000e+08	8.771137e+12	0.000000e+00	5.813951e-01	1.702612e+14	2.466550e+14	1.184221e+14	8.208855e+03	4.570282e+03	3.155308e+03	0	6.981412e-04
6.500000e+08	8.644499e+12	0.000000e+00	5.813951e-01	1.681410e+14	2.474133e+14	1.178476e+14	8.189933e+03	4.572622e+03	3.156923e+03	0	6.947649e-04
6.600000e+08	8.520313e+12	0.000000e+00	5.813951e-01	1.660614e+14	2.481103e+14	1.172772e+14	8.171246e+03	4.574768e+03	3.158405e+03	0	6.914219e-04
6.700000e+08	8.398523e+12	0.000000e+00	5.813951e-01	1.640215e+14	2.487477e+14	1.167108e+14	8.152789e+03	4.576727e+03	3.159757e+03	0	6.881117e-04
6.800000e+08	8.279075e+12	0.000000e+00	5.813951e-01	1.620203e+14	2.493270e+14	1.161484e+14	8.134558e+03	4.578504e+03	3.160984e+03	0	6.848339e-04
6.900000e+08	8.161915e+12	0.000000e+00	5.813951e-01	1.600571e+14	2.498497e+14	1.155899e+14	8.116548e+03	4.580105e+03	3.162089e+03	0	6.815881e-04
7.000000e+08	8.046990e+12	0.000000e+00	5.813951e-01	1.581309e+14	2.503175e+14	1.150353e+14	8.098756e+03	4.581535e+03	3.163077e+03	0	6.783739e-04
7.100000e+08	7.934249e+12	0.000000e+00	5.813951e-01	1.562408e+14	2.507317e+14	1.144847e+14	8.081176e+03	4.582800e+03	3.163950e+03	0	6.751909e-04
7.200000e+08	7.823642e+12	0.000000e+00	5.813951e-01	1.543862e+14	2.510940e+14	1.139378e+14	8.063807e+03	4.583905e+03	3.164713e+03	0	6.720387e-04
7.300000e+08	7.715119e+12	0.000000e+00	5.813951e-01	1.525660e+14	2.514059e+14	1.133948e+14	8.046642e+03	4.584856e+03	3.165369e+03	0	6.689169e-04
7.400000e+08	7.608634e+12	0.000000e+00	5.813951e-01	1.507797e+14	2.516688e+14	1.128556e+14	8.029679e+03	4.585656e+03	3.165922e+03	0	6.658251e-04
7.500000e+08	7.504140e+12	0.000000e+00	5.813951e-01	1.490263e+14	2.518843e+14	1.123201e+14	8.012914e+03	4.586312e+03	3.166375e+03	0	6.627630e-04
7.600000e+08	7.401590e+12	0.000000e+00	5.813951e-01	1.473051e+14	2.520538e+14	1.117884e+14	7.996343e+03	4.586827e+03	3.166731e+03	0	6.597301e-04
7.700000e+08	7.300940e+12	0.000000e+00	5.813951e-01	1.456155e+14	2.521787e+14	1.112604e+14	7.979963e+03	4.587207e+03	3.166993e+03	0	6.567260e-04
7.800000e+08	7.202148e+12	0.000000e+00	5.813951e-01	1.439566e+14	2.522605e+14	1.107360e+14	7.963770e+03	4.587456e+03	3.167164e+03	0	6.537504e-04
7.900000e+08	7.105169e+12	0.000000e+00	5.813951e-01	1.423278e+14	2.523005e+14	1.102153e+14	7.947761e+03	4.587577e+03	3.167248e+03	0	6.508028e-04
8.000000e+08	7.009964e+12	0.000000e+00	5.813951e-01	1.407284e+14	2.523002e+14	1.096982e+14	7.931932e+03	4.587576e+03	3.167248e+03	0	6.478830e-04
8.100000e+08	6.916492e+12	0.000000e+00	5.813951e-01	1.391577e+14	2.522609e+14	1.091846e+14	7.916280e+03	4.587457e+03	3.167165e+03	0	6.449904e-04
8.200000e+08	6.824713e+12	0.000000e+00	5.813951e-01	1.376151e+14	2.521839e+14	1.086747e+14	7.900803e+03	4.587223e+03	3.167004e+03	0	6.421248e-04
8.300000e+08	6.734588e+12	0.000000e+00	5.813951e-01	1.361000e+14	2.520705e+14	1.081682e+14	7.885496e+03	4.586878e+03	3.166766e+03	0	6.392857e-04
8.400000e+08	6.646081e+12	0.000000e+00	5.813951e-01	1.346117e+14	2.519220e+14	1.076653e+14	7.870357e+03	4.586427e+03	3.166454e+03	0	6.364728e-04
8.500000e+08	6.559155e+12	0.000000e+00	5.813951e-01	1.331496e+14	2.517397e+14	1.071658e+14	7.855383e+03	4.585872e+03	3.166071e+03	0	6.336857e-04
8.600000e+08	6.473773e+12	0.000000e+00	5.813951e-01	1.317132e+14	2.515248e+14	1.066697e+14	7.840571e+03	4.585218e+03	3.165619e+03	0	6.309241e-04
8.700000e+08	6.389902e+12	0.000000e+00	5.813951e-01	1.303018e+14	2.512784e+14	1.061771e+14	7.825919e+03	4.584468e+03	3.165101e+03	0	6.281876e-04
8.800000e+08	6.307507e+12	0.000000e+00	5.813951e-01	1.289149e+14	2.510018e+14	1.056879e+14	7.811423e+03	4.583624e+03	3.164519e+03	0	6.254758e-04
8.900000e+08	6.226555e+12	0.000000e+00	5.813951e-01	1.275519e+14	2.506961e+14	1.052020e+14	7.797080e+03	4.582691e+03	3.163875e+03	0	6.227885e-04
9.000000e+08	6.147014e+12	0.000000e+00	5.813951e-01	1.262124e+14	2.503624e+14	1.047195e+14	7.782889e+03	4.581672e+03	3.163171e+03	0	6.201252e-04
9.100000e+08	6.068852e+12	0.000000e+00	5.813951e-01	1.248958e+14	2.500017e+14	1.042402e+14	7.768846e+03	4.580570e+03	3.162410e+03	0	6.174856e-04
9.200000e+08	5.992039e+12	0.000000e+00	5.813951e-01	1.236015e+14	2.496152e+14	1.037643e+14	7.754949e+03	4.579387e+03	3.161594e+03	0	6.148694e-04
9.300000e+08	5.916545e+12	0.000000e+00	5.813951e-01	1.223292e+14	2.492038e+14	1.032916e+14	7.741196e+03	4.578126e+03	3.160723e+03	0	6.122762e-04
9.400000e+08	5.842340e+12	0.000000e+00	5.813951e-01	1.210783e+14	2.487687e+14	1.028221e+14	7.727583e+03	4.576791e+03	3.159802e+03	0	6.097057e-04
9.500000e+08	5.769397e+12	0.000000e+00	5.813951e-01	1.198483e+14	2.483106e+14	1.023559e+14	7.714110e+03	4.575384e+03	3.158830e+03	0	6.071576e-04
9.600000e+08	5.697686e+12	0.000000e+00	5.813951e-01	1.186388e+14	2.478307e+14	1.018928e+14	7.700773e+03	4.573908e+03	3.157811e+03	0	6.046316e-04
9.700000e+08	5.627182e+12	0.000000e+00	5.813951e-01	1.174493e+14	2.473298e+14	1.014329e+14	7.687570e+03	4.572365e+03	3.156746e+03	0	6.021273e-04
9.800000e+08	5.557858e+12	0.000000e+00	5.813951e-01	1.162795e+14	2.468088e+14	1.009761e+14	7.674499e+03	4.570757e+03	3.155636e+03	0	5.996444e-04
9.900000e+08	5.489688e+12	0.000000e+00	5.813951e-01	1.151288e+14	2.462687e+14	1.005224e+14	7.661557e+03	4.569088e+03	3.154483e+03	0	5.971827e-04
1.000000e+09	5.422648e+12	0.000000e+00	5.813951e-01	1.139969e+14	2.457101e+14	1.000718e+14	7.648743e+03	4.567359e+03	3.153290e+03	0	5.947417e-04
1.010000e+09	5.356712e+12	0.000000e+00	5.813951e-01	1.128833e+14	2.451341e+14	9.962424e+13	7.636055e+03	4.565573e+03	3.152056e+03	0	5.923213e-04
1.020000e+09	5.291856e+12	0.000000e+00	5.813951e-01	1.117878e+14	2.445413e+14	9.917972e+13	7.623491e+03	4.563731e+03	3.150785e+03	0	5.899212e-04
1.030000e+09	5.228059e+12	0.000000e+00	5.813951e-01	1.107098e+14	2.439325e+14	9.873821e+13	7.611047e+03	4.561837e+03	3.149477e+03	0	5.875409e-04
1.040000e+09	5.165296e+12	0.000000e+00	5.813951e-01	1.096490e+14	2.433085e+14	9.829968e+13	7.598724e+03	4.559891e+03	3.148134e+03	0	5.851803e-04
1.050000e+09	5.103547e+12	0.000000e+00	5.813951e-01	1.086050e+14	2.426700e+14	9.786411e+13	7.586518e+03	4.557897e+03	3.146757e+03	0	5.828391e-04
1.060000e+09	5.042788e+12	0.000000e+00	5.813951e-01	1.075776e+14	2.420177e+14	9.743148e+13	7.574428e+03	4.555855e+03	3.145347e+03	0	5.805169e-04
1.070000e+09	4.983000e+12	0.000000e+00	5.813951e-01	1.065663e+14	2.413523e+14	9.700176e+13	7.562452e+03	4.553768e+03	3.143907e+03	0	5.782135e-04
1.080000e+09	4.924162e+12	0.000000e+00	5.813951e-01	1.055707e+14	2.406745e+14	9.657494e+13	7.550588e+03	4.551638e+03	3.142436e+03	0	5.759287e-04
1.090000e+09	4.866254e+12	0.000000e+00	5.813951e-01	1.045907e+14	2.399848e+14	9.615098e+13	7.538835e+03	4.549466e+03	3.140936e+03	0	5.736622e-04
1.100000e+09	4.809256e+12	0.000000e+00	5.813951e-01	1.036258e+14	2.392840e+14	9.572988e+13	7.527190e+03	4.547254e+03	3.139409e+03	0	5.714136e-04
1.110000e+09	4.753149e+12	0.000000e+00	5.813951e-01	1.026757e+14	2.385725e+14	9.531159e+13	7.515653e+03	4.545003e+03	3.137855e+03	0	5.691828e-04
1.120000e+09	4.697915e+12	0.000000e+00	5.813951e-01	1.017402e+14	2.378510e+14	9.489611e+13	7.504221e+03	4.542716e+03	3.136276e+03	0	5.669695e-04
1.130000e+09	4.643537e+12	0.000000e+00	5.813951e-01	1.008189e+14	2.371201e+14	9.448341e+13	7.492893e+03	4.540394e+03	3.134673e+03	0	5.647734e-04
1.140000e+09	4.589995e+12	0.000000e+00	5.813951e-01	9.991156e+13	2.363802e+14	9.407347e+13	7.481667e+03	4.538037e+03	3.133046e+03	0	5.625943e-04
1.150000e+09	4.537273e+12	0.000000e+00	5.813951e-01	9.901786e+13	2.356319e+14	9.366626e+13	7.470541e+03	4.535649e+03	3.131397e+03	0	5.604320e-04
1.160000e+09	4.485355e+12	0.000000e+00	5.813951e-01	9.813753e+13	2.348757e+14	9.326177e+13	7.459515e+03	4.533229e+03	3.129727e+03	0	5.582862e-04
1.170000e+09	4.434223e+12	0.000000e+00	5.813951e-01	9.727031e+13	2.341121e+14	9.285998e+13	7.448587e+03	4.530780e+03	3.128036e+03	0	5.561567e-04
1.180000e+09	4.383863e+12	0.000000e+00	5.813951e-01	9.641594e+13	2.333415e+14	9.246085e+13	7.437755e+03	4.528303e+03	3.126325e+03	0	5.540432e-04
1.190000e+09	4.334257e+12	0.000000e+00	5.813951e-01	9.557414e+13	2.325644e+14	9.206439e+13	7.427018e+03	4.525798e+03	3.124596e+03	0	5.519455e-04
1.200000e+09	4.285392e+12	0.000000e+00	5.813951e-01	9.474469e+13	2.317812e+14	9.167055e+13	7.416374e+03	4.523268e+03	3.122849e+03	0	5.498634e-04
1.210000e+09	4.237253e+12	0.000000e+00	5.813951e-01	9.392731e+13	2.309925e+14	9.127933e+13	7.405823e+03	4.520713e+03	3.121085e+03	0	5.477967e-04
1.220000e+09	4.189824e+12	0.000000e+00	5.813951e-01	9.312179e+13	2.301985e+14	9.089069e+13	7.395362e+03	4.518134e+03	3.119305e+03	0	5.457451e-04
1.230000e+09	4.143091e+12	0.000000e+00	5.813951e-01	9.232789e+13	2.293996e+14	9.050463e+13	7.384990e+03	4.515533e+03	3.117509e+03	0	5.437085e-04
1.240000e+09	4.097042e+12	0.000000e+00	5.813951e-01	9.154537e+13	2.285962e+14	9.012112e+13	7.374707e+03	4.512911e+03	3.115699e+03	0	5.416866e-04
1.250000e+09	4.051662e+12	0.000000e+00	5.813951e-01	9.077401e+13	2.277887e+14	8.974014e+13	7.364511e+03	4.510268e+03	3.113874e+03	0	5.396792e-04
1.260000e+09	4.006939e+12	0.000000e+00	5.813951e-01	9.001361e+13	2.269775e+14	8.936168e+13	7.354400e+03	4.507606e+03	3.112036e+03	0	5.376862e-04
1.270000e+09	3.962859e+12	0.000000e+00	5.813951e-01	8.926393e+13	2.261628e+14	8.898571e+13	7.344374e+03	4.504925e+03	3.110186e+03	0	5.357072e-04
1.280000e+09	3.919410e+12	0.000000e+00	5.813951e-01	8.852479e+13	2.253451e+14	8.861221e+13	7.334431e+03	4.502228e+03	3.108323e+03	0	5.337422e-04
1.290000e+09	3.876580e+12	0.000000e+00	5.813951e-01	8.779597e+13	2.245245e+14	8.824116e+13	7.324570e+03	4.499513e+03	3.106449e+03	0	5.317909e-04
1.300000e+09	3.834357e+12	0.000000e+00	5.813951e-01	8.707728e+13	2.237015e+14	8.787255e+13	7.314790e+03	4.496783e+03	3.104564e+03	0	5.298531e-04
1.310000e+09	3.792730e+12	0.000000e+00	5.813951e-01	8.636853e+13	2.228761e+14	8.750636e+13	7.305090e+03	4.494038e+03	3.102669e+03	0	5.279287e-04
1.320000e+09	3.751686e+12	0.000000e+00	5.813951e-01	8.566952e+13	2.220489e+14	8.714256e+13	7.295468e+03	4.491280e+03	3.100765e+03	0	5.260174e-04
1.330000e+09	3.711215e+12	0.000000e+00	5.813951e-01	8.498007e+13	2.212201e+14	8.678115e+13	7.285925e+03	4.488507e+03	3.098851e+03	0	5.241191e-04
1.340000e+09	3.671306e+12	0.000000e+00	5.813951e-01	8.430001e+13	2.203898e+14	8.642209e+13	7.276457e+03	4.485723e+03	3.096928e+03	0	5.222336e-04
1.350000e+09	3.631948e+12	0.000000e+00	5.813951e-01	8.362916e+13	2.195584e+14	8.606538e+13	7.267066e+03	4.482927e+03	3.094998e+03	0	5.203607e-04
1.360000e+09	3.593132e+12	0.000000e+00	5.813951e-01	8.296734e+13	2.187260e+14	8.571100e+13	7.257749e+03	4.480120e+03	3.093060e+03	0	5.185003e-04
