#t		Qconv[W]	Ri[Rp]		R*[Rp]		Qc[W]		Qm[W]		Qr[W]		Tcmb[K]		Tl[K]		Tup[K]		RiFlag		Bs[T]
0.000000e+00	4.557194e+13	0.000000e+00	5.781251e-01	7.054939e+14	5.563844e+13	2.135713e+14	1.236695e+04	4.005832e+03	2.655633e+03	0	1.201833e-03
1.000000e+07	4.480443e+13	0.000000e+00	5.781251e-01	6.944761e+14	5.951264e+13	2.123879e+14	1.230848e+04	4.044262e+03	2.681110e+03	0	1.195048e-03
2.000000e+07	4.405088e+13	0.000000e+00	5.781251e-01	6.836578e+14	6.351279e+13	2.112134e+14	1.225092e+04	4.081973e+03	2.706110e+03	0	1.188311e-03
3.000000e+07	4.331099e+13	0.000000e+00	5.781251e-01	6.730345e+14	6.763461e+13	2.100477e+14	1.219424e+04	4.118966e+03	2.730634e+03	0	1.181620e-03
4.000000e+07	4.258443e+13	0.000000e+00	5.781251e-01	6.626020e+14	7.187342e+13	2.088907e+14	1.213844e+04	4.155247e+03	2.754687e+03	0	1.174975e-03
5.000000e+07	4.187093e+13	0.000000e+00	5.781251e-01	6.523561e+14	7.622424e+13	2.077423e+14	1.208350e+04	4.190820e+03	2.778269e+03	0	1.168376e-03
6.000000e+07	4.117020e+13	0.000000e+00	5.781251e-01	6.422927e+14	8.068174e+13	2.066025e+14	1.202940e+04	4.225687e+03	2.801384e+03	0	1.161822e-03
7.000000e+07	4.048198e+13	0.000000e+00	5.781251e-01	6.324082e+14	8.524030e+13	2.054712e+14	1.197613e+04	4.259853e+03	2.824034e+03	0	1.155311e-03
8.000000e+07	3.980601e+13	0.000000e+00	5.781251e-01	6.226989e+14	8.989405e+13	2.043483e+14	1.192367e+04	4.293321e+03	2.846222e+03	0	1.148845e-03
9.000000e+07	3.914204e+13	0.000000e+00	5.781251e-01	6.131612e+14	9.463685e+13	2.032337e+14	1.187201e+04	4.326097e+03	2.867950e+03	0	1.142421e-03
1.000000e+08	3.848984e+13	0.000000e+00	5.781251e-01	6.037918e+14	9.946240e+13	2.021274e+14	1.182114e+04	4.358184e+03	2.889221e+03	0	1.136041e-03
1.100000e+08	3.784919e+13	0.000000e+00	5.781251e-01	5.945875e+14	1.043642e+14	2.010293e+14	1.177104e+04	4.389586e+03	2.910039e+03	0	1.129702e-03
1.200000e+08	3.721985e+13	0.000000e+00	5.781251e-01	5.855452e+14	1.093355e+14	1.999394e+14	1.172170e+04	4.420308e+03	2.930406e+03	0	1.123406e-03
1.300000e+08	3.660164e+13	0.000000e+00	5.781251e-01	5.766618e+14	1.143695e+14	1.988575e+14	1.167310e+04	4.450355e+03	2.950325e+03	0	1.117151e-03
1.400000e+08	3.599433e+13	0.000000e+00	5.781251e-01	5.679345e+14	1.194594e+14	1.977836e+14	1.162524e+04	4.479731e+03	2.969800e+03	0	1.110938e-03
1.500000e+08	3.539774e+13	0.000000e+00	5.781251e-01	5.593605e+14	1.245981e+14	1.967177e+14	1.157809e+04	4.508441e+03	2.988833e+03	0	1.104766e-03
1.600000e+08	3.481168e+13	0.000000e+00	5.781251e-01	5.509371e+14	1.297787e+14	1.956596e+14	1.153165e+04	4.536491e+03	3.007429e+03	0	1.098635e-03
1.700000e+08	3.423597e+13	0.000000e+00	5.781251e-01	5.426616e+14	1.349941e+14	1.946094e+14	1.148591e+04	4.563885e+03	3.025590e+03	0	1.092545e-03
1.800000e+08	3.367042e+13	0.000000e+00	5.781251e-01	5.345316e+14	1.402372e+14	1.935669e+14	1.144085e+04	4.590631e+03	3.043320e+03	0	1.086496e-03
1.900000e+08	3.311487e+13	0.000000e+00	5.781251e-01	5.265446e+14	1.455011e+14	1.925320e+14	1.139646e+04	4.616732e+03	3.060624e+03	0	1.080487e-03
2.000000e+08	3.256914e+13	0.000000e+00	5.781251e-01	5.186981e+14	1.507788e+14	1.915048e+14	1.135273e+04	4.642195e+03	3.077505e+03	0	1.074519e-03
2.100000e+08	3.203309e+13	0.000000e+00	5.781251e-01	5.109899e+14	1.560634e+14	1.904852e+14	1.130964e+04	4.667027e+03	3.093967e+03	0	1.068591e-03
2.200000e+08	3.150654e+13	0.000000e+00	5.781251e-01	5.034177e+14	1.613482e+14	1.894730e+14	1.126719e+04	4.691234e+03	3.110014e+03	0	1.062703e-03
2.300000e+08	3.098935e+13	0.000000e+00	5.781251e-01	4.959792e+14	1.666265e+14	1.884683e+14	1.122537e+04	4.714821e+03	3.125651e+03	0	1.056856e-03
2.400000e+08	3.048135e+13	0.000000e+00	5.781251e-01	4.886723e+14	1.718918e+14	1.874709e+14	1.118416e+04	4.737797e+03	3.140883e+03	0	1.051050e-03
2.500000e+08	2.998241e+13	0.000000e+00	5.781251e-01	4.814949e+14	1.771378e+14	1.864808e+14	1.114356e+04	4.760167e+03	3.155713e+03	0	1.045283e-03
2.600000e+08	2.949238e+13	0.000000e+00	5.781251e-01	4.744449e+14	1.823582e+14	1.854980e+14	1.110355e+04	4.781939e+03	3.170147e+03	0	1.039557e-03
2.700000e+08	2.901111e+13	0.000000e+00	5.781251e-01	4.675202e+14	1.875471e+14	1.845223e+14	1.106412e+04	4.803121e+03	3.184189e+03	0	1.033872e-03
2.800000e+08	2.853847e+13	0.000000e+00	5.781251e-01	4.607188e+14	1.926986e+14	1.835538e+14	1.102526e+04	4.823719e+03	3.197844e+03	0	1.028226e-03
2.900000e+08	2.807432e+13	0.000000e+00	5.781251e-01	4.540388e+14	1.978072e+14	1.825924e+14	1.098696e+04	4.843741e+03	3.211118e+03	0	1.022621e-03
3.000000e+08	2.761851e+13	0.000000e+00	5.781251e-01	4.474782e+14	2.028676e+14	1.816379e+14	1.094922e+04	4.863196e+03	3.224015e+03	0	1.017057e-03
3.100000e+08	2.717093e+13	0.000000e+00	5.781251e-01	4.410350e+14	2.078746e+14	1.806905e+14	1.091202e+04	4.882090e+03	3.236541e+03	0	1.011533e-03
3.200000e+08	2.673143e+13	0.000000e+00	5.781251e-01	4.347075e+14	2.128233e+14	1.797499e+14	1.087535e+04	4.900433e+03	3.248701e+03	0	1.006049e-03
3.300000e+08	2.629988e+13	0.000000e+00	5.781251e-01	4.284936e+14	2.177091e+14	1.788161e+14	1.083921e+04	4.918232e+03	3.260501e+03	0	1.000606e-03
3.400000e+08	2.587616e+13	0.000000e+00	5.781251e-01	4.223917e+14	2.225276e+14	1.778891e+14	1.080357e+04	4.935495e+03	3.271945e+03	0	9.952032e-04
3.500000e+08	2.546014e+13	0.000000e+00	5.781251e-01	4.163997e+14	2.272748e+14	1.769689e+14	1.076845e+04	4.952231e+03	3.283040e+03	0	9.898409e-04
3.600000e+08	2.505169e+13	0.000000e+00	5.781251e-01	4.105160e+14	2.319466e+14	1.760553e+14	1.073382e+04	4.968448e+03	3.293791e+03	0	9.845191e-04
3.700000e+08	2.465069e+13	0.000000e+00	5.781251e-01	4.047388e+14	2.365396e+14	1.751484e+14	1.069967e+04	4.984156e+03	3.304204e+03	0	9.792378e-04
3.800000e+08	2.425701e+13	0.000000e+00	5.781251e-01	3.990662e+14	2.410504e+14	1.742480e+14	1.066601e+04	4.999362e+03	3.314285e+03	0	9.739969e-04
3.900000e+08	2.387053e+13	0.000000e+00	5.781251e-01	3.934966e+14	2.454758e+14	1.733541e+14	1.063281e+04	5.014075e+03	3.324039e+03	0	9.687964e-04
4.000000e+08	2.349114e+13	0.000000e+00	5.781251e-01	3.880281e+14	2.498130e+14	1.724667e+14	1.060007e+04	5.028304e+03	3.333472e+03	0	9.636363e-04
4.100000e+08	2.311871e+13	0.000000e+00	5.781251e-01	3.826592e+14	2.540596e+14	1.715856e+14	1.056779e+04	5.042058e+03	3.342590e+03	0	9.585166e-04
4.200000e+08	2.275311e+13	0.000000e+00	5.781251e-01	3.773880e+14	2.582130e+14	1.707110e+14	1.053595e+04	5.055346e+03	3.351399e+03	0	9.534372e-04
4.300000e+08	2.239425e+13	0.000000e+00	5.781251e-01	3.722129e+14	2.622713e+14	1.698426e+14	1.050455e+04	5.068176e+03	3.359905e+03	0	9.483980e-04
4.400000e+08	2.204198e+13	0.000000e+00	5.781251e-01	3.671322e+14	2.662325e+14	1.689804e+14	1.047357e+04	5.080557e+03	3.368113e+03	0	9.433989e-04
4.500000e+08	2.169622e+13	0.000000e+00	5.781251e-01	3.621443e+14	2.700951e+14	1.681245e+14	1.044302e+04	5.092499e+03	3.376030e+03	0	9.384399e-04
4.600000e+08	2.135683e+13	0.000000e+00	5.781251e-01	3.572475e+14	2.738576e+14	1.672747e+14	1.041288e+04	5.104010e+03	3.383661e+03	0	9.335209e-04
4.700000e+08	2.102370e+13	0.000000e+00	5.781251e-01	3.524402e+14	2.775191e+14	1.664310e+14	1.038314e+04	5.115099e+03	3.391012e+03	0	9.286417e-04
4.800000e+08	2.069672e+13	0.000000e+00	5.781251e-01	3.477209e+14	2.810783e+14	1.655934e+14	1.035381e+04	5.125774e+03	3.398089e+03	0	9.238022e-04
4.900000e+08	2.037579e+13	0.000000e+00	5.781251e-01	3.430878e+14	2.845346e+14	1.647617e+14	1.032486e+04	5.136045e+03	3.404898e+03	0	9.190024e-04
5.000000e+08	2.006079e+13	0.000000e+00	5.781251e-01	3.385396e+14	2.878874e+14	1.639360e+14	1.029630e+04	5.145920e+03	3.411445e+03	0	9.142419e-04
5.100000e+08	1.975161e+13	0.000000e+00	5.781251e-01	3.340745e+14	2.911364e+14	1.631162e+14	1.026812e+04	5.155408e+03	3.417735e+03	0	9.095208e-04
5.200000e+08	1.944814e+13	0.000000e+00	5.781251e-01	3.296911e+14	2.942814e+14	1.623022e+14	1.024030e+04	5.164518e+03	3.423774e+03	0	9.048388e-04
5.300000e+08	1.915029e+13	0.000000e+00	5.781251e-01	3.253878e+14	2.973223e+14	1.614941e+14	1.021285e+04	5.173258e+03	3.429568e+03	0	9.001957e-04
5.400000e+08	1.885794e+13	0.000000e+00	5.781251e-01	3.211631e+14	3.002592e+14	1.606917e+14	1.018575e+04	5.181636e+03	3.435122e+03	0	8.955913e-04
5.500000e+08	1.857098e+13	0.000000e+00	5.781251e-01	3.170157e+14	3.030926e+14	1.598950e+14	1.015901e+04	5.189661e+03	3.440442e+03	0	8.910254e-04
5.600000e+08	1.828933e+13	0.000000e+00	5.781251e-01	3.129439e+14	3.058229e+14	1.591040e+14	1.013261e+04	5.197341e+03	3.445534e+03	0	8.864979e-04
5.700000e+08	1.801287e+13	0.000000e+00	5.781251e-01	3.089464e+14	3.084505e+14	1.583186e+14	1.010654e+04	5.204685e+03	3.450402e+03	0	8.820085e-04
5.800000e+08	1.774150e+13	0.000000e+00	5.781251e-01	3.050217e+14	3.109762e+14	1.575387e+14	1.008081e+04	5.211700e+03	3.455053e+03	0	8.775569e-04
5.900000e+08	1.747514e+13	0.000000e+00	5.781251e-01	3.011684e+14	3.134009e+14	1.567644e+14	1.005541e+04	5.218395e+03	3.459492e+03	0	8.731429e-04
6.000000e+08	1.721367e+13	0.000000e+00	5.781251e-01	2.973851e+14	3.157255e+14	1.559956e+14	1.003032e+04	5.224778e+03	3.463723e+03	0	8.687663e-04
6.100000e+08	1.695700e+13	0.000000e+00	5.781251e-01	2.936706e+14	3.179510e+14	1.552322e+14	1.000554e+04	5.230856e+03	3.467752e+03	0	8.644267e-04
6.200000e+08	1.670505e+13	0.000000e+00	5.781251e-01	2.900233e+14	3.200785e+14	1.544742e+14	9.981080e+03	5.236637e+03	3.471585e+03	0	8.601240e-04
6.300000e+08	1.645771e+13	0.000000e+00	5.781251e-01	2.864420e+14	3.221093e+14	1.537216e+14	9.956917e+03	5.242129e+03	3.475225e+03	0	8.558578e-04
6.400000e+08	1.621490e+13	0.000000e+00	5.781251e-01	2.829254e+14	3.240447e+14	1.529742e+14	9.933052e+03	5.247338e+03	3.478679e+03	0	8.516279e-04
6.500000e+08	1.597652e+13	0.000000e+00	5.781251e-01	2.794721e+14	3.258861e+14	1.522322e+14	9.909478e+03	5.252274e+03	3.481951e+03	0	8.474340e-04
6.600000e+08	1.574249e+13	0.000000e+00	5.781251e-01	2.760810e+14	3.276349e+14	1.514953e+14	9.886191e+03	5.256942e+03	3.485046e+03	0	8.432757e-04
6.700000e+08	1.551271e+13	0.000000e+00	5.781251e-01	2.727508e+14	3.292926e+14	1.507636e+14	9.863185e+03	5.261350e+03	3.487968e+03	0	8.391528e-04
6.800000e+08	1.528711e+13	0.000000e+00	5.781251e-01	2.694802e+14	3.308607e+14	1.500371e+14	9.840455e+03	5.265504e+03	3.490722e+03	0	8.350649e-04
6.900000e+08	1.506559e+13	0.000000e+00	5.781251e-01	2.662680e+14	3.323409e+14	1.493157e+14	9.817997e+03	5.269412e+03	3.493313e+03	0	8.310118e-04
7.000000e+08	1.484807e+13	0.000000e+00	5.781251e-01	2.631131e+14	3.337348e+14	1.485993e+14	9.795806e+03	5.273081e+03	3.495745e+03	0	8.269930e-04
7.100000e+08	1.463448e+13	0.000000e+00	5.781251e-01	2.600143e+14	3.350441e+14	1.478879e+14	9.773876e+03	5.276517e+03	3.498023e+03	0	8.230084e-04
7.200000e+08	1.442473e+13	0.000000e+00	5.781251e-01	2.569705e+14	3.362705e+14	1.471816e+14	9.752204e+03	5.279726e+03	3.500150e+03	0	8.190575e-04
7.300000e+08	1.421874e+13	0.000000e+00	5.781251e-01	2.539804e+14	3.374157e+14	1.464801e+14	9.730784e+03	5.282715e+03	3.502132e+03	0	8.151400e-04
7.400000e+08	1.401644e+13	0.000000e+00	5.781251e-01	2.510431e+14	3.384816e+14	1.457836e+14	9.709613e+03	5.285489e+03	3.503971e+03	0	8.112556e-04
7.500000e+08	1.381775e+13	0.000000e+00	5.781251e-01	2.481574e+14	3.394697e+14	1.450919e+14	9.688685e+03	5.288056e+03	3.505673e+03	0	8.074040e-04
7.600000e+08	1.362259e+13	0.000000e+00	5.781251e-01	2.453223e+14	3.403820e+14	1.444050e+14	9.667997e+03	5.290421e+03	3.507241e+03	0	8.035848e-04
7.700000e+08	1.343089e+13	0.000000e+00	5.781251e-01	2.425367e+14	3.412201e+14	1.437229e+14	9.647545e+03	5.292590e+03	3.508678e+03	0	7.997976e-04
7.800000e+08	1.324259e+13	0.000000e+00	5.781251e-01	2.397996e+14	3.419860e+14	1.430455e+14	9.627324e+03	5.294568e+03	3.509990e+03	0	7.960422e-04
7.900000e+08	1.305760e+13	0.000000e+00	5.781251e-01	2.371100e+14	3.426814e+14	1.423729e+14	9.607330e+03	5.296361e+03	3.511178e+03	0	7.923181e-04
8.000000e+08	1.287586e+13	0.000000e+00	5.781251e-01	2.344669e+14	3.433081e+14	1.417049e+14	9.587560e+03	5.297975e+03	3.512248e+03	0	7.886250e-04
8.100000e+08	1.269731e+13	0.000000e+00	5.781251e-01	2.318694e+14	3.438679e+14	1.410415e+14	9.568009e+03	5.299415e+03	3.513203e+03	0	7.849627e-04
8.200000e+08	1.252187e+13	0.000000e+00	5.781251e-01	2.293165e+14	3.443625e+14	1.403828e+14	9.548674e+03	5.300685e+03	3.514045e+03	0	7.813306e-04
8.300000e+08	1.234948e+13	0.000000e+00	5.781251e-01	2.268073e+14	3.447937e+14	1.397285e+14	9.529551e+03	5.301792e+03	3.514779e+03	0	7.777285e-04
8.400000e+08	1.218008e+13	0.000000e+00	5.781251e-01	2.243408e+14	3.451634e+14	1.390788e+14	9.510636e+03	5.302740e+03	3.515407e+03	0	7.741561e-04
8.500000e+08	1.201361e+13	0.000000e+00	5.781251e-01	2.219163e+14	3.454731e+14	1.384336e+14	9.491927e+03	5.303533e+03	3.515933e+03	0	7.706129e-04
8.600000e+08	1.185000e+13	0.000000e+00	5.781251e-01	2.195328e+14	3.457246e+14	1.377929e+14	9.473418e+03	5.304177e+03	3.516360e+03	0	7.670987e-04
8.700000e+08	1.168919e+13	0.000000e+00	5.781251e-01	2.171894e+14	3.459196e+14	1.371565e+14	9.455108e+03	5.304677e+03	3.516691e+03	0	7.636130e-04
8.800000e+08	1.153113e+13	0.000000e+00	5.781251e-01	2.148854e+14	3.460599e+14	1.365245e+14	9.436993e+03	5.305035e+03	3.516929e+03	0	7.601556e-04
8.900000e+08	1.137576e+13	0.000000e+00	5.781251e-01	2.126199e+14	3.461470e+14	1.358969e+14	9.419069e+03	5.305258e+03	3.517077e+03	0	7.567260e-04
9.000000e+08	1.122303e+13	0.000000e+00	5.781251e-01	2.103922e+14	3.461825e+14	1.352736e+14	9.401334e+03	5.305349e+03	3.517137e+03	0	7.533240e-04
9.100000e+08	1.107287e+13	0.000000e+00	5.781251e-01	2.082014e+14	3.461683e+14	1.346545e+14	9.383783e+03	5.305313e+03	3.517113e+03	0	7.499492e-04
9.200000e+08	1.092524e+13	0.000000e+00	5.781251e-01	2.060467e+14	3.461057e+14	1.340397e+14	9.366415e+03	5.305152e+03	3.517007e+03	0	7.466013e-04
9.300000e+08	1.078007e+13	0.000000e+00	5.781251e-01	2.039275e+14	3.459962e+14	1.334291e+14	9.349226e+03	5.304873e+03	3.516821e+03	0	7.432799e-04
9.400000e+08	1.063733e+13	0.000000e+00	5.781251e-01	2.018430e+14	3.458415e+14	1.328227e+14	9.332213e+03	5.304477e+03	3.516559e+03	0	7.399846e-04
9.500000e+08	1.049696e+13	0.000000e+00	5.781251e-01	1.997925e+14	3.456431e+14	1.322204e+14	9.315373e+03	5.303969e+03	3.516222e+03	0	7.367153e-04
9.600000e+08	1.035891e+13	0.000000e+00	5.781251e-01	1.977753e+14	3.454024e+14	1.316222e+14	9.298704e+03	5.303352e+03	3.515813e+03	0	7.334714e-04
9.700000e+08	1.022314e+13	0.000000e+00	5.781251e-01	1.957907e+14	3.451209e+14	1.310281e+14	9.282202e+03	5.302631e+03	3.515335e+03	0	7.302527e-04
9.800000e+08	1.008959e+13	0.000000e+00	5.781251e-01	1.938380e+14	3.447999e+14	1.304380e+14	9.265866e+03	5.301808e+03	3.514789e+03	0	7.270589e-04
9.900000e+08	9.958217e+12	0.000000e+00	5.781251e-01	1.919166e+14	3.444409e+14	1.298519e+14	9.249692e+03	5.300887e+03	3.514178e+03	0	7.238896e-04
1.000000e+09	9.828984e+12	0.000000e+00	5.781251e-01	1.900258e+14	3.440452e+14	1.292698e+14	9.233677e+03	5.299870e+03	3.513505e+03	0	7.207445e-04
1.010000e+09	9.701842e+12	0.000000e+00	5.781251e-01	1.881651e+14	3.436141e+14	1.286917e+14	9.217820e+03	5.298762e+03	3.512770e+03	0	7.176233e-04
1.020000e+09	9.576750e+12	0.000000e+00	5.781251e-01	1.863337e+14	3.431490e+14	1.281175e+14	9.202118e+03	5.297565e+03	3.511977e+03	0	7.145257e-04
1.030000e+09	9.453665e+12	0.000000e+00	5.781251e-01	1.845312e+14	3.426509e+14	1.275471e+14	9.186568e+03	5.296283e+03	3.511126e+03	0	7.114513e-04
1.040000e+09	9.332546e+12	0.000000e+00	5.781251e-01	1.827569e+14	3.421213e+14	1.269807e+14	9.171168e+03	5.294917e+03	3.510221e+03	0	7.083999e-04
1.050000e+09	9.213353e+12	0.000000e+00	5.781251e-01	1.810103e+14	3.415613e+14	1.264180e+14	9.155915e+03	5.293471e+03	3.509263e+03	0	7.053712e-04
1.060000e+09	9.096047e+12	0.000000e+00	5.781251e-01	1.792907e+14	3.409721e+14	1.258591e+14	9.140808e+03	5.291948e+03	3.508253e+03	0	7.023647e-04
1.070000e+09	8.980589e+12	0.000000e+00	5.781251e-01	1.775977e+14	3.403548e+14	1.253041e+14	9.125844e+03	5.290351e+03	3.507194e+03	0	6.993803e-04
1.080000e+09	8.866943e+12	0.000000e+00	5.781251e-01	1.759307e+14	3.397105e+14	1.247527e+14	9.111020e+03	5.288681e+03	3.506087e+03	0	6.964177e-04
1.090000e+09	8.755072e+12	0.000000e+00	5.781251e-01	1.742893e+14	3.390402e+14	1.242050e+14	9.096336e+03	5.286942e+03	3.504934e+03	0	6.934764e-04
1.100000e+09	8.644940e+12	0.000000e+00	5.781251e-01	1.726728e+14	3.383453e+14	1.236611e+14	9.081788e+03	5.285135e+03	3.503736e+03	0	6.905564e-04
1.110000e+09	8.536512e+12	0.000000e+00	5.781251e-01	1.710808e+14	3.376264e+14	1.231207e+14	9.067374e+03	5.283264e+03	3.502495e+03	0	6.876572e-04
1.120000e+09	8.429755e+12	0.000000e+00	5.781251e-01	1.695128e+14	3.368847e+14	1.225840e+14	9.053093e+03	5.281330e+03	3.501213e+03	0	6.847785e-04
1.130000e+09	8.324634e+12	0.000000e+00	5.781251e-01	1.679683e+14	3.361212e+14	1.220509e+14	9.038943e+03	5.279336e+03	3.499891e+03	0	6.819202e-04
1.140000e+09	8.221118e+12	0.000000e+00	5.781251e-01	1.664469e+14	3.353368e+14	1.215214e+14	9.024920e+03	5.277283e+03	3.498531e+03	0	6.790818e-04
1.150000e+09	8.119174e+12	0.000000e+00	5.781251e-01	1.649481e+14	3.345324e+14	1.209953e+14	9.011025e+03	5.275175e+03	3.497133e+03	0	6.762632e-04
1.160000e+09	8.018772e+12	0.000000e+00	5.781251e-01	1.634715e+14	3.337089e+14	1.204728e+14	8.997254e+03	5.273013e+03	3.495700e+03	0	6.734641e-04
1.170000e+09	7.919881e+12	0.000000e+00	5.781251e-01	1.620167e+14	3.328671e+14	1.199538e+14	8.983606e+03	5.270799e+03	3.494232e+03	0	6.706841e-04
1.180000e+09	7.822471e+12	0.000000e+00	5.781251e-01	1.605831e+14	3.320079e+14	1.194382e+14	8.970080e+03	5.268534e+03	3.492731e+03	0	6.679231e-04
1.190000e+09	7.726513e+12	0.000000e+00	5.781251e-01	1.591704e+14	3.311322e+14	1.189261e+14	8.956672e+03	5.266222e+03	3.491198e+03	0	6.651807e-04
1.200000e+09	7.631980e+12	0.000000e+00	5.781251e-01	1.577783e+14	3.302405e+14	1.184173e+14	8.943382e+03	5.263863e+03	3.489634e+03	0	6.624568e-04
1.210000e+09	7.538843e+12	0.000000e+00	5.781251e-01	1.564062e+14	3.293340e+14	1.179120e+14	8.930208e+03	5.261459e+03	3.488041e+03	0	6.597510e-04
1.220000e+09	7.447075e+12	0.000000e+00	5.781251e-01	1.550539e+14	3.284131e+14	1.174100e+14	8.917149e+03	5.259013e+03	3.486419e+03	0	6.570631e-04
1.230000e+09	7.356651e+12	0.000000e+00	5.781251e-01	1.537208e+14	3.274785e+14	1.169112e+14	8.904201e+03	5.256525e+03	3.484769e+03	0	6.543928e-04
1.240000e+09	7.267543e+12	0.000000e+00	5.781251e-01	1.524068e+14	3.265312e+14	1.164158e+14	8.891365e+03	5.253998e+03	3.483094e+03	0	6.517399e-04
1.250000e+09	7.179727e+12	0.000000e+00	5.781251e-01	1.511114e+14	3.255716e+14	1.159237e+14	8.878638e+03	5.251432e+03	3.481393e+03	0	6.491042e-04
1.260000e+09	7.093178e+12	0.000000e+00	5.781251e-01	1.498342e+14	3.246004e+14	1.154348e+14	8.866020e+03	5.248830e+03	3.479668e+03	0	6.464854e-04
1.270000e+09	7.007872e+12	0.000000e+00	5.781251e-01	1.485749e+14	3.236183e+14	1.149491e+14	8.853507e+03	5.246192e+03	3.477919e+03	0	6.438833e-04
1.280000e+09	6.923785e+12	0.000000e+00	5.781251e-01	1.473332e+14	3.226259e+14	1.144667e+14	8.841099e+03	5.243521e+03	3.476149e+03	0	6.412977e-04
1.290000e+09	6.840894e+12	0.000000e+00	5.781251e-01	1.461087e+14	3.216237e+14	1.139874e+14	8.828795e+03	5.240818e+03	3.474356e+03	0	6.387282e-04
1.300000e+09	6.759178e+12	0.000000e+00	5.781251e-01	1.449012e+14	3.206124e+14	1.135112e+14	8.816593e+03	5.238083e+03	3.472544e+03	0	6.361747e-04
1.310000e+09	6.678612e+12	0.000000e+00	5.781251e-01	1.437103e+14	3.195925e+14	1.130382e+14	8.804491e+03	5.235319e+03	3.470711e+03	0	6.336370e-04
1.320000e+09	6.599177e+12	0.000000e+00	5.781251e-01	1.425356e+14	3.185645e+14	1.125682e+14	8.792488e+03	5.232526e+03	3.468859e+03	0	6.311149e-04
1.330000e+09	6.520852e+12	0.000000e+00	5.781251e-01	1.413770e+14	3.175290e+14	1.121014e+14	8.780583e+03	5.229706e+03	3.466990e+03	0	6.286080e-04
1.340000e+09	6.443614e+12	0.000000e+00	5.781251e-01	1.402341e+14	3.164865e+14	1.116375e+14	8.768775e+03	5.226860e+03	3.465103e+03	0	6.261163e-04
1.350000e+09	6.367445e+12	0.000000e+00	5.781251e-01	1.391066e+14	3.154373e+14	1.111768e+14	8.757062e+03	5.223989e+03	3.463200e+03	0	6.236394e-04
1.360000e+09	6.292324e+12	0.000000e+00	5.781251e-01	1.379942e+14	3.143820e+14	1.107190e+14	8.745443e+03	5.221094e+03	3.461280e+03	0	6.211772e-04
