#t		Qconv[W]	Ri[Rp]		R*[Rp]		Qc[W]		Qm[W]		Qr[W]		Tcmb[K]		Tl[K]		Tup[K]		RiFlag		Bs[T]
0.000000e+00	5.868890e+13	0.000000e+00	5.781247e-01	8.590019e+14	5.469335e+13	2.362635e+14	1.327504e+04	4.143155e+03	2.696057e+03	0	1.301343e-03
1.000000e+07	5.771797e+13	0.000000e+00	5.781247e-01	8.459098e+14	5.879844e+13	2.349545e+14	1.321208e+04	4.185397e+03	2.723545e+03	0	1.294126e-03
2.000000e+07	5.676395e+13	0.000000e+00	5.781247e-01	8.330448e+14	6.305750e+13	2.336552e+14	1.315008e+04	4.226883e+03	2.750541e+03	0	1.286957e-03
3.000000e+07	5.582649e+13	0.000000e+00	5.781247e-01	8.204020e+14	6.746672e+13	2.323656e+14	1.308901e+04	4.267617e+03	2.777047e+03	0	1.279833e-03
4.000000e+07	5.490522e+13	0.000000e+00	5.781247e-01	8.079767e+14	7.202187e+13	2.310857e+14	1.302885e+04	4.307601e+03	2.803066e+03	0	1.272753e-03
5.000000e+07	5.399981e+13	0.000000e+00	5.781247e-01	7.957643e+14	7.671820e+13	2.298153e+14	1.296961e+04	4.346839e+03	2.828599e+03	0	1.265718e-03
6.000000e+07	5.310993e+13	0.000000e+00	5.781247e-01	7.837605e+14	8.155059e+13	2.285543e+14	1.291125e+04	4.385335e+03	2.853649e+03	0	1.258727e-03
7.000000e+07	5.223527e+13	0.000000e+00	5.781247e-01	7.719611e+14	8.651352e+13	2.273028e+14	1.285376e+04	4.423091e+03	2.878218e+03	0	1.251779e-03
8.000000e+07	5.137553e+13	0.000000e+00	5.781247e-01	7.603621e+14	9.160105e+13	2.260606e+14	1.279714e+04	4.460113e+03	2.902309e+03	0	1.244873e-03
9.000000e+07	5.053043e+13	0.000000e+00	5.781247e-01	7.489597e+14	9.680694e+13	2.248276e+14	1.274135e+04	4.496402e+03	2.925923e+03	0	1.238010e-03
1.000000e+08	4.969968e+13	0.000000e+00	5.781247e-01	7.377502e+14	1.021246e+14	2.236037e+14	1.268640e+04	4.531963e+03	2.949064e+03	0	1.231188e-03
1.100000e+08	4.888303e+13	0.000000e+00	5.781247e-01	7.267300e+14	1.075472e+14	2.223890e+14	1.263227e+04	4.566799e+03	2.971733e+03	0	1.224407e-03
1.200000e+08	4.808022e+13	0.000000e+00	5.781247e-01	7.158958e+14	1.130676e+14	2.211832e+14	1.257894e+04	4.600915e+03	2.993933e+03	0	1.217667e-03
1.300000e+08	4.729100e+13	0.000000e+00	5.781247e-01	7.052443e+14	1.186785e+14	2.199864e+14	1.252639e+04	4.634315e+03	3.015667e+03	0	1.210968e-03
1.400000e+08	4.651515e+13	0.000000e+00	5.781247e-01	6.947723e+14	1.243723e+14	2.187984e+14	1.247463e+04	4.667002e+03	3.036937e+03	0	1.204309e-03
1.500000e+08	4.575244e+13	0.000000e+00	5.781247e-01	6.844768e+14	1.301414e+14	2.176192e+14	1.242363e+04	4.698982e+03	3.057747e+03	0	1.197690e-03
1.600000e+08	4.500264e+13	0.000000e+00	5.781247e-01	6.743548e+14	1.359779e+14	2.164488e+14	1.237337e+04	4.730259e+03	3.078100e+03	0	1.191111e-03
1.700000e+08	4.426554e+13	0.000000e+00	5.781247e-01	6.644036e+14	1.418738e+14	2.152869e+14	1.232386e+04	4.760837e+03	3.097998e+03	0	1.184572e-03
1.800000e+08	4.354095e+13	0.000000e+00	5.781247e-01	6.546203e+14	1.478213e+14	2.141337e+14	1.227507e+04	4.790723e+03	3.117445e+03	0	1.178073e-03
1.900000e+08	4.282866e+13	0.000000e+00	5.781247e-01	6.450023e+14	1.538122e+14	2.129889e+14	1.222700e+04	4.819920e+03	3.136445e+03	0	1.171614e-03
2.000000e+08	4.212848e+13	0.000000e+00	5.781247e-01	6.355470e+14	1.598385e+14	2.118525e+14	1.217963e+04	4.848435e+03	3.155000e+03	0	1.165194e-03
2.100000e+08	4.144022e+13	0.000000e+00	5.781247e-01	6.262518e+14	1.658923e+14	2.107245e+14	1.213294e+04	4.876273e+03	3.173115e+03	0	1.158814e-03
2.200000e+08	4.076370e+13	0.000000e+00	5.781247e-01	6.171144e+14	1.719655e+14	2.096048e+14	1.208694e+04	4.903441e+03	3.190794e+03	0	1.152473e-03
2.300000e+08	4.009874e+13	0.000000e+00	5.781247e-01	6.081322e+14	1.780502e+14	2.084933e+14	1.204160e+04	4.929943e+03	3.208040e+03	0	1.146172e-03
2.400000e+08	3.944517e+13	0.000000e+00	5.781247e-01	5.993030e+14	1.841387e+14	2.073900e+14	1.199692e+04	4.955788e+03	3.224857e+03	0	1.139911e-03
2.500000e+08	3.880282e+13	0.000000e+00	5.781247e-01	5.906245e+14	1.902233e+14	2.062947e+14	1.195289e+04	4.980980e+03	3.241251e+03	0	1.133689e-03
2.600000e+08	3.817151e+13	0.000000e+00	5.781247e-01	5.820944e+14	1.962965e+14	2.052074e+14	1.190948e+04	5.005527e+03	3.257224e+03	0	1.127508e-03
2.700000e+08	3.755110e+13	0.000000e+00	5.781247e-01	5.737105e+14	2.023508e+14	2.041281e+14	1.186670e+04	5.029436e+03	3.272782e+03	0	1.121366e-03
2.800000e+08	3.694141e+13	0.000000e+00	5.781247e-01	5.654706e+14	2.083793e+14	2.030567e+14	1.182454e+04	5.052715e+03	3.287930e+03	0	1.115264e-03
2.900000e+08	3.634228e+13	0.000000e+00	5.781247e-01	5.573726e+14	2.143748e+14	2.019931e+14	1.178297e+04	5.075369e+03	3.302672e+03	0	1.109201e-03
3.000000e+08	3.575357e+13	0.000000e+00	5.781247e-01	5.494144e+14	2.203306e+14	2.009373e+14	1.174200e+04	5.097408e+03	3.317013e+03	0	1.103179e-03
3.100000e+08	3.517511e+13	0.000000e+00	5.781247e-01	5.415939e+14	2.262404e+14	1.998891e+14	1.170161e+04	5.118839e+03	3.330959e+03	0	1.097198e-03
3.200000e+08	3.460676e+13	0.000000e+00	5.781247e-01	5.339091e+14	2.320977e+14	1.988486e+14	1.166179e+04	5.139669e+03	3.344514e+03	0	1.091256e-03
3.300000e+08	3.404836e+13	0.000000e+00	5.781247e-01	5.263579e+14	2.378966e+14	1.978156e+14	1.162253e+04	5.159907e+03	3.357683e+03	0	1.085355e-03
3.400000e+08	3.349977e+13	0.000000e+00	5.781247e-01	5.189383e+14	2.436314e+14	1.967902e+14	1.158383e+04	5.179561e+03	3.370473e+03	0	1.079494e-03
3.500000e+08	3.296083e+13	0.000000e+00	5.781247e-01	5.116483e+14	2.492966e+14	1.957721e+14	1.154566e+04	5.198640e+03	3.382887e+03	0	1.073674e-03
3.600000e+08	3.243141e+13	0.000000e+00	5.781247e-01	5.044860e+14	2.548870e+14	1.947615e+14	1.150803e+04	5.217151e+03	3.394933e+03	0	1.067894e-03
3.700000e+08	3.191135e+13	0.000000e+00	5.781247e-01	4.974494e+14	2.603979e+14	1.937582e+14	1.147093e+04	5.235105e+03	3.406616e+03	0	1.062156e-03
3.800000e+08	3.140052e+13	0.000000e+00	5.781247e-01	4.905365e+14	2.658246e+14	1.927621e+14	1.143434e+04	5.252508e+03	3.417941e+03	0	1.056457e-03
3.900000e+08	3.089877e+13	0.000000e+00	5.781247e-01	4.837455e+14	2.711628e+14	1.917732e+14	1.139825e+04	5.269371e+03	3.428914e+03	0	1.050800e-03
4.000000e+08	3.040595e+13	0.000000e+00	5.781247e-01	4.770745e+14	2.764085e+14	1.907915e+14	1.136267e+04	5.285701e+03	3.439541e+03	0	1.045184e-03
4.100000e+08	2.992193e+13	0.000000e+00	5.781247e-01	4.705214e+14	2.815580e+14	1.898169e+14	1.132757e+04	5.301509e+03	3.449827e+03	0	1.039608e-03
4.200000e+08	2.944658e+13	0.000000e+00	5.781247e-01	4.640846e+14	2.866080e+14	1.888493e+14	1.129295e+04	5.316803e+03	3.459779e+03	0	1.034073e-03
4.300000e+08	2.897974e+13	0.000000e+00	5.781247e-01	4.577620e+14	2.915552e+14	1.878886e+14	1.125880e+04	5.331592e+03	3.469403e+03	0	1.028579e-03
4.400000e+08	2.852128e+13	0.000000e+00	5.781247e-01	4.515519e+14	2.963969e+14	1.869349e+14	1.122511e+04	5.345886e+03	3.478704e+03	0	1.023127e-03
4.500000e+08	2.807107e+13	0.000000e+00	5.781247e-01	4.454525e+14	3.011306e+14	1.859880e+14	1.119188e+04	5.359694e+03	3.487689e+03	0	1.017715e-03
4.600000e+08	2.762897e+13	0.000000e+00	5.781247e-01	4.394617e+14	3.057540e+14	1.850479e+14	1.115909e+04	5.373024e+03	3.496364e+03	0	1.012344e-03
4.700000e+08	2.719484e+13	0.000000e+00	5.781247e-01	4.335780e+14	3.102649e+14	1.841146e+14	1.112675e+04	5.385887e+03	3.504734e+03	0	1.007013e-03
4.800000e+08	2.676855e+13	0.000000e+00	5.781247e-01	4.277994e+14	3.146618e+14	1.831879e+14	1.109483e+04	5.398291e+03	3.512805e+03	0	1.001724e-03
4.900000e+08	2.634997e+13	0.000000e+00	5.781247e-01	4.221242e+14	3.189431e+14	1.822679e+14	1.106334e+04	5.410245e+03	3.520584e+03	0	9.964751e-04
5.000000e+08	2.593897e+13	0.000000e+00	5.781247e-01	4.165506e+14	3.231075e+14	1.813545e+14	1.103227e+04	5.421760e+03	3.528077e+03	0	9.912669e-04
5.100000e+08	2.553541e+13	0.000000e+00	5.781247e-01	4.110769e+14	3.271543e+14	1.804475e+14	1.100160e+04	5.432843e+03	3.535289e+03	0	9.860993e-04
5.200000e+08	2.513916e+13	0.000000e+00	5.781247e-01	4.057013e+14	3.310824e+14	1.795471e+14	1.097133e+04	5.443505e+03	3.542227e+03	0	9.809721e-04
5.300000e+08	2.475011e+13	0.000000e+00	5.781247e-01	4.004220e+14	3.348913e+14	1.786531e+14	1.094146e+04	5.453754e+03	3.548896e+03	0	9.758852e-04
5.400000e+08	2.436811e+13	0.000000e+00	5.781247e-01	3.952375e+14	3.385808e+14	1.777654e+14	1.091198e+04	5.463599e+03	3.555303e+03	0	9.708385e-04
5.500000e+08	2.399304e+13	0.000000e+00	5.781247e-01	3.901459e+14	3.421507e+14	1.768841e+14	1.088287e+04	5.473049e+03	3.561452e+03	0	9.658317e-04
5.600000e+08	2.362478e+13	0.000000e+00	5.781247e-01	3.851456e+14	3.456010e+14	1.760090e+14	1.085414e+04	5.482113e+03	3.567351e+03	0	9.608648e-04
5.700000e+08	2.326320e+13	0.000000e+00	5.781247e-01	3.802350e+14	3.489321e+14	1.751402e+14	1.082577e+04	5.490801e+03	3.573004e+03	0	9.559376e-04
5.800000e+08	2.290819e+13	0.000000e+00	5.781247e-01	3.754123e+14	3.521441e+14	1.742775e+14	1.079777e+04	5.499120e+03	3.578418e+03	0	9.510498e-04
5.900000e+08	2.255961e+13	0.000000e+00	5.781247e-01	3.706761e+14	3.552379e+14	1.734209e+14	1.077012e+04	5.507080e+03	3.583597e+03	0	9.462014e-04
6.000000e+08	2.221735e+13	0.000000e+00	5.781247e-01	3.660246e+14	3.582140e+14	1.725704e+14	1.074281e+04	5.514688e+03	3.588548e+03	0	9.413920e-04
6.100000e+08	2.188130e+13	0.000000e+00	5.781247e-01	3.614563e+14	3.610734e+14	1.717259e+14	1.071585e+04	5.521954e+03	3.593276e+03	0	9.366214e-04
6.200000e+08	2.155133e+13	0.000000e+00	5.781247e-01	3.569696e+14	3.638170e+14	1.708873e+14	1.068922e+04	5.528886e+03	3.597787e+03	0	9.318894e-04
6.300000e+08	2.122733e+13	0.000000e+00	5.781247e-01	3.525629e+14	3.664459e+14	1.700547e+14	1.066292e+04	5.535492e+03	3.602086e+03	0	9.271958e-04
6.400000e+08	2.090918e+13	0.000000e+00	5.781247e-01	3.482348e+14	3.689615e+14	1.692280e+14	1.063694e+04	5.541780e+03	3.606178e+03	0	9.225404e-04
6.500000e+08	2.059678e+13	0.000000e+00	5.781247e-01	3.439838e+14	3.713649e+14	1.684071e+14	1.061129e+04	5.547759e+03	3.610068e+03	0	9.179227e-04
6.600000e+08	2.029000e+13	0.000000e+00	5.781247e-01	3.398083e+14	3.736577e+14	1.675919e+14	1.058594e+04	5.553435e+03	3.613762e+03	0	9.133426e-04
6.700000e+08	1.998875e+13	0.000000e+00	5.781247e-01	3.357069e+14	3.758414e+14	1.667825e+14	1.056090e+04	5.558817e+03	3.617264e+03	0	9.087999e-04
6.800000e+08	1.969291e+13	0.000000e+00	5.781247e-01	3.316782e+14	3.779175e+14	1.659788e+14	1.053616e+04	5.563913e+03	3.620580e+03	0	9.042941e-04
6.900000e+08	1.940238e+13	0.000000e+00	5.781247e-01	3.277206e+14	3.798879e+14	1.651807e+14	1.051172e+04	5.568730e+03	3.623715e+03	0	8.998250e-04
7.000000e+08	1.911706e+13	0.000000e+00	5.781247e-01	3.238329e+14	3.817542e+14	1.643882e+14	1.048756e+04	5.573276e+03	3.626672e+03	0	8.953924e-04
7.100000e+08	1.883683e+13	0.000000e+00	5.781247e-01	3.200136e+14	3.835182e+14	1.636013e+14	1.046370e+04	5.577557e+03	3.629458e+03	0	8.909958e-04
7.200000e+08	1.856160e+13	0.000000e+00	5.781247e-01	3.162615e+14	3.851817e+14	1.628198e+14	1.044011e+04	5.581581e+03	3.632077e+03	0	8.866350e-04
7.300000e+08	1.829128e+13	0.000000e+00	5.781247e-01	3.125751e+14	3.867467e+14	1.620439e+14	1.041680e+04	5.585355e+03	3.634533e+03	0	8.823097e-04
7.400000e+08	1.802575e+13	0.000000e+00	5.781247e-01	3.089531e+14	3.882151e+14	1.612733e+14	1.039376e+04	5.588886e+03	3.636830e+03	0	8.780195e-04
7.500000e+08	1.776493e+13	0.000000e+00	5.781247e-01	3.053943e+14	3.895888e+14	1.605081e+14	1.037098e+04	5.592180e+03	3.638974e+03	0	8.737640e-04
7.600000e+08	1.750871e+13	0.000000e+00	5.781247e-01	3.018974e+14	3.908699e+14	1.597482e+14	1.034847e+04	5.595244e+03	3.640968e+03	0	8.695431e-04
7.700000e+08	1.725702e+13	0.000000e+00	5.781247e-01	2.984611e+14	3.920604e+14	1.589937e+14	1.032621e+04	5.598085e+03	3.642817e+03	0	8.653563e-04
7.800000e+08	1.700975e+13	0.000000e+00	5.781247e-01	2.950842e+14	3.931622e+14	1.582443e+14	1.030420e+04	5.600709e+03	3.644524e+03	0	8.612032e-04
7.900000e+08	1.676681e+13	0.000000e+00	5.781247e-01	2.917656e+14	3.941776e+14	1.575002e+14	1.028245e+04	5.603122e+03	3.646094e+03	0	8.570836e-04
8.000000e+08	1.652812e+13	0.000000e+00	5.781247e-01	2.885040e+14	3.951083e+14	1.567613e+14	1.026094e+04	5.605330e+03	3.647531e+03	0	8.529971e-04
8.100000e+08	1.629360e+13	0.000000e+00	5.781247e-01	2.852984e+14	3.959568e+14	1.560274e+14	1.023966e+04	5.607339e+03	3.648838e+03	0	8.489433e-04
8.200000e+08	1.606315e+13	0.000000e+00	5.781247e-01	2.821474e+14	3.967247e+14	1.552986e+14	1.021862e+04	5.609155e+03	3.650020e+03	0	8.449219e-04
8.300000e+08	1.583669e+13	0.000000e+00	5.781247e-01	2.790501e+14	3.974144e+14	1.545749e+14	1.019782e+04	5.610783e+03	3.651080e+03	0	8.409325e-04
8.400000e+08	1.561414e+13	0.000000e+00	5.781247e-01	2.760054e+14	3.980277e+14	1.538562e+14	1.017724e+04	5.612230e+03	3.652021e+03	0	8.369748e-04
8.500000e+08	1.539542e+13	0.000000e+00	5.781247e-01	2.730121e+14	3.985668e+14	1.531424e+14	1.015688e+04	5.613500e+03	3.652847e+03	0	8.330484e-04
8.600000e+08	1.518046e+13	0.000000e+00	5.781247e-01	2.700693e+14	3.990337e+14	1.524336e+14	1.013675e+04	5.614599e+03	3.653563e+03	0	8.291530e-04
8.700000e+08	1.496917e+13	0.000000e+00	5.781247e-01	2.671758e+14	3.994303e+14	1.517296e+14	1.011683e+04	5.615532e+03	3.654169e+03	0	8.252882e-04
8.800000e+08	1.476148e+13	0.000000e+00	5.781247e-01	2.643308e+14	3.997586e+14	1.510305e+14	1.009712e+04	5.616303e+03	3.654672e+03	0	8.214536e-04
8.900000e+08	1.455732e+13	0.000000e+00	5.781247e-01	2.615332e+14	4.000206e+14	1.503362e+14	1.007763e+04	5.616919e+03	3.655072e+03	0	8.176489e-04
9.000000e+08	1.435661e+13	0.000000e+00	5.781247e-01	2.587820e+14	4.002182e+14	1.496466e+14	1.005833e+04	5.617383e+03	3.655374e+03	0	8.138737e-04
9.100000e+08	1.415928e+13	0.000000e+00	5.781247e-01	2.560763e+14	4.003535e+14	1.489618e+14	1.003924e+04	5.617700e+03	3.655581e+03	0	8.101277e-04
9.200000e+08	1.396527e+13	0.000000e+00	5.781247e-01	2.534151e+14	4.004282e+14	1.482816e+14	1.002035e+04	5.617875e+03	3.655695e+03	0	8.064105e-04
9.300000e+08	1.377450e+13	0.000000e+00	5.781247e-01	2.507976e+14	4.004442e+14	1.476061e+14	1.000166e+04	5.617913e+03	3.655719e+03	0	8.027218e-04
9.400000e+08	1.358692e+13	0.000000e+00	5.781247e-01	2.482229e+14	4.004033e+14	1.469353e+14	9.983156e+03	5.617817e+03	3.655657e+03	0	7.990611e-04
9.500000e+08	1.340244e+13	0.000000e+00	5.781247e-01	2.456901e+14	4.003073e+14	1.462690e+14	9.964842e+03	5.617592e+03	3.655510e+03	0	7.954283e-04
9.600000e+08	1.322102e+13	0.000000e+00	5.781247e-01	2.431983e+14	4.001581e+14	1.456072e+14	9.946715e+03	5.617242e+03	3.655282e+03	0	7.918228e-04
9.700000e+08	1.304258e+13	0.000000e+00	5.781247e-01	2.407468e+14	3.999573e+14	1.449500e+14	9.928772e+03	5.616770e+03	3.654976e+03	0	7.882444e-04
9.800000e+08	1.286707e+13	0.000000e+00	5.781247e-01	2.383346e+14	3.997068e+14	1.442972e+14	9.911008e+03	5.616182e+03	3.654593e+03	0	7.846927e-04
9.900000e+08	1.269443e+13	0.000000e+00	5.781247e-01	2.359610e+14	3.994081e+14	1.436489e+14	9.893422e+03	5.615480e+03	3.654136e+03	0	7.811674e-04
1.000000e+09	1.252459e+13	0.000000e+00	5.781247e-01	2.336253e+14	3.990629e+14	1.430050e+14	9.876010e+03	5.614668e+03	3.653607e+03	0	7.776681e-04
1.010000e+09	1.235751e+13	0.000000e+00	5.781247e-01	2.313266e+14	3.986728e+14	1.423654e+14	9.858770e+03	5.613750e+03	3.653010e+03	0	7.741944e-04
1.020000e+09	1.219312e+13	0.000000e+00	5.781247e-01	2.290642e+14	3.982393e+14	1.417302e+14	9.841699e+03	5.612729e+03	3.652346e+03	0	7.707462e-04
1.030000e+09	1.203138e+13	0.000000e+00	5.781247e-01	2.268374e+14	3.977641e+14	1.410992e+14	9.824795e+03	5.611608e+03	3.651617e+03	0	7.673229e-04
1.040000e+09	1.187222e+13	0.000000e+00	5.781247e-01	2.246454e+14	3.972486e+14	1.404726e+14	9.808054e+03	5.610392e+03	3.650825e+03	0	7.639243e-04
1.050000e+09	1.171559e+13	0.000000e+00	5.781247e-01	2.224876e+14	3.966943e+14	1.398501e+14	9.791475e+03	5.609083e+03	3.649973e+03	0	7.605501e-04
1.060000e+09	1.156145e+13	0.000000e+00	5.781247e-01	2.203633e+14	3.961027e+14	1.392319e+14	9.775054e+03	5.607684e+03	3.649063e+03	0	7.571998e-04
1.070000e+09	1.140975e+13	0.000000e+00	5.781247e-01	2.182717e+14	3.954751e+14	1.386178e+14	9.758790e+03	5.606199e+03	3.648096e+03	0	7.538733e-04
1.080000e+09	1.126042e+13	0.000000e+00	5.781247e-01	2.162124e+14	3.948128e+14	1.380079e+14	9.742679e+03	5.604629e+03	3.647075e+03	0	7.505702e-04
1.090000e+09	1.111344e+13	0.000000e+00	5.781247e-01	2.141845e+14	3.941173e+14	1.374020e+14	9.726720e+03	5.602979e+03	3.646001e+03	0	7.472901e-04
1.100000e+09	1.096875e+13	0.000000e+00	5.781247e-01	2.121875e+14	3.933900e+14	1.368002e+14	9.710910e+03	5.601250e+03	3.644876e+03	0	7.440327e-04
1.110000e+09	1.082630e+13	0.000000e+00	5.781247e-01	2.102209e+14	3.926318e+14	1.362025e+14	9.695247e+03	5.599446e+03	3.643702e+03	0	7.407978e-04
1.120000e+09	1.068605e+13	0.000000e+00	5.781247e-01	2.082839e+14	3.918442e+14	1.356088e+14	9.679729e+03	5.597570e+03	3.642481e+03	0	7.375850e-04
1.130000e+09	1.054796e+13	0.000000e+00	5.781247e-01	2.063759e+14	3.910283e+14	1.350190e+14	9.664354e+03	5.595623e+03	3.641214e+03	0	7.343940e-04
1.140000e+09	1.041198e+13	0.000000e+00	5.781247e-01	2.044966e+14	3.901854e+14	1.344332e+14	9.649118e+03	5.593608e+03	3.639903e+03	0	7.312246e-04
1.150000e+09	1.027807e+13	0.000000e+00	5.781247e-01	2.026452e+14	3.893165e+14	1.338513e+14	9.634021e+03	5.591528e+03	3.638549e+03	0	7.280763e-04
1.160000e+09	1.014619e+13	0.000000e+00	5.781247e-01	2.008212e+14	3.884227e+14	1.332733e+14	9.619061e+03	5.589384e+03	3.637155e+03	0	7.249490e-04
1.170000e+09	1.001631e+13	0.000000e+00	5.781247e-01	1.990241e+14	3.875052e+14	1.326991e+14	9.604234e+03	5.587180e+03	3.635720e+03	0	7.218423e-04
1.180000e+09	9.888379e+12	0.000000e+00	5.781247e-01	1.972533e+14	3.865650e+14	1.321287e+14	9.589540e+03	5.584917e+03	3.634248e+03	0	7.187559e-04
1.190000e+09	9.762362e+12	0.000000e+00	5.781247e-01	1.955084e+14	3.856030e+14	1.315622e+14	9.574976e+03	5.582598e+03	3.632739e+03	0	7.156895e-04
1.200000e+09	9.638222e+12	0.000000e+00	5.781247e-01	1.937889e+14	3.846202e+14	1.309994e+14	9.560541e+03	5.580224e+03	3.631194e+03	0	7.126430e-04
1.210000e+09	9.515922e+12	0.000000e+00	5.781247e-01	1.920943e+14	3.836177e+14	1.304403e+14	9.546232e+03	5.577798e+03	3.629615e+03	0	7.096159e-04
1.220000e+09	9.395428e+12	0.000000e+00	5.781247e-01	1.904240e+14	3.825963e+14	1.298849e+14	9.532048e+03	5.575321e+03	3.628004e+03	0	7.066080e-04
1.230000e+09	9.276703e+12	0.000000e+00	5.781247e-01	1.887777e+14	3.815571e+14	1.293333e+14	9.517987e+03	5.572796e+03	3.626360e+03	0	7.036191e-04
1.240000e+09	9.159715e+12	0.000000e+00	5.781247e-01	1.871548e+14	3.805006e+14	1.287852e+14	9.504047e+03	5.570224e+03	3.624687e+03	0	7.006488e-04
1.250000e+09	9.044430e+12	0.000000e+00	5.781247e-01	1.855550e+14	3.794280e+14	1.282408e+14	9.490227e+03	5.567607e+03	3.622984e+03	0	6.976969e-04
1.260000e+09	8.930816e+12	0.000000e+00	5.781247e-01	1.839778e+14	3.783400e+14	1.276999e+14	9.476524e+03	5.564947e+03	3.621253e+03	0	6.947631e-04
1.270000e+09	8.818840e+12	0.000000e+00	5.781247e-01	1.824227e+14	3.772373e+14	1.271627e+14	9.462937e+03	5.562246e+03	3.619495e+03	0	6.918472e-04
1.280000e+09	8.708472e+12	0.000000e+00	5.781247e-01	1.808894e+14	3.761208e+14	1.266289e+14	9.449465e+03	5.559504e+03	3.617711e+03	0	6.889489e-04
1.290000e+09	8.599681e+12	0.000000e+00	5.781247e-01	1.793774e+14	3.749911e+14	1.260987e+14	9.436106e+03	5.556724e+03	3.615902e+03	0	6.860680e-04
1.300000e+09	8.492438e+12	0.000000e+00	5.781247e-01	1.778864e+14	3.738490e+14	1.255719e+14	9.422859e+03	5.553907e+03	3.614069e+03	0	6.832042e-04
1.310000e+09	8.386714e+12	0.000000e+00	5.781247e-01	1.764159e+14	3.726953e+14	1.250486e+14	9.409721e+03	5.551055e+03	3.612213e+03	0	6.803572e-04
1.320000e+09	8.282479e+12	0.000000e+00	5.781247e-01	1.749657e+14	3.715304e+14	1.245288e+14	9.396691e+03	5.548169e+03	3.610335e+03	0	6.775268e-04
1.330000e+09	8.179707e+12	0.000000e+00	5.781247e-01	1.735352e+14	3.703554e+14	1.240123e+14	9.383768e+03	5.545251e+03	3.608436e+03	0	6.747128e-04
1.340000e+09	8.078370e+12	0.000000e+00	5.781247e-01	1.721241e+14	3.691705e+14	1.234992e+14	9.370951e+03	5.542301e+03	3.606517e+03	0	6.719149e-04
1.350000e+09	7.978442e+12	0.000000e+00	5.781247e-01	1.707322e+14	3.679764e+14	1.229895e+14	9.358237e+03	5.539322e+03	3.604578e+03	0	6.691329e-04
1.360000e+09	7.879897e+12	0.000000e+00	5.781247e-01	1.693589e+14	3.667739e+14	1.224830e+14	9.345626e+03	5.536314e+03	3.602621e+03	0	6.663666e-04
