#t		Qconv[W]	Ri[Rp]		R*[Rp]		Qc[W]		Qm[W]		Qr[W]		Tcmb[K]		Tl[K]		Tup[K]		RiFlag		Bs[T]
0.000000e+00	9.253937e+13	0.000000e+00	5.748032e-01	1.241062e+15	4.871179e+13	2.852350e+14	1.548682e+04	4.438907e+03	2.795804e+03	0	1.511135e-03
1.000000e+07	9.104566e+13	0.000000e+00	5.748032e-01	1.222880e+15	5.294072e+13	2.836546e+14	1.541285e+04	4.489383e+03	2.827595e+03	0	1.502960e-03
2.000000e+07	8.957690e+13	0.000000e+00	5.748032e-01	1.205000e+15	5.737355e+13	2.820860e+14	1.533997e+04	4.539034e+03	2.858868e+03	0	1.494834e-03
3.000000e+07	8.813254e+13	0.000000e+00	5.748032e-01	1.187415e+15	6.200875e+13	2.805291e+14	1.526814e+04	4.587865e+03	2.889623e+03	0	1.486756e-03
4.000000e+07	8.671205e+13	0.000000e+00	5.748032e-01	1.170119e+15	6.684411e+13	2.789839e+14	1.519735e+04	4.635878e+03	2.919864e+03	0	1.478725e-03
5.000000e+07	8.531493e+13	0.000000e+00	5.748032e-01	1.153107e+15	7.187681e+13	2.774502e+14	1.512758e+04	4.683078e+03	2.949592e+03	0	1.470740e-03
6.000000e+07	8.394069e+13	0.000000e+00	5.748032e-01	1.136371e+15	7.710344e+13	2.759279e+14	1.505882e+04	4.729468e+03	2.978811e+03	0	1.462801e-03
7.000000e+07	8.258887e+13	0.000000e+00	5.748032e-01	1.119908e+15	8.251996e+13	2.744169e+14	1.499105e+04	4.775051e+03	3.007521e+03	0	1.454906e-03
8.000000e+07	8.125902e+13	0.000000e+00	5.748032e-01	1.103710e+15	8.812177e+13	2.729172e+14	1.492426e+04	4.819830e+03	3.035724e+03	0	1.447054e-03
9.000000e+07	7.995072e+13	0.000000e+00	5.748032e-01	1.087774e+15	9.390372e+13	2.714286e+14	1.485842e+04	4.863809e+03	3.063424e+03	0	1.439246e-03
1.000000e+08	7.866355e+13	0.000000e+00	5.748032e-01	1.072093e+15	9.986011e+13	2.699511e+14	1.479353e+04	4.906991e+03	3.090622e+03	0	1.431481e-03
1.100000e+08	7.739713e+13	0.000000e+00	5.748032e-01	1.056665e+15	1.059848e+14	2.684846e+14	1.472957e+04	4.949379e+03	3.117319e+03	0	1.423757e-03
1.200000e+08	7.615107e+13	0.000000e+00	5.748032e-01	1.041483e+15	1.122711e+14	2.670289e+14	1.466652e+04	4.990976e+03	3.143519e+03	0	1.416075e-03
1.300000e+08	7.492500e+13	0.000000e+00	5.748032e-01	1.026544e+15	1.187119e+14	2.655840e+14	1.460436e+04	5.031787e+03	3.169223e+03	0	1.408434e-03
1.400000e+08	7.371860e+13	0.000000e+00	5.748032e-01	1.011843e+15	1.252997e+14	2.641498e+14	1.454310e+04	5.071814e+03	3.194434e+03	0	1.400834e-03
1.500000e+08	7.253150e+13	0.000000e+00	5.748032e-01	9.973757e+14	1.320267e+14	2.627262e+14	1.448270e+04	5.111060e+03	3.219153e+03	0	1.393274e-03
1.600000e+08	7.136341e+13	0.000000e+00	5.748032e-01	9.831393e+14	1.388845e+14	2.613131e+14	1.442317e+04	5.149531e+03	3.243383e+03	0	1.385754e-03
1.700000e+08	7.021400e+13	0.000000e+00	5.748032e-01	9.691294e+14	1.458647e+14	2.599104e+14	1.436447e+04	5.187229e+03	3.267127e+03	0	1.378274e-03
1.800000e+08	6.908297e+13	0.000000e+00	5.748032e-01	9.553425e+14	1.529585e+14	2.585181e+14	1.430661e+04	5.224159e+03	3.290387e+03	0	1.370833e-03
1.900000e+08	6.797004e+13	0.000000e+00	5.748032e-01	9.417750e+14	1.601568e+14	2.571361e+14	1.424957e+04	5.260325e+03	3.313166e+03	0	1.363432e-03
2.000000e+08	6.687493e+13	0.000000e+00	5.748032e-01	9.284236e+14	1.674504e+14	2.557642e+14	1.419333e+04	5.295731e+03	3.335466e+03	0	1.356070e-03
2.100000e+08	6.579737e+13	0.000000e+00	5.748032e-01	9.152850e+14	1.748298e+14	2.544024e+14	1.413788e+04	5.330383e+03	3.357291e+03	0	1.348747e-03
2.200000e+08	6.473709e+13	0.000000e+00	5.748032e-01	9.023561e+14	1.822856e+14	2.530506e+14	1.408321e+04	5.364284e+03	3.378644e+03	0	1.341463e-03
2.300000e+08	6.369385e+13	0.000000e+00	5.748032e-01	8.896336e+14	1.898082e+14	2.517087e+14	1.402931e+04	5.397441e+03	3.399527e+03	0	1.334218e-03
2.400000e+08	6.266739e+13	0.000000e+00	5.748032e-01	8.771147e+14	1.973877e+14	2.503766e+14	1.397617e+04	5.429858e+03	3.419944e+03	0	1.327012e-03
2.500000e+08	6.165748e+13	0.000000e+00	5.748032e-01	8.647964e+14	2.050146e+14	2.490543e+14	1.392376e+04	5.461540e+03	3.439899e+03	0	1.319845e-03
2.600000e+08	6.066388e+13	0.000000e+00	5.748032e-01	8.526759e+14	2.126792e+14	2.477417e+14	1.387209e+04	5.492494e+03	3.459395e+03	0	1.312717e-03
2.700000e+08	5.968637e+13	0.000000e+00	5.748032e-01	8.407504e+14	2.203717e+14	2.464387e+14	1.382114e+04	5.522726e+03	3.478437e+03	0	1.305628e-03
2.800000e+08	5.872472e+13	0.000000e+00	5.748032e-01	8.290171e+14	2.280828e+14	2.451452e+14	1.377090e+04	5.552242e+03	3.497027e+03	0	1.298578e-03
2.900000e+08	5.777872e+13	0.000000e+00	5.748032e-01	8.174735e+14	2.358027e+14	2.438612e+14	1.372135e+04	5.581047e+03	3.515170e+03	0	1.291567e-03
3.000000e+08	5.684814e+13	0.000000e+00	5.748032e-01	8.061169e+14	2.435224e+14	2.425865e+14	1.367249e+04	5.609150e+03	3.532870e+03	0	1.284596e-03
3.100000e+08	5.593279e+13	0.000000e+00	5.748032e-01	7.949447e+14	2.512325e+14	2.413210e+14	1.362431e+04	5.636556e+03	3.550131e+03	0	1.277664e-03
3.200000e+08	5.503245e+13	0.000000e+00	5.748032e-01	7.839545e+14	2.589240e+14	2.400648e+14	1.357679e+04	5.663273e+03	3.566959e+03	0	1.270771e-03
3.300000e+08	5.414692e+13	0.000000e+00	5.748032e-01	7.731437e+14	2.665883e+14	2.388178e+14	1.352992e+04	5.689308e+03	3.583357e+03	0	1.263918e-03
3.400000e+08	5.327600e+13	0.000000e+00	5.748032e-01	7.625098e+14	2.742167e+14	2.375798e+14	1.348370e+04	5.714669e+03	3.599330e+03	0	1.257105e-03
3.500000e+08	5.241950e+13	0.000000e+00	5.748032e-01	7.520506e+14	2.818009e+14	2.363507e+14	1.343810e+04	5.739363e+03	3.614883e+03	0	1.250332e-03
3.600000e+08	5.157720e+13	0.000000e+00	5.748032e-01	7.417635e+14	2.893329e+14	2.351306e+14	1.339313e+04	5.763399e+03	3.630022e+03	0	1.243599e-03
3.700000e+08	5.074893e+13	0.000000e+00	5.748032e-01	7.316462e+14	2.968051e+14	2.339193e+14	1.334877e+04	5.786784e+03	3.644751e+03	0	1.236906e-03
3.800000e+08	4.993449e+13	0.000000e+00	5.748032e-01	7.216964e+14	3.042098e+14	2.327168e+14	1.330502e+04	5.809527e+03	3.659075e+03	0	1.230253e-03
3.900000e+08	4.913369e+13	0.000000e+00	5.748032e-01	7.119117e+14	3.115400e+14	2.315230e+14	1.326185e+04	5.831636e+03	3.673001e+03	0	1.223641e-03
4.000000e+08	4.834634e+13	0.000000e+00	5.748032e-01	7.022899e+14	3.187888e+14	2.303378e+14	1.321927e+04	5.853120e+03	3.686532e+03	0	1.217070e-03
4.100000e+08	4.757225e+13	0.000000e+00	5.748032e-01	6.928286e+14	3.259497e+14	2.291611e+14	1.317726e+04	5.873988e+03	3.699676e+03	0	1.210539e-03
4.200000e+08	4.681123e+13	0.000000e+00	5.748032e-01	6.835256e+14	3.330166e+14	2.279929e+14	1.313581e+04	5.894248e+03	3.712436e+03	0	1.204050e-03
4.300000e+08	4.606310e+13	0.000000e+00	5.748032e-01	6.743786e+14	3.399837e+14	2.268332e+14	1.309491e+04	5.913910e+03	3.724820e+03	0	1.197601e-03
4.400000e+08	4.532768e+13	0.000000e+00	5.748032e-01	6.653853e+14	3.468454e+14	2.256817e+14	1.305457e+04	5.932982e+03	3.736833e+03	0	1.191193e-03
4.500000e+08	4.460479e+13	0.000000e+00	5.748032e-01	6.565436e+14	3.535968e+14	2.245386e+14	1.301475e+04	5.951475e+03	3.748480e+03	0	1.184827e-03
4.600000e+08	4.389423e+13	0.000000e+00	5.748032e-01	6.478512e+14	3.602328e+14	2.234037e+14	1.297546e+04	5.969396e+03	3.759768e+03	0	1.178501e-03
4.700000e+08	4.319582e+13	0.000000e+00	5.748032e-01	6.393059e+14	3.667492e+14	2.222769e+14	1.293669e+04	5.986757e+03	3.770702e+03	0	1.172218e-03
4.800000e+08	4.250940e+13	0.000000e+00	5.748032e-01	6.309055e+14	3.731418e+14	2.211581e+14	1.289843e+04	6.003565e+03	3.781289e+03	0	1.165975e-03
4.900000e+08	4.183477e+13	0.000000e+00	5.748032e-01	6.226478e+14	3.794068e+14	2.200474e+14	1.286067e+04	6.019831e+03	3.791534e+03	0	1.159774e-03
5.000000e+08	4.117176e+13	0.000000e+00	5.748032e-01	6.145307e+14	3.855411e+14	2.189446e+14	1.282340e+04	6.035565e+03	3.801443e+03	0	1.153615e-03
5.100000e+08	4.052019e+13	0.000000e+00	5.748032e-01	6.065519e+14	3.915413e+14	2.178497e+14	1.278662e+04	6.050775e+03	3.811023e+03	0	1.147497e-03
5.200000e+08	3.987988e+13	0.000000e+00	5.748032e-01	5.987094e+14	3.974047e+14	2.167627e+14	1.275031e+04	6.065472e+03	3.820280e+03	0	1.141420e-03
5.300000e+08	3.925066e+13	0.000000e+00	5.748032e-01	5.910009e+14	4.031288e+14	2.156833e+14	1.271446e+04	6.079665e+03	3.829219e+03	0	1.135385e-03
5.400000e+08	3.863234e+13	0.000000e+00	5.748032e-01	5.834244e+14	4.087118e+14	2.146117e+14	1.267908e+04	6.093363e+03	3.837847e+03	0	1.129392e-03
5.500000e+08	3.802476e+13	0.000000e+00	5.748032e-01	5.759777e+14	4.141515e+14	2.135477e+14	1.264415e+04	6.106578e+03	3.846170e+03	0	1.123440e-03
5.600000e+08	3.742775e+13	0.000000e+00	5.748032e-01	5.686587e+14	4.194464e+14	2.124912e+14	1.260966e+04	6.119317e+03	3.854194e+03	0	1.117529e-03
5.700000e+08	3.684112e+13	0.000000e+00	5.748032e-01	5.614654e+14	4.245957e+14	2.114423e+14	1.257561e+04	6.131591e+03	3.861924e+03	0	1.111660e-03
5.800000e+08	3.626471e+13	0.000000e+00	5.748032e-01	5.543957e+14	4.295977e+14	2.104008e+14	1.254198e+04	6.143410e+03	3.869368e+03	0	1.105832e-03
5.900000e+08	3.569835e+13	0.000000e+00	5.748032e-01	5.474475e+14	4.344524e+14	2.093666e+14	1.250878e+04	6.154782e+03	3.876531e+03	0	1.100045e-03
6.000000e+08	3.514187e+13	0.000000e+00	5.748032e-01	5.406187e+14	4.391588e+14	2.083398e+14	1.247599e+04	6.165717e+03	3.883418e+03	0	1.094299e-03
6.100000e+08	3.459511e+13	0.000000e+00	5.748032e-01	5.339075e+14	4.437170e+14	2.073203e+14	1.244361e+04	6.176225e+03	3.890037e+03	0	1.088594e-03
6.200000e+08	3.405789e+13	0.000000e+00	5.748032e-01	5.273116e+14	4.481267e+14	2.063079e+14	1.241163e+04	6.186315e+03	3.896392e+03	0	1.082930e-03
6.300000e+08	3.353005e+13	0.000000e+00	5.748032e-01	5.208292e+14	4.523884e+14	2.053028e+14	1.238005e+04	6.195997e+03	3.902490e+03	0	1.077306e-03
6.400000e+08	3.301143e+13	0.000000e+00	5.748032e-01	5.144583e+14	4.565024e+14	2.043046e+14	1.234885e+04	6.205279e+03	3.908336e+03	0	1.071723e-03
6.500000e+08	3.250186e+13	0.000000e+00	5.748032e-01	5.081969e+14	4.604694e+14	2.033136e+14	1.231802e+04	6.214171e+03	3.913936e+03	0	1.066180e-03
6.600000e+08	3.200119e+13	0.000000e+00	5.748032e-01	5.020430e+14	4.642900e+14	2.023295e+14	1.228758e+04	6.222681e+03	3.919296e+03	0	1.060677e-03
6.700000e+08	3.150926e+13	0.000000e+00	5.748032e-01	4.959949e+14	4.679654e+14	2.013523e+14	1.225750e+04	6.230818e+03	3.924422e+03	0	1.055214e-03
6.800000e+08	3.102592e+13	0.000000e+00	5.748032e-01	4.900506e+14	4.714967e+14	2.003820e+14	1.222778e+04	6.238592e+03	3.929318e+03	0	1.049790e-03
6.900000e+08	3.055100e+13	0.000000e+00	5.748032e-01	4.842081e+14	4.748851e+14	1.994185e+14	1.219842e+04	6.246011e+03	3.933991e+03	0	1.044406e-03
7.000000e+08	3.008435e+13	0.000000e+00	5.748032e-01	4.784657e+14	4.781322e+14	1.984617e+14	1.216940e+04	6.253084e+03	3.938446e+03	0	1.039061e-03
7.100000e+08	2.962582e+13	0.000000e+00	5.748032e-01	4.728216e+14	4.812392e+14	1.975117e+14	1.214073e+04	6.259819e+03	3.942687e+03	0	1.033755e-03
7.200000e+08	2.917527e+13	0.000000e+00	5.748032e-01	4.672739e+14	4.842081e+14	1.965683e+14	1.211239e+04	6.266224e+03	3.946722e+03	0	1.028488e-03
7.300000e+08	2.873254e+13	0.000000e+00	5.748032e-01	4.618209e+14	4.870407e+14	1.956314e+14	1.208439e+04	6.272308e+03	3.950554e+03	0	1.023259e-03
7.400000e+08	2.829749e+13	0.000000e+00	5.748032e-01	4.564607e+14	4.897386e+14	1.947012e+14	1.205671e+04	6.278078e+03	3.954188e+03	0	1.018068e-03
7.500000e+08	2.786998e+13	0.000000e+00	5.748032e-01	4.511918e+14	4.923043e+14	1.937774e+14	1.202935e+04	6.283544e+03	3.957630e+03	0	1.012915e-03
7.600000e+08	2.744986e+13	0.000000e+00	5.748032e-01	4.460123e+14	4.947392e+14	1.928600e+14	1.200230e+04	6.288712e+03	3.960885e+03	0	1.007800e-03
7.700000e+08	2.703699e+13	0.000000e+00	5.748032e-01	4.409205e+14	4.970459e+14	1.919490e+14	1.197557e+04	6.293590e+03	3.963958e+03	0	1.002722e-03
7.800000e+08	2.663124e+13	0.000000e+00	5.748032e-01	4.359149e+14	4.992265e+14	1.910444e+14	1.194914e+04	6.298186e+03	3.966852e+03	0	9.976805e-04
7.900000e+08	2.623248e+13	0.000000e+00	5.748032e-01	4.309938e+14	5.012832e+14	1.901460e+14	1.192300e+04	6.302507e+03	3.969574e+03	0	9.926758e-04
8.000000e+08	2.584056e+13	0.000000e+00	5.748032e-01	4.261555e+14	5.032182e+14	1.892539e+14	1.189717e+04	6.306561e+03	3.972127e+03	0	9.877073e-04
8.100000e+08	2.545535e+13	0.000000e+00	5.748032e-01	4.213986e+14	5.050340e+14	1.883679e+14	1.187162e+04	6.310355e+03	3.974517e+03	0	9.827748e-04
8.200000e+08	2.507673e+13	0.000000e+00	5.748032e-01	4.167213e+14	5.067332e+14	1.874881e+14	1.184635e+04	6.313895e+03	3.976747e+03	0	9.778779e-04
8.300000e+08	2.470457e+13	0.000000e+00	5.748032e-01	4.121223e+14	5.083178e+14	1.866144e+14	1.182136e+04	6.317189e+03	3.978822e+03	0	9.730163e-04
8.400000e+08	2.433875e+13	0.000000e+00	5.748032e-01	4.075999e+14	5.097905e+14	1.857467e+14	1.179665e+04	6.320244e+03	3.980746e+03	0	9.681896e-04
8.500000e+08	2.397913e+13	0.000000e+00	5.748032e-01	4.031528e+14	5.111538e+14	1.848850e+14	1.177221e+04	6.323066e+03	3.982523e+03	0	9.633975e-04
8.600000e+08	2.362561e+13	0.000000e+00	5.748032e-01	3.987794e+14	5.124100e+14	1.840292e+14	1.174804e+04	6.325661e+03	3.984158e+03	0	9.586395e-04
8.700000e+08	2.327806e+13	0.000000e+00	5.748032e-01	3.944784e+14	5.135616e+14	1.831793e+14	1.172412e+04	6.328036e+03	3.985654e+03	0	9.539155e-04
8.800000e+08	2.293636e+13	0.000000e+00	5.748032e-01	3.902482e+14	5.146113e+14	1.823353e+14	1.170046e+04	6.330198e+03	3.987015e+03	0	9.492250e-04
8.900000e+08	2.260040e+13	0.000000e+00	5.748032e-01	3.860876e+14	5.155614e+14	1.814970e+14	1.167706e+04	6.332151e+03	3.988245e+03	0	9.445676e-04
9.000000e+08	2.227007e+13	0.000000e+00	5.748032e-01	3.819952e+14	5.164145e+14	1.806645e+14	1.165390e+04	6.333903e+03	3.989349e+03	0	9.399429e-04
9.100000e+08	2.194525e+13	0.000000e+00	5.748032e-01	3.779696e+14	5.171729e+14	1.798378e+14	1.163099e+04	6.335458e+03	3.990328e+03	0	9.353508e-04
9.200000e+08	2.162584e+13	0.000000e+00	5.748032e-01	3.740095e+14	5.178392e+14	1.790167e+14	1.160832e+04	6.336824e+03	3.991188e+03	0	9.307906e-04
9.300000e+08	2.131173e+13	0.000000e+00	5.748032e-01	3.701137e+14	5.184158e+14	1.782012e+14	1.158589e+04	6.338004e+03	3.991932e+03	0	9.262621e-04
9.400000e+08	2.100282e+13	0.000000e+00	5.748032e-01	3.662809e+14	5.189052e+14	1.773912e+14	1.156368e+04	6.339005e+03	3.992562e+03	0	9.217650e-04
9.500000e+08	2.069900e+13	0.000000e+00	5.748032e-01	3.625099e+14	5.193096e+14	1.765868e+14	1.154171e+04	6.339832e+03	3.993083e+03	0	9.172988e-04
9.600000e+08	2.040018e+13	0.000000e+00	5.748032e-01	3.587994e+14	5.196317e+14	1.757879e+14	1.151997e+04	6.340490e+03	3.993498e+03	0	9.128631e-04
9.700000e+08	2.010625e+13	0.000000e+00	5.748032e-01	3.551483e+14	5.198736e+14	1.749944e+14	1.149844e+04	6.340984e+03	3.993809e+03	0	9.084577e-04
9.800000e+08	1.981712e+13	0.000000e+00	5.748032e-01	3.515553e+14	5.200377e+14	1.742064e+14	1.147713e+04	6.341320e+03	3.994020e+03	0	9.040820e-04
9.900000e+08	1.953269e+13	0.000000e+00	5.748032e-01	3.480195e+14	5.201265e+14	1.734237e+14	1.145604e+04	6.341500e+03	3.994134e+03	0	8.997359e-04
1.000000e+09	1.925288e+13	0.000000e+00	5.748032e-01	3.445396e+14	5.201418e+14	1.726463e+14	1.143516e+04	6.341532e+03	3.994154e+03	0	8.954188e-04
1.010000e+09	1.897758e+13	0.000000e+00	5.748032e-01	3.411145e+14	5.200862e+14	1.718741e+14	1.141449e+04	6.341418e+03	3.994082e+03	0	8.911304e-04
1.020000e+09	1.870671e+13	0.000000e+00	5.748032e-01	3.377432e+14	5.199618e+14	1.711072e+14	1.139402e+04	6.341164e+03	3.993922e+03	0	8.868704e-04
1.030000e+09	1.844019e+13	0.000000e+00	5.748032e-01	3.344247e+14	5.197708e+14	1.703455e+14	1.137376e+04	6.340774e+03	3.993676e+03	0	8.826383e-04
1.040000e+09	1.817792e+13	0.000000e+00	5.748032e-01	3.311578e+14	5.195152e+14	1.695890e+14	1.135369e+04	6.340252e+03	3.993348e+03	0	8.784339e-04
1.050000e+09	1.791983e+13	0.000000e+00	5.748032e-01	3.279416e+14	5.191972e+14	1.688375e+14	1.133382e+04	6.339602e+03	3.992938e+03	0	8.742567e-04
1.060000e+09	1.766583e+13	0.000000e+00	5.748032e-01	3.247752e+14	5.188188e+14	1.680911e+14	1.131414e+04	6.338829e+03	3.992451e+03	0	8.701064e-04
1.070000e+09	1.741584e+13	0.000000e+00	5.748032e-01	3.216574e+14	5.183821e+14	1.673498e+14	1.129465e+04	6.337935e+03	3.991888e+03	0	8.659825e-04
1.080000e+09	1.716978e+13	0.000000e+00	5.748032e-01	3.185874e+14	5.178889e+14	1.666134e+14	1.127534e+04	6.336926e+03	3.991252e+03	0	8.618849e-04
1.090000e+09	1.692758e+13	0.000000e+00	5.748032e-01	3.155643e+14	5.173413e+14	1.658820e+14	1.125622e+04	6.335804e+03	3.990546e+03	0	8.578130e-04
1.100000e+09	1.668916e+13	0.000000e+00	5.748032e-01	3.125871e+14	5.167409e+14	1.651555e+14	1.123728e+04	6.334573e+03	3.989771e+03	0	8.537665e-04
1.110000e+09	1.645444e+13	0.000000e+00	5.748032e-01	3.096550e+14	5.160900e+14	1.644338e+14	1.121852e+04	6.333237e+03	3.988929e+03	0	8.497452e-04
1.120000e+09	1.622336e+13	0.000000e+00	5.748032e-01	3.067671e+14	5.153900e+14	1.637170e+14	1.119993e+04	6.331799e+03	3.988023e+03	0	8.457485e-04
1.130000e+09	1.599584e+13	0.000000e+00	5.748032e-01	3.039225e+14	5.146429e+14	1.630050e+14	1.118152e+04	6.330262e+03	3.987056e+03	0	8.417763e-04
1.140000e+09	1.577181e+13	0.000000e+00	5.748032e-01	3.011203e+14	5.138502e+14	1.622978e+14	1.116328e+04	6.328631e+03	3.986028e+03	0	8.378280e-04
1.150000e+09	1.555121e+13	0.000000e+00	5.748032e-01	2.983599e+14	5.130138e+14	1.615953e+14	1.114520e+04	6.326907e+03	3.984942e+03	0	8.339034e-04
1.160000e+09	1.533397e+13	0.000000e+00	5.748032e-01	2.956404e+14	5.121351e+14	1.608974e+14	1.112729e+04	6.325094e+03	3.983800e+03	0	8.300022e-04
1.170000e+09	1.512003e+13	0.000000e+00	5.748032e-01	2.929609e+14	5.112161e+14	1.602043e+14	1.110955e+04	6.323195e+03	3.982604e+03	0	8.261239e-04
1.180000e+09	1.490931e+13	0.000000e+00	5.748032e-01	2.903208e+14	5.102581e+14	1.595157e+14	1.109196e+04	6.321212e+03	3.981356e+03	0	8.222683e-04
1.190000e+09	1.470177e+13	0.000000e+00	5.748032e-01	2.877193e+14	5.092626e+14	1.588317e+14	1.107453e+04	6.319150e+03	3.980056e+03	0	8.184350e-04
1.200000e+09	1.449733e+13	0.000000e+00	5.748032e-01	2.851556e+14	5.082311e+14	1.581522e+14	1.105726e+04	6.317009e+03	3.978708e+03	0	8.146237e-04
1.210000e+09	1.429594e+13	0.000000e+00	5.748032e-01	2.826291e+14	5.071650e+14	1.574773e+14	1.104014e+04	6.314794e+03	3.977313e+03	0	8.108340e-04
1.220000e+09	1.409754e+13	0.000000e+00	5.748032e-01	2.801390e+14	5.060659e+14	1.568068e+14	1.102317e+04	6.312506e+03	3.975872e+03	0	8.070656e-04
1.230000e+09	1.390208e+13	0.000000e+00	5.748032e-01	2.776846e+14	5.049350e+14	1.561408e+14	1.100635e+04	6.310148e+03	3.974387e+03	0	8.033182e-04
1.240000e+09	1.370949e+13	0.000000e+00	5.748032e-01	2.752654e+14	5.037736e+14	1.554791e+14	1.098968e+04	6.307723e+03	3.972859e+03	0	7.995914e-04
1.250000e+09	1.351973e+13	0.000000e+00	5.748032e-01	2.728805e+14	5.025833e+14	1.548218e+14	1.097315e+04	6.305232e+03	3.971291e+03	0	7.958850e-04
1.260000e+09	1.333274e+13	0.000000e+00	5.748032e-01	2.705294e+14	5.013650e+14	1.541689e+14	1.095676e+04	6.302679e+03	3.969682e+03	0	7.921986e-04
1.270000e+09	1.314846e+13	0.000000e+00	5.748032e-01	2.682115e+14	5.001201e+14	1.535203e+14	1.094052e+04	6.300065e+03	3.968036e+03	0	7.885319e-04
1.280000e+09	1.296685e+13	0.000000e+00	5.748032e-01	2.659261e+14	4.988496e+14	1.528759e+14	1.092441e+04	6.297393e+03	3.966353e+03	0	7.848846e-04
1.290000e+09	1.278786e+13	0.000000e+00	5.748032e-01	2.636726e+14	4.975549e+14	1.522358e+14	1.090844e+04	6.294664e+03	3.964634e+03	0	7.812564e-04
1.300000e+09	1.261143e+13	0.000000e+00	5.748032e-01	2.614505e+14	4.962370e+14	1.515998e+14	1.089261e+04	6.291881e+03	3.962882e+03	0	7.776470e-04
1.310000e+09	1.243753e+13	0.000000e+00	5.748032e-01	2.592591e+14	4.948970e+14	1.509681e+14	1.087691e+04	6.289046e+03	3.961096e+03	0	7.740559e-04
1.320000e+09	1.226610e+13	0.000000e+00	5.748032e-01	2.570979e+14	4.935360e+14	1.503404e+14	1.086134e+04	6.286160e+03	3.959278e+03	0	7.704831e-04
1.330000e+09	1.209709e+13	0.000000e+00	5.748032e-01	2.549664e+14	4.921550e+14	1.497169e+14	1.084590e+04	6.283226e+03	3.957431e+03	0	7.669281e-04
1.340000e+09	1.193047e+13	0.000000e+00	5.748032e-01	2.528639e+14	4.907550e+14	1.490975e+14	1.083059e+04	6.280246e+03	3.955553e+03	0	7.633906e-04
1.350000e+09	1.176619e+13	0.000000e+00	5.748032e-01	2.507900e+14	4.893369e+14	1.484821e+14	1.081540e+04	6.277220e+03	3.953648e+03	0	7.598704e-04
1.360000e+09	1.160420e+13	0.000000e+00	5.748032e-01	2.487442e+14	4.879017e+14	1.478707e+14	1.080034e+04	6.274152e+03	3.951715e+03	0	7.563672e-04
