#t		Qconv[W]	Ri[Rp]		R*[Rp]		Qc[W]		Qm[W]		Qr[W]		Tcmb[K]		Tl[K]		Tup[K]		RiFlag		Bs[T]
0.000000e+00	9.637343e+13	0.000000e+00	5.748031e-01	1.280057e+15	4.781959e+13	2.922413e+14	1.574878e+04	4.478212e+03	2.809142e+03	0	1.530587e-03
1.000000e+07	9.484863e+13	0.000000e+00	5.748031e-01	1.261746e+15	5.199083e+13	2.906221e+14	1.567474e+04	4.529138e+03	2.841087e+03	0	1.522471e-03
2.000000e+07	9.334842e+13	0.000000e+00	5.748031e-01	1.243728e+15	5.636673e+13	2.890150e+14	1.560176e+04	4.579255e+03	2.872525e+03	0	1.514402e-03
3.000000e+07	9.187228e+13	0.000000e+00	5.748031e-01	1.225998e+15	6.094615e+13	2.874199e+14	1.552981e+04	4.628565e+03	2.903457e+03	0	1.506377e-03
4.000000e+07	9.041969e+13	0.000000e+00	5.748031e-01	1.208549e+15	6.572735e+13	2.858367e+14	1.545888e+04	4.677072e+03	2.933884e+03	0	1.498396e-03
5.000000e+07	8.899019e+13	0.000000e+00	5.748031e-01	1.191377e+15	7.070797e+13	2.842653e+14	1.538896e+04	4.724778e+03	2.963810e+03	0	1.490457e-03
6.000000e+07	8.758331e+13	0.000000e+00	5.748031e-01	1.174475e+15	7.588501e+13	2.827056e+14	1.532001e+04	4.771688e+03	2.993236e+03	0	1.482561e-03
7.000000e+07	8.619861e+13	0.000000e+00	5.748031e-01	1.157838e+15	8.125493e+13	2.811575e+14	1.525204e+04	4.817803e+03	3.022164e+03	0	1.474706e-03
8.000000e+07	8.483566e+13	0.000000e+00	5.748031e-01	1.141461e+15	8.681355e+13	2.796210e+14	1.518503e+04	4.863127e+03	3.050595e+03	0	1.466892e-03
9.000000e+07	8.349406e+13	0.000000e+00	5.748031e-01	1.125339e+15	9.255620e+13	2.780959e+14	1.511895e+04	4.907662e+03	3.078532e+03	0	1.459119e-03
1.000000e+08	8.217342e+13	0.000000e+00	5.748031e-01	1.109468e+15	9.847761e+13	2.765820e+14	1.505380e+04	4.951412e+03	3.105976e+03	0	1.451385e-03
1.100000e+08	8.087336e+13	0.000000e+00	5.748031e-01	1.093843e+15	1.045721e+14	2.750795e+14	1.498956e+04	4.994379e+03	3.132929e+03	0	1.443690e-03
1.200000e+08	7.959352e+13	0.000000e+00	5.748031e-01	1.078460e+15	1.108333e+14	2.735880e+14	1.492623e+04	5.036567e+03	3.159392e+03	0	1.436034e-03
1.300000e+08	7.833355e+13	0.000000e+00	5.748031e-01	1.063315e+15	1.172547e+14	2.721077e+14	1.486377e+04	5.077977e+03	3.185369e+03	0	1.428416e-03
1.400000e+08	7.709313e+13	0.000000e+00	5.748031e-01	1.048404e+15	1.238291e+14	2.706382e+14	1.480219e+04	5.118614e+03	3.210860e+03	0	1.420836e-03
1.500000e+08	7.587193e+13	0.000000e+00	5.748031e-01	1.033723e+15	1.305490e+14	2.691796e+14	1.474146e+04	5.158480e+03	3.235867e+03	0	1.413294e-03
1.600000e+08	7.466965e+13	0.000000e+00	5.748031e-01	1.019268e+15	1.374065e+14	2.677319e+14	1.468158e+04	5.197579e+03	3.260394e+03	0	1.405789e-03
1.700000e+08	7.348599e+13	0.000000e+00	5.748031e-01	1.005036e+15	1.443935e+14	2.662947e+14	1.462253e+04	5.235914e+03	3.284441e+03	0	1.398321e-03
1.800000e+08	7.232066e+13	0.000000e+00	5.748031e-01	9.910233e+14	1.515014e+14	2.648682e+14	1.456430e+04	5.273489e+03	3.308012e+03	0	1.390890e-03
1.900000e+08	7.117339e+13	0.000000e+00	5.748031e-01	9.772267e+14	1.587216e+14	2.634522e+14	1.450688e+04	5.310308e+03	3.331108e+03	0	1.383496e-03
2.000000e+08	7.004391e+13	0.000000e+00	5.748031e-01	9.636430e+14	1.660449e+14	2.620466e+14	1.445025e+04	5.346374e+03	3.353732e+03	0	1.376139e-03
2.100000e+08	6.893197e+13	0.000000e+00	5.748031e-01	9.502692e+14	1.734623e+14	2.606514e+14	1.439440e+04	5.381692e+03	3.375886e+03	0	1.368818e-03
2.200000e+08	6.783732e+13	0.000000e+00	5.748031e-01	9.371021e+14	1.809644e+14	2.592663e+14	1.433932e+04	5.416266e+03	3.397575e+03	0	1.361534e-03
2.300000e+08	6.675971e+13	0.000000e+00	5.748031e-01	9.241390e+14	1.885417e+14	2.578915e+14	1.428500e+04	5.450101e+03	3.418799e+03	0	1.354286e-03
2.400000e+08	6.569891e+13	0.000000e+00	5.748031e-01	9.113770e+14	1.961849e+14	2.565267e+14	1.423143e+04	5.483202e+03	3.439563e+03	0	1.347074e-03
2.500000e+08	6.465470e+13	0.000000e+00	5.748031e-01	8.988133e+14	2.038841e+14	2.551720e+14	1.417859e+04	5.515573e+03	3.459869e+03	0	1.339899e-03
2.600000e+08	6.362684e+13	0.000000e+00	5.748031e-01	8.864454e+14	2.116299e+14	2.538271e+14	1.412648e+04	5.547220e+03	3.479721e+03	0	1.332761e-03
2.700000e+08	6.261513e+13	0.000000e+00	5.748031e-01	8.742705e+14	2.194126e+14	2.524921e+14	1.407508e+04	5.578149e+03	3.499122e+03	0	1.325659e-03
2.800000e+08	6.161935e+13	0.000000e+00	5.748031e-01	8.622862e+14	2.272227e+14	2.511668e+14	1.402438e+04	5.608364e+03	3.518076e+03	0	1.318594e-03
2.900000e+08	6.063929e+13	0.000000e+00	5.748031e-01	8.504898e+14	2.350507e+14	2.498512e+14	1.397437e+04	5.637872e+03	3.536586e+03	0	1.311566e-03
3.000000e+08	5.967476e+13	0.000000e+00	5.748031e-01	8.388791e+14	2.428872e+14	2.485452e+14	1.392505e+04	5.666680e+03	3.554657e+03	0	1.304575e-03
3.100000e+08	5.872555e+13	0.000000e+00	5.748031e-01	8.274515e+14	2.507230e+14	2.472487e+14	1.387639e+04	5.694793e+03	3.572292e+03	0	1.297621e-03
3.200000e+08	5.779146e+13	0.000000e+00	5.748031e-01	8.162047e+14	2.585490e+14	2.459617e+14	1.382839e+04	5.722218e+03	3.589495e+03	0	1.290704e-03
3.300000e+08	5.687230e+13	0.000000e+00	5.748031e-01	8.051364e+14	2.663563e+14	2.446840e+14	1.378104e+04	5.748963e+03	3.606272e+03	0	1.283825e-03
3.400000e+08	5.596788e+13	0.000000e+00	5.748031e-01	7.942442e+14	2.741362e+14	2.434155e+14	1.373433e+04	5.775033e+03	3.622626e+03	0	1.276983e-03
3.500000e+08	5.507800e+13	0.000000e+00	5.748031e-01	7.835259e+14	2.818801e+14	2.421563e+14	1.368825e+04	5.800437e+03	3.638561e+03	0	1.270179e-03
3.600000e+08	5.420250e+13	0.000000e+00	5.748031e-01	7.729792e+14	2.895800e+14	2.409062e+14	1.364278e+04	5.825181e+03	3.654083e+03	0	1.263413e-03
3.700000e+08	5.334117e+13	0.000000e+00	5.748031e-01	7.626018e+14	2.972276e+14	2.396652e+14	1.359792e+04	5.849275e+03	3.669197e+03	0	1.256685e-03
3.800000e+08	5.249383e+13	0.000000e+00	5.748031e-01	7.523917e+14	3.048155e+14	2.384331e+14	1.355367e+04	5.872724e+03	3.683906e+03	0	1.249995e-03
3.900000e+08	5.166031e+13	0.000000e+00	5.748031e-01	7.423465e+14	3.123361e+14	2.372100e+14	1.351000e+04	5.895538e+03	3.698217e+03	0	1.243344e-03
4.000000e+08	5.084042e+13	0.000000e+00	5.748031e-01	7.324641e+14	3.197823e+14	2.359956e+14	1.346691e+04	5.917724e+03	3.712134e+03	0	1.236731e-03
4.100000e+08	5.003398e+13	0.000000e+00	5.748031e-01	7.227423e+14	3.271474e+14	2.347901e+14	1.342440e+04	5.939291e+03	3.725663e+03	0	1.230157e-03
4.200000e+08	4.924082e+13	0.000000e+00	5.748031e-01	7.131790e+14	3.344249e+14	2.335932e+14	1.338244e+04	5.960247e+03	3.738809e+03	0	1.223622e-03
4.300000e+08	4.846074e+13	0.000000e+00	5.748031e-01	7.037720e+14	3.416086e+14	2.324050e+14	1.334104e+04	5.980602e+03	3.751577e+03	0	1.217126e-03
4.400000e+08	4.769359e+13	0.000000e+00	5.748031e-01	6.945192e+14	3.486926e+14	2.312253e+14	1.330018e+04	6.000363e+03	3.763973e+03	0	1.210669e-03
4.500000e+08	4.693918e+13	0.000000e+00	5.748031e-01	6.854185e+14	3.556715e+14	2.300540e+14	1.325985e+04	6.019540e+03	3.776003e+03	0	1.204252e-03
4.600000e+08	4.619733e+13	0.000000e+00	5.748031e-01	6.764678e+14	3.625403e+14	2.288912e+14	1.322005e+04	6.038142e+03	3.787671e+03	0	1.197874e-03
4.700000e+08	4.546786e+13	0.000000e+00	5.748031e-01	6.676648e+14	3.692940e+14	2.277367e+14	1.318077e+04	6.056177e+03	3.798984e+03	0	1.191535e-03
4.800000e+08	4.475062e+13	0.000000e+00	5.748031e-01	6.590077e+14	3.759283e+14	2.265905e+14	1.314199e+04	6.073655e+03	3.809948e+03	0	1.185237e-03
4.900000e+08	4.404541e+13	0.000000e+00	5.748031e-01	6.504941e+14	3.824388e+14	2.254525e+14	1.310372e+04	6.090585e+03	3.820568e+03	0	1.178978e-03
5.000000e+08	4.335207e+13	0.000000e+00	5.748031e-01	6.421222e+14	3.888220e+14	2.243227e+14	1.306594e+04	6.106976e+03	3.830850e+03	0	1.172759e-03
5.100000e+08	4.267042e+13	0.000000e+00	5.748031e-01	6.338897e+14	3.950744e+14	2.232009e+14	1.302864e+04	6.122838e+03	3.840800e+03	0	1.166580e-03
5.200000e+08	4.200029e+13	0.000000e+00	5.748031e-01	6.257946e+14	4.011928e+14	2.220871e+14	1.299182e+04	6.138180e+03	3.850424e+03	0	1.160441e-03
5.300000e+08	4.134151e+13	0.000000e+00	5.748031e-01	6.178350e+14	4.071744e+14	2.209812e+14	1.295547e+04	6.153011e+03	3.859728e+03	0	1.154341e-03
5.400000e+08	4.069391e+13	0.000000e+00	5.748031e-01	6.100086e+14	4.130167e+14	2.198833e+14	1.291957e+04	6.167342e+03	3.868717e+03	0	1.148282e-03
5.500000e+08	4.005731e+13	0.000000e+00	5.748031e-01	6.023134e+14	4.187176e+14	2.187931e+14	1.288413e+04	6.181180e+03	3.877398e+03	0	1.142263e-03
5.600000e+08	3.943155e+13	0.000000e+00	5.748031e-01	5.947476e+14	4.242750e+14	2.177107e+14	1.284914e+04	6.194537e+03	3.885776e+03	0	1.136284e-03
5.700000e+08	3.881645e+13	0.000000e+00	5.748031e-01	5.873089e+14	4.296877e+14	2.166360e+14	1.281458e+04	6.207420e+03	3.893858e+03	0	1.130344e-03
5.800000e+08	3.821186e+13	0.000000e+00	5.748031e-01	5.799954e+14	4.349538e+14	2.155689e+14	1.278045e+04	6.219840e+03	3.901649e+03	0	1.124445e-03
5.900000e+08	3.761759e+13	0.000000e+00	5.748031e-01	5.728051e+14	4.400728e+14	2.145094e+14	1.274675e+04	6.231805e+03	3.909155e+03	0	1.118585e-03
6.000000e+08	3.703349e+13	0.000000e+00	5.748031e-01	5.657360e+14	4.450435e+14	2.134574e+14	1.271346e+04	6.243326e+03	3.916382e+03	0	1.112766e-03
6.100000e+08	3.645939e+13	0.000000e+00	5.748031e-01	5.587862e+14	4.498657e+14	2.124128e+14	1.268058e+04	6.254412e+03	3.923335e+03	0	1.106986e-03
6.200000e+08	3.589513e+13	0.000000e+00	5.748031e-01	5.519536e+14	4.545389e+14	2.113756e+14	1.264810e+04	6.265071e+03	3.930022e+03	0	1.101245e-03
6.300000e+08	3.534054e+13	0.000000e+00	5.748031e-01	5.452364e+14	4.590631e+14	2.103457e+14	1.261602e+04	6.275312e+03	3.936446e+03	0	1.095544e-03
6.400000e+08	3.479545e+13	0.000000e+00	5.748031e-01	5.386325e+14	4.634384e+14	2.093231e+14	1.258432e+04	6.285146e+03	3.942615e+03	0	1.089882e-03
6.500000e+08	3.425972e+13	0.000000e+00	5.748031e-01	5.321402e+14	4.676651e+14	2.083077e+14	1.255301e+04	6.294581e+03	3.948533e+03	0	1.084260e-03
6.600000e+08	3.373318e+13	0.000000e+00	5.748031e-01	5.257574e+14	4.717438e+14	2.072994e+14	1.252208e+04	6.303625e+03	3.954206e+03	0	1.078677e-03
6.700000e+08	3.321567e+13	0.000000e+00	5.748031e-01	5.194824e+14	4.756754e+14	2.062982e+14	1.249151e+04	6.312288e+03	3.959641e+03	0	1.073132e-03
6.800000e+08	3.270704e+13	0.000000e+00	5.748031e-01	5.133132e+14	4.794606e+14	2.053041e+14	1.246131e+04	6.320579e+03	3.964841e+03	0	1.067626e-03
6.900000e+08	3.220713e+13	0.000000e+00	5.748031e-01	5.072480e+14	4.831004e+14	2.043169e+14	1.243146e+04	6.328505e+03	3.969814e+03	0	1.062159e-03
7.000000e+08	3.171578e+13	0.000000e+00	5.748031e-01	5.012849e+14	4.865962e+14	2.033366e+14	1.240197e+04	6.336077e+03	3.974563e+03	0	1.056730e-03
7.100000e+08	3.123285e+13	0.000000e+00	5.748031e-01	4.954223e+14	4.899493e+14	2.023632e+14	1.237282e+04	6.343301e+03	3.979095e+03	0	1.051339e-03
7.200000e+08	3.075819e+13	0.000000e+00	5.748031e-01	4.896582e+14	4.931612e+14	2.013966e+14	1.234401e+04	6.350187e+03	3.983415e+03	0	1.045986e-03
7.300000e+08	3.029165e+13	0.000000e+00	5.748031e-01	4.839909e+14	4.962335e+14	2.004368e+14	1.231554e+04	6.356743e+03	3.987527e+03	0	1.040670e-03
7.400000e+08	2.983308e+13	0.000000e+00	5.748031e-01	4.784188e+14	4.991679e+14	1.994837e+14	1.228739e+04	6.362976e+03	3.991437e+03	0	1.035392e-03
7.500000e+08	2.938234e+13	0.000000e+00	5.748031e-01	4.729399e+14	5.019663e+14	1.985372e+14	1.225956e+04	6.368896e+03	3.995150e+03	0	1.030151e-03
7.600000e+08	2.893927e+13	0.000000e+00	5.748031e-01	4.675528e+14	5.046306e+14	1.975973e+14	1.223206e+04	6.374508e+03	3.998671e+03	0	1.024947e-03
7.700000e+08	2.850376e+13	0.000000e+00	5.748031e-01	4.622556e+14	5.071628e+14	1.966639e+14	1.220486e+04	6.379823e+03	4.002005e+03	0	1.019779e-03
7.800000e+08	2.807564e+13	0.000000e+00	5.748031e-01	4.570467e+14	5.095650e+14	1.957371e+14	1.217797e+04	6.384846e+03	4.005156e+03	0	1.014648e-03
7.900000e+08	2.765479e+13	0.000000e+00	5.748031e-01	4.519246e+14	5.118394e+14	1.948167e+14	1.215139e+04	6.389586e+03	4.008129e+03	0	1.009553e-03
8.000000e+08	2.724108e+13	0.000000e+00	5.748031e-01	4.468875e+14	5.139880e+14	1.939026e+14	1.212510e+04	6.394049e+03	4.010929e+03	0	1.004493e-03
8.100000e+08	2.683436e+13	0.000000e+00	5.748031e-01	4.419339e+14	5.160134e+14	1.929949e+14	1.209910e+04	6.398244e+03	4.013560e+03	0	9.994687e-04
8.200000e+08	2.643450e+13	0.000000e+00	5.748031e-01	4.370623e+14	5.179176e+14	1.920935e+14	1.207339e+04	6.402177e+03	4.016027e+03	0	9.944795e-04
8.300000e+08	2.604139e+13	0.000000e+00	5.748031e-01	4.322711e+14	5.197031e+14	1.911983e+14	1.204796e+04	6.405855e+03	4.018334e+03	0	9.895251e-04
8.400000e+08	2.565488e+13	0.000000e+00	5.748031e-01	4.275588e+14	5.213725e+14	1.903093e+14	1.202281e+04	6.409285e+03	4.020486e+03	0	9.846052e-04
8.500000e+08	2.527486e+13	0.000000e+00	5.748031e-01	4.229239e+14	5.229279e+14	1.894264e+14	1.199793e+04	6.412474e+03	4.022486e+03	0	9.797194e-04
8.600000e+08	2.490119e+13	0.000000e+00	5.748031e-01	4.183649e+14	5.243718e+14	1.885496e+14	1.197332e+04	6.415428e+03	4.024339e+03	0	9.748673e-04
8.700000e+08	2.453377e+13	0.000000e+00	5.748031e-01	4.138804e+14	5.257068e+14	1.876788e+14	1.194898e+04	6.418153e+03	4.026049e+03	0	9.700488e-04
8.800000e+08	2.417247e+13	0.000000e+00	5.748031e-01	4.094690e+14	5.269351e+14	1.868140e+14	1.192490e+04	6.420657e+03	4.027619e+03	0	9.652633e-04
8.900000e+08	2.381717e+13	0.000000e+00	5.748031e-01	4.051292e+14	5.280595e+14	1.859552e+14	1.190107e+04	6.422944e+03	4.029054e+03	0	9.605106e-04
9.000000e+08	2.346775e+13	0.000000e+00	5.748031e-01	4.008598e+14	5.290822e+14	1.851023e+14	1.187749e+04	6.425022e+03	4.030358e+03	0	9.557903e-04
9.100000e+08	2.312411e+13	0.000000e+00	5.748031e-01	3.966594e+14	5.300059e+14	1.842552e+14	1.185416e+04	6.426896e+03	4.031533e+03	0	9.511021e-04
9.200000e+08	2.278613e+13	0.000000e+00	5.748031e-01	3.925266e+14	5.308329e+14	1.834139e+14	1.183107e+04	6.428572e+03	4.032585e+03	0	9.464456e-04
9.300000e+08	2.245371e+13	0.000000e+00	5.748031e-01	3.884602e+14	5.315657e+14	1.825784e+14	1.180823e+04	6.430055e+03	4.033515e+03	0	9.418205e-04
9.400000e+08	2.212673e+13	0.000000e+00	5.748031e-01	3.844589e+14	5.322068e+14	1.817486e+14	1.178562e+04	6.431352e+03	4.034328e+03	0	9.372264e-04
9.500000e+08	2.180509e+13	0.000000e+00	5.748031e-01	3.805214e+14	5.327586e+14	1.809244e+14	1.176324e+04	6.432467e+03	4.035028e+03	0	9.326630e-04
9.600000e+08	2.148869e+13	0.000000e+00	5.748031e-01	3.766464e+14	5.332234e+14	1.801059e+14	1.174109e+04	6.433405e+03	4.035617e+03	0	9.281299e-04
9.700000e+08	2.117742e+13	0.000000e+00	5.748031e-01	3.728329e+14	5.336037e+14	1.792929e+14	1.171917e+04	6.434173e+03	4.036098e+03	0	9.236267e-04
9.800000e+08	2.087119e+13	0.000000e+00	5.748031e-01	3.690796e+14	5.339018e+14	1.784855e+14	1.169746e+04	6.434774e+03	4.036475e+03	0	9.191531e-04
9.900000e+08	2.056989e+13	0.000000e+00	5.748031e-01	3.653854e+14	5.341201e+14	1.776835e+14	1.167598e+04	6.435214e+03	4.036751e+03	0	9.147087e-04
1.000000e+09	2.027344e+13	0.000000e+00	5.748031e-01	3.617490e+14	5.342609e+14	1.768870e+14	1.165470e+04	6.435498e+03	4.036929e+03	0	9.102931e-04
1.010000e+09	1.998174e+13	0.000000e+00	5.748031e-01	3.581695e+14	5.343264e+14	1.760959e+14	1.163364e+04	6.435630e+03	4.037012e+03	0	9.059061e-04
1.020000e+09	1.969469e+13	0.000000e+00	5.748031e-01	3.546457e+14	5.343189e+14	1.753102e+14	1.161279e+04	6.435615e+03	4.037003e+03	0	9.015472e-04
1.030000e+09	1.941220e+13	0.000000e+00	5.748031e-01	3.511765e+14	5.342406e+14	1.745298e+14	1.159214e+04	6.435457e+03	4.036904e+03	0	8.972161e-04
1.040000e+09	1.913420e+13	0.000000e+00	5.748031e-01	3.477609e+14	5.340937e+14	1.737546e+14	1.157169e+04	6.435161e+03	4.036718e+03	0	8.929124e-04
1.050000e+09	1.886058e+13	0.000000e+00	5.748031e-01	3.443978e+14	5.338803e+14	1.729847e+14	1.155144e+04	6.434731e+03	4.036448e+03	0	8.886358e-04
1.060000e+09	1.859127e+13	0.000000e+00	5.748031e-01	3.410863e+14	5.336025e+14	1.722200e+14	1.153139e+04	6.434170e+03	4.036096e+03	0	8.843859e-04
1.070000e+09	1.832618e+13	0.000000e+00	5.748031e-01	3.378254e+14	5.332624e+14	1.714604e+14	1.151153e+04	6.433484e+03	4.035666e+03	0	8.801623e-04
1.080000e+09	1.806523e+13	0.000000e+00	5.748031e-01	3.346140e+14	5.328620e+14	1.707060e+14	1.149186e+04	6.432675e+03	4.035159e+03	0	8.759647e-04
1.090000e+09	1.780834e+13	0.000000e+00	5.748031e-01	3.314513e+14	5.324032e+14	1.699566e+14	1.147237e+04	6.431749e+03	4.034577e+03	0	8.717928e-04
1.100000e+09	1.755543e+13	0.000000e+00	5.748031e-01	3.283362e+14	5.318882e+14	1.692123e+14	1.145307e+04	6.430708e+03	4.033924e+03	0	8.676461e-04
1.110000e+09	1.730643e+13	0.000000e+00	5.748031e-01	3.252680e+14	5.313187e+14	1.684729e+14	1.143395e+04	6.429555e+03	4.033201e+03	0	8.635244e-04
1.120000e+09	1.706125e+13	0.000000e+00	5.748031e-01	3.222457e+14	5.306965e+14	1.677385e+14	1.141500e+04	6.428296e+03	4.032411e+03	0	8.594272e-04
1.130000e+09	1.681983e+13	0.000000e+00	5.748031e-01	3.192684e+14	5.300237e+14	1.670090e+14	1.139624e+04	6.426932e+03	4.031556e+03	0	8.553543e-04
1.140000e+09	1.658210e+13	0.000000e+00	5.748031e-01	3.163353e+14	5.293019e+14	1.662844e+14	1.137764e+04	6.425468e+03	4.030638e+03	0	8.513052e-04
1.150000e+09	1.634798e+13	0.000000e+00	5.748031e-01	3.134455e+14	5.285328e+14	1.655646e+14	1.135922e+04	6.423906e+03	4.029658e+03	0	8.472797e-04
1.160000e+09	1.611740e+13	0.000000e+00	5.748031e-01	3.105982e+14	5.277183e+14	1.648496e+14	1.134096e+04	6.422251e+03	4.028619e+03	0	8.432774e-04
1.170000e+09	1.589030e+13	0.000000e+00	5.748031e-01	3.077926e+14	5.268600e+14	1.641394e+14	1.132287e+04	6.420504e+03	4.027523e+03	0	8.392979e-04
1.180000e+09	1.566661e+13	0.000000e+00	5.748031e-01	3.050280e+14	5.259594e+14	1.634339e+14	1.130494e+04	6.418669e+03	4.026372e+03	0	8.353410e-04
1.190000e+09	1.544626e+13	0.000000e+00	5.748031e-01	3.023035e+14	5.250183e+14	1.627331e+14	1.128717e+04	6.416748e+03	4.025168e+03	0	8.314062e-04
1.200000e+09	1.522920e+13	0.000000e+00	5.748031e-01	2.996184e+14	5.240382e+14	1.620370e+14	1.126956e+04	6.414745e+03	4.023911e+03	0	8.274933e-04
1.210000e+09	1.501535e+13	0.000000e+00	5.748031e-01	2.969719e+14	5.230204e+14	1.613455e+14	1.125210e+04	6.412663e+03	4.022605e+03	0	8.236019e-04
1.220000e+09	1.480467e+13	0.000000e+00	5.748031e-01	2.943634e+14	5.219666e+14	1.606585e+14	1.123480e+04	6.410504e+03	4.021251e+03	0	8.197316e-04
1.230000e+09	1.459708e+13	0.000000e+00	5.748031e-01	2.917921e+14	5.208781e+14	1.599761e+14	1.121766e+04	6.408270e+03	4.019849e+03	0	8.158822e-04
1.240000e+09	1.439254e+13	0.000000e+00	5.748031e-01	2.892574e+14	5.197563e+14	1.592982e+14	1.120066e+04	6.405964e+03	4.018403e+03	0	8.120534e-04
1.250000e+09	1.419097e+13	0.000000e+00	5.748031e-01	2.867585e+14	5.186028e+14	1.586248e+14	1.118380e+04	6.403589e+03	4.016913e+03	0	8.082447e-04
1.260000e+09	1.399234e+13	0.000000e+00	5.748031e-01	2.842948e+14	5.174186e+14	1.579558e+14	1.116710e+04	6.401147e+03	4.015381e+03	0	8.044559e-04
1.270000e+09	1.379658e+13	0.000000e+00	5.748031e-01	2.818657e+14	5.162052e+14	1.572913e+14	1.115053e+04	6.398641e+03	4.013809e+03	0	8.006867e-04
1.280000e+09	1.360364e+13	0.000000e+00	5.748031e-01	2.794705e+14	5.149639e+14	1.566311e+14	1.113411e+04	6.396072e+03	4.012198e+03	0	7.969367e-04
1.290000e+09	1.341346e+13	0.000000e+00	5.748031e-01	2.771085e+14	5.136956e+14	1.559752e+14	1.111783e+04	6.393443e+03	4.010548e+03	0	7.932056e-04
1.300000e+09	1.322601e+13	0.000000e+00	5.748031e-01	2.747792e+14	5.124019e+14	1.553236e+14	1.110168e+04	6.390755e+03	4.008863e+03	0	7.894932e-04
1.310000e+09	1.304122e+13	0.000000e+00	5.748031e-01	2.724821e+14	5.110835e+14	1.546764e+14	1.108567e+04	6.388012e+03	4.007142e+03	0	7.857990e-04
1.320000e+09	1.285904e+13	0.000000e+00	5.748031e-01	2.702164e+14	5.097419e+14	1.540333e+14	1.106979e+04	6.385215e+03	4.005387e+03	0	7.821229e-04
1.330000e+09	1.267944e+13	0.000000e+00	5.748031e-01	2.679816e+14	5.083780e+14	1.533945e+14	1.105404e+04	6.382366e+03	4.003600e+03	0	7.784644e-04
1.340000e+09	1.250235e+13	0.000000e+00	5.748031e-01	2.657772e+14	5.069929e+14	1.527598e+14	1.103843e+04	6.379467e+03	4.001781e+03	0	7.748233e-04
1.350000e+09	1.232774e+13	0.000000e+00	5.748031e-01	2.636026e+14	5.055876e+14	1.521293e+14	1.102294e+04	6.376519e+03	3.999932e+03	0	7.711994e-04
1.360000e+09	1.215557e+13	0.000000e+00	5.748031e-01	2.614573e+14	5.041631e+14	1.515029e+14	1.100758e+04	6.373525e+03	3.998054e+03	0	7.675922e-04
