#t		Qconv[W]	Ri[Rp]		R*[Rp]		Qc[W]		Qm[W]		Qr[W]		Tcmb[K]		Tl[K]		Tup[K]		RiFlag		Bs[T]
0.000000e+00	1.371570e+14	0.000000e+00	5.748032e-01	1.697191e+15	4.294229e+13	3.446035e+14	1.773562e+04	4.748738e+03	2.887729e+03	0	1.711184e-03
1.000000e+07	1.351476e+14	0.000000e+00	5.748032e-01	1.675176e+15	4.705227e+13	3.426941e+14	1.765581e+04	4.806187e+03	2.922663e+03	0	1.702786e-03
2.000000e+07	1.331654e+14	0.000000e+00	5.748032e-01	1.653458e+15	5.139940e+13	3.407991e+14	1.757703e+04	4.862825e+03	2.957105e+03	0	1.694420e-03
3.000000e+07	1.312099e+14	0.000000e+00	5.748032e-01	1.632032e+15	5.598545e+13	3.389181e+14	1.749926e+04	4.918655e+03	2.991056e+03	0	1.686085e-03
4.000000e+07	1.292807e+14	0.000000e+00	5.748032e-01	1.610894e+15	6.081145e+13	3.370513e+14	1.742249e+04	4.973679e+03	3.024516e+03	0	1.677781e-03
5.000000e+07	1.273775e+14	0.000000e+00	5.748032e-01	1.590038e+15	6.587778e+13	3.351983e+14	1.734670e+04	5.027899e+03	3.057488e+03	0	1.669507e-03
6.000000e+07	1.254996e+14	0.000000e+00	5.748032e-01	1.569461e+15	7.118410e+13	3.333592e+14	1.727189e+04	5.081316e+03	3.089971e+03	0	1.661262e-03
7.000000e+07	1.236468e+14	0.000000e+00	5.748032e-01	1.549158e+15	7.672943e+13	3.315337e+14	1.719804e+04	5.133932e+03	3.121967e+03	0	1.653046e-03
8.000000e+07	1.218187e+14	0.000000e+00	5.748032e-01	1.529124e+15	8.251202e+13	3.297219e+14	1.712514e+04	5.185748e+03	3.153477e+03	0	1.644859e-03
9.000000e+07	1.200149e+14	0.000000e+00	5.748032e-01	1.509356e+15	8.852951e+13	3.279235e+14	1.705317e+04	5.236766e+03	3.184501e+03	0	1.636700e-03
1.000000e+08	1.182350e+14	0.000000e+00	5.748032e-01	1.489850e+15	9.477884e+13	3.261384e+14	1.698213e+04	5.286987e+03	3.215040e+03	0	1.628568e-03
1.100000e+08	1.164787e+14	0.000000e+00	5.748032e-01	1.470602e+15	1.012563e+14	3.243667e+14	1.691200e+04	5.336411e+03	3.245095e+03	0	1.620464e-03
1.200000e+08	1.147456e+14	0.000000e+00	5.748032e-01	1.451608e+15	1.079575e+14	3.226080e+14	1.684277e+04	5.385042e+03	3.274668e+03	0	1.612387e-03
1.300000e+08	1.130355e+14	0.000000e+00	5.748032e-01	1.432866e+15	1.148774e+14	3.208624e+14	1.677443e+04	5.432879e+03	3.303758e+03	0	1.604337e-03
1.400000e+08	1.113480e+14	0.000000e+00	5.748032e-01	1.414371e+15	1.220106e+14	3.191296e+14	1.670696e+04	5.479924e+03	3.332366e+03	0	1.596313e-03
1.500000e+08	1.096829e+14	0.000000e+00	5.748032e-01	1.396120e+15	1.293508e+14	3.174097e+14	1.664036e+04	5.526179e+03	3.360494e+03	0	1.588316e-03
1.600000e+08	1.080398e+14	0.000000e+00	5.748032e-01	1.378111e+15	1.368913e+14	3.157025e+14	1.657462e+04	5.571645e+03	3.388142e+03	0	1.580345e-03
1.700000e+08	1.064185e+14	0.000000e+00	5.748032e-01	1.360340e+15	1.446249e+14	3.140079e+14	1.650971e+04	5.616324e+03	3.415312e+03	0	1.572400e-03
1.800000e+08	1.048188e+14	0.000000e+00	5.748032e-01	1.342804e+15	1.525438e+14	3.123258e+14	1.644564e+04	5.660218e+03	3.442003e+03	0	1.564481e-03
1.900000e+08	1.032403e+14	0.000000e+00	5.748032e-01	1.325502e+15	1.606398e+14	3.106561e+14	1.638239e+04	5.703328e+03	3.468219e+03	0	1.556588e-03
2.000000e+08	1.016829e+14	0.000000e+00	5.748032e-01	1.308429e+15	1.689043e+14	3.089986e+14	1.631994e+04	5.745656e+03	3.493959e+03	0	1.548721e-03
2.100000e+08	1.001463e+14	0.000000e+00	5.748032e-01	1.291585e+15	1.773283e+14	3.073534e+14	1.625830e+04	5.787206e+03	3.519226e+03	0	1.540880e-03
2.200000e+08	9.863025e+13	0.000000e+00	5.748032e-01	1.274965e+15	1.859023e+14	3.057202e+14	1.619744e+04	5.827979e+03	3.544020e+03	0	1.533065e-03
2.300000e+08	9.713461e+13	0.000000e+00	5.748032e-01	1.258568e+15	1.946167e+14	3.040990e+14	1.613737e+04	5.867978e+03	3.568343e+03	0	1.525277e-03
2.400000e+08	9.565914e+13	0.000000e+00	5.748032e-01	1.242392e+15	2.034614e+14	3.024897e+14	1.607806e+04	5.907205e+03	3.592198e+03	0	1.517514e-03
2.500000e+08	9.420363e+13	0.000000e+00	5.748032e-01	1.226433e+15	2.124262e+14	3.008922e+14	1.601951e+04	5.945665e+03	3.615585e+03	0	1.509778e-03
2.600000e+08	9.276790e+13	0.000000e+00	5.748032e-01	1.210691e+15	2.215005e+14	2.993064e+14	1.596170e+04	5.983360e+03	3.638508e+03	0	1.502069e-03
2.700000e+08	9.135174e+13	0.000000e+00	5.748032e-01	1.195163e+15	2.306738e+14	2.977322e+14	1.590464e+04	6.020293e+03	3.660967e+03	0	1.494386e-03
2.800000e+08	8.995498e+13	0.000000e+00	5.748032e-01	1.179846e+15	2.399352e+14	2.961695e+14	1.584830e+04	6.056469e+03	3.682966e+03	0	1.486731e-03
2.900000e+08	8.857743e+13	0.000000e+00	5.748032e-01	1.164739e+15	2.492739e+14	2.946181e+14	1.579268e+04	6.091892e+03	3.704507e+03	0	1.479103e-03
3.000000e+08	8.721891e+13	0.000000e+00	5.748032e-01	1.149840e+15	2.586788e+14	2.930781e+14	1.573777e+04	6.126566e+03	3.725592e+03	0	1.471502e-03
3.100000e+08	8.587925e+13	0.000000e+00	5.748032e-01	1.135147e+15	2.681390e+14	2.915493e+14	1.568355e+04	6.160495e+03	3.746224e+03	0	1.463929e-03
3.200000e+08	8.455828e+13	0.000000e+00	5.748032e-01	1.120658e+15	2.776435e+14	2.900317e+14	1.563003e+04	6.193684e+03	3.766407e+03	0	1.456384e-03
3.300000e+08	8.325583e+13	0.000000e+00	5.748032e-01	1.106370e+15	2.871813e+14	2.885250e+14	1.557718e+04	6.226139e+03	3.786142e+03	0	1.448868e-03
3.400000e+08	8.197172e+13	0.000000e+00	5.748032e-01	1.092283e+15	2.967415e+14	2.870293e+14	1.552501e+04	6.257864e+03	3.805435e+03	0	1.441381e-03
3.500000e+08	8.070580e+13	0.000000e+00	5.748032e-01	1.078394e+15	3.063136e+14	2.855445e+14	1.547349e+04	6.288865e+03	3.824287e+03	0	1.433922e-03
3.600000e+08	7.945789e+13	0.000000e+00	5.748032e-01	1.064701e+15	3.158866e+14	2.840704e+14	1.542263e+04	6.319149e+03	3.842703e+03	0	1.426493e-03
3.700000e+08	7.822784e+13	0.000000e+00	5.748032e-01	1.051203e+15	3.254500e+14	2.826070e+14	1.537241e+04	6.348721e+03	3.860685e+03	0	1.419094e-03
3.800000e+08	7.701547e+13	0.000000e+00	5.748032e-01	1.037898e+15	3.349939e+14	2.811542e+14	1.532282e+04	6.377587e+03	3.878239e+03	0	1.411725e-03
3.900000e+08	7.582064e+13	0.000000e+00	5.748032e-01	1.024783e+15	3.445079e+14	2.797119e+14	1.527386e+04	6.405755e+03	3.895368e+03	0	1.404386e-03
4.000000e+08	7.464316e+13	0.000000e+00	5.748032e-01	1.011858e+15	3.539822e+14	2.782800e+14	1.522551e+04	6.433230e+03	3.912076e+03	0	1.397078e-03
4.100000e+08	7.348288e+13	0.000000e+00	5.748032e-01	9.991195e+14	3.634073e+14	2.768584e+14	1.517777e+04	6.460020e+03	3.928367e+03	0	1.389801e-03
4.200000e+08	7.233964e+13	0.000000e+00	5.748032e-01	9.865667e+14	3.727739e+14	2.754471e+14	1.513063e+04	6.486132e+03	3.944246e+03	0	1.382556e-03
4.300000e+08	7.121327e+13	0.000000e+00	5.748032e-01	9.741973e+14	3.820729e+14	2.740460e+14	1.508407e+04	6.511574e+03	3.959717e+03	0	1.375343e-03
4.400000e+08	7.010360e+13	0.000000e+00	5.748032e-01	9.620097e+14	3.912958e+14	2.726549e+14	1.503810e+04	6.536353e+03	3.974785e+03	0	1.368162e-03
4.500000e+08	6.901047e+13	0.000000e+00	5.748032e-01	9.500019e+14	4.004341e+14	2.712738e+14	1.499270e+04	6.560477e+03	3.989455e+03	0	1.361013e-03
4.600000e+08	6.793370e+13	0.000000e+00	5.748032e-01	9.381721e+14	4.094797e+14	2.699026e+14	1.494786e+04	6.583954e+03	4.003732e+03	0	1.353897e-03
4.700000e+08	6.687314e+13	0.000000e+00	5.748032e-01	9.265185e+14	4.184252e+14	2.685413e+14	1.490358e+04	6.606792e+03	4.017620e+03	0	1.346815e-03
4.800000e+08	6.582861e+13	0.000000e+00	5.748032e-01	9.150390e+14	4.272630e+14	2.671897e+14	1.485985e+04	6.629000e+03	4.031124e+03	0	1.339766e-03
4.900000e+08	6.479994e+13	0.000000e+00	5.748032e-01	9.037318e+14	4.359864e+14	2.658478e+14	1.481665e+04	6.650586e+03	4.044251e+03	0	1.332750e-03
5.000000e+08	6.378696e+13	0.000000e+00	5.748032e-01	8.925951e+14	4.445886e+14	2.645155e+14	1.477399e+04	6.671558e+03	4.057004e+03	0	1.325769e-03
5.100000e+08	6.278949e+13	0.000000e+00	5.748032e-01	8.816269e+14	4.530636e+14	2.631927e+14	1.473185e+04	6.691926e+03	4.069390e+03	0	1.318822e-03
5.200000e+08	6.180736e+13	0.000000e+00	5.748032e-01	8.708253e+14	4.614056e+14	2.618794e+14	1.469023e+04	6.711699e+03	4.081414e+03	0	1.311910e-03
5.300000e+08	6.084039e+13	0.000000e+00	5.748032e-01	8.601883e+14	4.696090e+14	2.605754e+14	1.464911e+04	6.730884e+03	4.093081e+03	0	1.305032e-03
5.400000e+08	5.988842e+13	0.000000e+00	5.748032e-01	8.497140e+14	4.776689e+14	2.592807e+14	1.460849e+04	6.749492e+03	4.104396e+03	0	1.298190e-03
5.500000e+08	5.895125e+13	0.000000e+00	5.748032e-01	8.394004e+14	4.855806e+14	2.579952e+14	1.456837e+04	6.767532e+03	4.115366e+03	0	1.291383e-03
5.600000e+08	5.802871e+13	0.000000e+00	5.748032e-01	8.292456e+14	4.933398e+14	2.567189e+14	1.452873e+04	6.785012e+03	4.125996e+03	0	1.284611e-03
5.700000e+08	5.712062e+13	0.000000e+00	5.748032e-01	8.192476e+14	5.009425e+14	2.554516e+14	1.448957e+04	6.801942e+03	4.136291e+03	0	1.277875e-03
5.800000e+08	5.622680e+13	0.000000e+00	5.748032e-01	8.094043e+14	5.083852e+14	2.541933e+14	1.445087e+04	6.818332e+03	4.146258e+03	0	1.271174e-03
5.900000e+08	5.534706e+13	0.000000e+00	5.748032e-01	7.997139e+14	5.156648e+14	2.529440e+14	1.441264e+04	6.834190e+03	4.155901e+03	0	1.264510e-03
6.000000e+08	5.448123e+13	0.000000e+00	5.748032e-01	7.901743e+14	5.227782e+14	2.517034e+14	1.437487e+04	6.849526e+03	4.165227e+03	0	1.257881e-03
6.100000e+08	5.362913e+13	0.000000e+00	5.748032e-01	7.807835e+14	5.297231e+14	2.504717e+14	1.433755e+04	6.864350e+03	4.174242e+03	0	1.251289e-03
6.200000e+08	5.279056e+13	0.000000e+00	5.748032e-01	7.715395e+14	5.364973e+14	2.492486e+14	1.430066e+04	6.878671e+03	4.182950e+03	0	1.244733e-03
6.300000e+08	5.196534e+13	0.000000e+00	5.748032e-01	7.624403e+14	5.430988e+14	2.480342e+14	1.426421e+04	6.892498e+03	4.191358e+03	0	1.238213e-03
6.400000e+08	5.115330e+13	0.000000e+00	5.748032e-01	7.534839e+14	5.495262e+14	2.468284e+14	1.422819e+04	6.905841e+03	4.199472e+03	0	1.231729e-03
6.500000e+08	5.035424e+13	0.000000e+00	5.748032e-01	7.446683e+14	5.557783e+14	2.456310e+14	1.419259e+04	6.918709e+03	4.207297e+03	0	1.225282e-03
6.600000e+08	4.956799e+13	0.000000e+00	5.748032e-01	7.359914e+14	5.618541e+14	2.444421e+14	1.415741e+04	6.931111e+03	4.214839e+03	0	1.218871e-03
6.700000e+08	4.879435e+13	0.000000e+00	5.748032e-01	7.274513e+14	5.677528e+14	2.432615e+14	1.412263e+04	6.943057e+03	4.222104e+03	0	1.212496e-03
6.800000e+08	4.803315e+13	0.000000e+00	5.748032e-01	7.190460e+14	5.734743e+14	2.420893e+14	1.408826e+04	6.954557e+03	4.229097e+03	0	1.206158e-03
6.900000e+08	4.728420e+13	0.000000e+00	5.748032e-01	7.107735e+14	5.790182e+14	2.409252e+14	1.405428e+04	6.965618e+03	4.235823e+03	0	1.199856e-03
7.000000e+08	4.654731e+13	0.000000e+00	5.748032e-01	7.026318e+14	5.843848e+14	2.397693e+14	1.402069e+04	6.976251e+03	4.242289e+03	0	1.193591e-03
7.100000e+08	4.582231e+13	0.000000e+00	5.748032e-01	6.946189e+14	5.895743e+14	2.386215e+14	1.398749e+04	6.986465e+03	4.248500e+03	0	1.187362e-03
7.200000e+08	4.510902e+13	0.000000e+00	5.748032e-01	6.867328e+14	5.945875e+14	2.374818e+14	1.395466e+04	6.996268e+03	4.254462e+03	0	1.181168e-03
7.300000e+08	4.440724e+13	0.000000e+00	5.748032e-01	6.789716e+14	5.994249e+14	2.363499e+14	1.392220e+04	7.005670e+03	4.260179e+03	0	1.175011e-03
7.400000e+08	4.371681e+13	0.000000e+00	5.748032e-01	6.713333e+14	6.040878e+14	2.352260e+14	1.389011e+04	7.014679e+03	4.265658e+03	0	1.168890e-03
7.500000e+08	4.303755e+13	0.000000e+00	5.748032e-01	6.638160e+14	6.085770e+14	2.341100e+14	1.385837e+04	7.023305e+03	4.270903e+03	0	1.162804e-03
7.600000e+08	4.236927e+13	0.000000e+00	5.748032e-01	6.564178e+14	6.128942e+14	2.330017e+14	1.382699e+04	7.031555e+03	4.275920e+03	0	1.156754e-03
7.700000e+08	4.171179e+13	0.000000e+00	5.748032e-01	6.491367e+14	6.170407e+14	2.319011e+14	1.379596e+04	7.039439e+03	4.280714e+03	0	1.150739e-03
7.800000e+08	4.106496e+13	0.000000e+00	5.748032e-01	6.419708e+14	6.210184e+14	2.308081e+14	1.376528e+04	7.046964e+03	4.285290e+03	0	1.144760e-03
7.900000e+08	4.042858e+13	0.000000e+00	5.748032e-01	6.349183e+14	6.248288e+14	2.297228e+14	1.373493e+04	7.054140e+03	4.289654e+03	0	1.138816e-03
8.000000e+08	3.980248e+13	0.000000e+00	5.748032e-01	6.279773e+14	6.284740e+14	2.286450e+14	1.370491e+04	7.060975e+03	4.293810e+03	0	1.132906e-03
8.100000e+08	3.918651e+13	0.000000e+00	5.748032e-01	6.211459e+14	6.319560e+14	2.275746e+14	1.367522e+04	7.067476e+03	4.297764e+03	0	1.127032e-03
8.200000e+08	3.858047e+13	0.000000e+00	5.748032e-01	6.144224e+14	6.352770e+14	2.265117e+14	1.364585e+04	7.073652e+03	4.301519e+03	0	1.121192e-03
8.300000e+08	3.798422e+13	0.000000e+00	5.748032e-01	6.078048e+14	6.384394e+14	2.254561e+14	1.361680e+04	7.079511e+03	4.305082e+03	0	1.115386e-03
8.400000e+08	3.739758e+13	0.000000e+00	5.748032e-01	6.012914e+14	6.414455e+14	2.244078e+14	1.358805e+04	7.085060e+03	4.308457e+03	0	1.109614e-03
8.500000e+08	3.682039e+13	0.000000e+00	5.748032e-01	5.948805e+14	6.442976e+14	2.233667e+14	1.355962e+04	7.090308e+03	4.311647e+03	0	1.103875e-03
8.600000e+08	3.625248e+13	0.000000e+00	5.748032e-01	5.885702e+14	6.469983e+14	2.223328e+14	1.353149e+04	7.095261e+03	4.314659e+03	0	1.098171e-03
8.700000e+08	3.569369e+13	0.000000e+00	5.748032e-01	5.823589e+14	6.495505e+14	2.213060e+14	1.350365e+04	7.099927e+03	4.317497e+03	0	1.092499e-03
8.800000e+08	3.514387e+13	0.000000e+00	5.748032e-01	5.762447e+14	6.519563e+14	2.202863e+14	1.347611e+04	7.104313e+03	4.320164e+03	0	1.086861e-03
8.900000e+08	3.460286e+13	0.000000e+00	5.748032e-01	5.702262e+14	6.542187e+14	2.192736e+14	1.344886e+04	7.108427e+03	4.322666e+03	0	1.081255e-03
9.000000e+08	3.407051e+13	0.000000e+00	5.748032e-01	5.643014e+14	6.563406e+14	2.182679e+14	1.342189e+04	7.112276e+03	4.325007e+03	0	1.075681e-03
9.100000e+08	3.354665e+13	0.000000e+00	5.748032e-01	5.584689e+14	6.583245e+14	2.172690e+14	1.339520e+04	7.115867e+03	4.327190e+03	0	1.070139e-03
9.200000e+08	3.303115e+13	0.000000e+00	5.748032e-01	5.527270e+14	6.601731e+14	2.162770e+14	1.336878e+04	7.119205e+03	4.329220e+03	0	1.064630e-03
9.300000e+08	3.252385e+13	0.000000e+00	5.748032e-01	5.470741e+14	6.618897e+14	2.152917e+14	1.334264e+04	7.122299e+03	4.331101e+03	0	1.059151e-03
9.400000e+08	3.202460e+13	0.000000e+00	5.748032e-01	5.415086e+14	6.634767e+14	2.143132e+14	1.331676e+04	7.125154e+03	4.332838e+03	0	1.053704e-03
9.500000e+08	3.153326e+13	0.000000e+00	5.748032e-01	5.360289e+14	6.649372e+14	2.133414e+14	1.329114e+04	7.127777e+03	4.334433e+03	0	1.048287e-03
9.600000e+08	3.104970e+13	0.000000e+00	5.748032e-01	5.306336e+14	6.662743e+14	2.123762e+14	1.326578e+04	7.130174e+03	4.335890e+03	0	1.042901e-03
9.700000e+08	3.057376e+13	0.000000e+00	5.748032e-01	5.253211e+14	6.674902e+14	2.114176e+14	1.324068e+04	7.132351e+03	4.337214e+03	0	1.037545e-03
9.800000e+08	3.010532e+13	0.000000e+00	5.748032e-01	5.200899e+14	6.685884e+14	2.104655e+14	1.321583e+04	7.134315e+03	4.338408e+03	0	1.032219e-03
9.900000e+08	2.964423e+13	0.000000e+00	5.748032e-01	5.149386e+14	6.695713e+14	2.095199e+14	1.319122e+04	7.136071e+03	4.339476e+03	0	1.026922e-03
1.000000e+09	2.919036e+13	0.000000e+00	5.748032e-01	5.098657e+14	6.704421e+14	2.085807e+14	1.316686e+04	7.137624e+03	4.340421e+03	0	1.021654e-03
1.010000e+09	2.874358e+13	0.000000e+00	5.748032e-01	5.048698e+14	6.712034e+14	2.076478e+14	1.314273e+04	7.138982e+03	4.341246e+03	0	1.016415e-03
1.020000e+09	2.830377e+13	0.000000e+00	5.748032e-01	4.999496e+14	6.718581e+14	2.067213e+14	1.311884e+04	7.140148e+03	4.341956e+03	0	1.011204e-03
1.030000e+09	2.787079e+13	0.000000e+00	5.748032e-01	4.951036e+14	6.724092e+14	2.058010e+14	1.309519e+04	7.141129e+03	4.342552e+03	0	1.006021e-03
1.040000e+09	2.744451e+13	0.000000e+00	5.748032e-01	4.903305e+14	6.728590e+14	2.048870e+14	1.307176e+04	7.141929e+03	4.343039e+03	0	1.000866e-03
1.050000e+09	2.702483e+13	0.000000e+00	5.748032e-01	4.856290e+14	6.732107e+14	2.039792e+14	1.304855e+04	7.142555e+03	4.343419e+03	0	9.957377e-04
1.060000e+09	2.661161e+13	0.000000e+00	5.748032e-01	4.809978e+14	6.734668e+14	2.030774e+14	1.302557e+04	7.143010e+03	4.343696e+03	0	9.906365e-04
1.070000e+09	2.620474e+13	0.000000e+00	5.748032e-01	4.764355e+14	6.736301e+14	2.021818e+14	1.300281e+04	7.143300e+03	4.343872e+03	0	9.855619e-04
1.080000e+09	2.580409e+13	0.000000e+00	5.748032e-01	4.719411e+14	6.737029e+14	2.012921e+14	1.298026e+04	7.143429e+03	4.343951e+03	0	9.805133e-04
1.090000e+09	2.540957e+13	0.000000e+00	5.748032e-01	4.675131e+14	6.736882e+14	2.004085e+14	1.295793e+04	7.143403e+03	4.343935e+03	0	9.754905e-04
1.100000e+09	2.502105e+13	0.000000e+00	5.748032e-01	4.631505e+14	6.735885e+14	1.995307e+14	1.293580e+04	7.143226e+03	4.343828e+03	0	9.704931e-04
1.110000e+09	2.463842e+13	0.000000e+00	5.748032e-01	4.588520e+14	6.734063e+14	1.986589e+14	1.291388e+04	7.142902e+03	4.343631e+03	0	9.655207e-04
1.120000e+09	2.426158e+13	0.000000e+00	5.748032e-01	4.546165e+14	6.731441e+14	1.977929e+14	1.289216e+04	7.142436e+03	4.343347e+03	0	9.605729e-04
1.130000e+09	2.389042e+13	0.000000e+00	5.748032e-01	4.504428e+14	6.728042e+14	1.969327e+14	1.287064e+04	7.141832e+03	4.342980e+03	0	9.556493e-04
1.140000e+09	2.352483e+13	0.000000e+00	5.748032e-01	4.463298e+14	6.723893e+14	1.960783e+14	1.284932e+04	7.141093e+03	4.342531e+03	0	9.507496e-04
1.150000e+09	2.316472e+13	0.000000e+00	5.748032e-01	4.422763e+14	6.719016e+14	1.952295e+14	1.282819e+04	7.140225e+03	4.342003e+03	0	9.458733e-04
1.160000e+09	2.280998e+13	0.000000e+00	5.748032e-01	4.382814e+14	6.713434e+14	1.943864e+14	1.280726e+04	7.139231e+03	4.341398e+03	0	9.410201e-04
1.170000e+09	2.246051e+13	0.000000e+00	5.748032e-01	4.343439e+14	6.707171e+14	1.935490e+14	1.278651e+04	7.138115e+03	4.340719e+03	0	9.361896e-04
1.180000e+09	2.211622e+13	0.000000e+00	5.748032e-01	4.304629e+14	6.700249e+14	1.927171e+14	1.276595e+04	7.136880e+03	4.339968e+03	0	9.313815e-04
1.190000e+09	2.177701e+13	0.000000e+00	5.748032e-01	4.266372e+14	6.692689e+14	1.918907e+14	1.274557e+04	7.135531e+03	4.339148e+03	0	9.265952e-04
1.200000e+09	2.144279e+13	0.000000e+00	5.748032e-01	4.228659e+14	6.684515e+14	1.910699e+14	1.272537e+04	7.134070e+03	4.338260e+03	0	9.218305e-04
1.210000e+09	2.111347e+13	0.000000e+00	5.748032e-01	4.191480e+14	6.675745e+14	1.902544e+14	1.270535e+04	7.132502e+03	4.337306e+03	0	9.170870e-04
1.220000e+09	2.078896e+13	0.000000e+00	5.748032e-01	4.154826e+14	6.666401e+14	1.894444e+14	1.268550e+04	7.130829e+03	4.336289e+03	0	9.123642e-04
1.230000e+09	2.046917e+13	0.000000e+00	5.748032e-01	4.118686e+14	6.656504e+14	1.886397e+14	1.266583e+04	7.129056e+03	4.335210e+03	0	9.076618e-04
1.240000e+09	2.015402e+13	0.000000e+00	5.748032e-01	4.083053e+14	6.646072e+14	1.878404e+14	1.264633e+04	7.127184e+03	4.334072e+03	0	9.029794e-04
1.250000e+09	1.984342e+13	0.000000e+00	5.748032e-01	4.047916e+14	6.635124e+14	1.870463e+14	1.262700e+04	7.125218e+03	4.332876e+03	0	8.983166e-04
1.260000e+09	1.953728e+13	0.000000e+00	5.748032e-01	4.013266e+14	6.623681e+14	1.862575e+14	1.260783e+04	7.123160e+03	4.331625e+03	0	8.936731e-04
1.270000e+09	1.923554e+13	0.000000e+00	5.748032e-01	3.979096e+14	6.611760e+14	1.854738e+14	1.258883e+04	7.121013e+03	4.330320e+03	0	8.890484e-04
1.280000e+09	1.893810e+13	0.000000e+00	5.748032e-01	3.945396e+14	6.599378e+14	1.846953e+14	1.256999e+04	7.118781e+03	4.328962e+03	0	8.844422e-04
1.290000e+09	1.864490e+13	0.000000e+00	5.748032e-01	3.912159e+14	6.586555e+14	1.839219e+14	1.255130e+04	7.116465e+03	4.327554e+03	0	8.798540e-04
1.300000e+09	1.835584e+13	0.000000e+00	5.748032e-01	3.879375e+14	6.573307e+14	1.831536e+14	1.253278e+04	7.114069e+03	4.326097e+03	0	8.752835e-04
1.310000e+09	1.807087e+13	0.000000e+00	5.748032e-01	3.847038e+14	6.559649e+14	1.823904e+14	1.251441e+04	7.111595e+03	4.324593e+03	0	8.707303e-04
1.320000e+09	1.778991e+13	0.000000e+00	5.748032e-01	3.815138e+14	6.545598e+14	1.816321e+14	1.249619e+04	7.109047e+03	4.323043e+03	0	8.661941e-04
1.330000e+09	1.751288e+13	0.000000e+00	5.748032e-01	3.783668e+14	6.531171e+14	1.808788e+14	1.247812e+04	7.106425e+03	4.321449e+03	0	8.616743e-04
1.340000e+09	1.723972e+13	0.000000e+00	5.748032e-01	3.752621e+14	6.516381e+14	1.801304e+14	1.246020e+04	7.103734e+03	4.319812e+03	0	8.571707e-04
1.350000e+09	1.697035e+13	0.000000e+00	5.748032e-01	3.721990e+14	6.501247e+14	1.793869e+14	1.244243e+04	7.100975e+03	4.318134e+03	0	8.526829e-04
1.360000e+09	1.670471e+13	0.000000e+00	5.748032e-01	3.691766e+14	6.485778e+14	1.786483e+14	1.242480e+04	7.098150e+03	4.316417e+03	0	8.482104e-04
