#t		Qconv[W]	Ri[Rp]		R*[Rp]		Qc[W]		Qm[W]		Qr[W]		Tcmb[K]		Tl[K]		Tup[K]		RiFlag		Bs[T]
0.000000e+00	2.470927e+15	0.000000e+00	5.781250e-01	2.468504e+16	4.625917e+13	3.624527e+14	3.166004e+04	5.874204e+03	2.863919e+03	0	4.405131e-03
1.000000e+07	2.261381e+15	0.000000e+00	5.781250e-01	2.262165e+16	1.099864e+14	3.604445e+14	3.065264e+04	6.615727e+03	3.225443e+03	0	4.276910e-03
2.000000e+07	2.070789e+15	0.000000e+00	5.781250e-01	2.074471e+16	2.137107e+14	3.584513e+14	2.972653e+04	7.293457e+03	3.555865e+03	0	4.153212e-03
3.000000e+07	1.897563e+15	0.000000e+00	5.781250e-01	1.903862e+16	3.613670e+14	3.564729e+14	2.887482e+04	7.911675e+03	3.857272e+03	0	4.034016e-03
4.000000e+07	1.740222e+15	0.000000e+00	5.781250e-01	1.748879e+16	5.525059e+14	3.545093e+14	2.809109e+04	8.474147e+03	4.131500e+03	0	3.919288e-03
5.000000e+07	1.597399e+15	0.000000e+00	5.781250e-01	1.608179e+16	7.830221e+14	3.525604e+14	2.736940e+04	8.984273e+03	4.380208e+03	0	3.808992e-03
6.000000e+07	1.467840e+15	0.000000e+00	5.781250e-01	1.480526e+16	1.046176e+15	3.506260e+14	2.670430e+04	9.445220e+03	4.604939e+03	0	3.703097e-03
7.000000e+07	1.350394e+15	0.000000e+00	5.781250e-01	1.364790e+16	1.333651e+15	3.487060e+14	2.609073e+04	9.860013e+03	4.807168e+03	0	3.601574e-03
8.000000e+07	1.244001e+15	0.000000e+00	5.781250e-01	1.259926e+16	1.636506e+15	3.468003e+14	2.552406e+04	1.023160e+04	4.988331e+03	0	3.504390e-03
9.000000e+07	1.147681e+15	0.000000e+00	5.781250e-01	1.164970e+16	1.945942e+15	3.449088e+14	2.500001e+04	1.056288e+04	5.149845e+03	0	3.411504e-03
1.000000e+08	1.060523e+15	0.000000e+00	5.781250e-01	1.079027e+16	2.253877e+15	3.430313e+14	2.451467e+04	1.085673e+04	5.293107e+03	0	3.322862e-03
1.100000e+08	9.816858e+14	0.000000e+00	5.781250e-01	1.001269e+16	2.553315e+15	3.411677e+14	2.406446e+04	1.111596e+04	5.419495e+03	0	3.238394e-03
1.200000e+08	9.103841e+14	0.000000e+00	5.781250e-01	9.309227e+15	2.838540e+15	3.393180e+14	2.364612e+04	1.134336e+04	5.530360e+03	0	3.158012e-03
1.300000e+08	8.458932e+14	0.000000e+00	5.781250e-01	8.672765e+15	3.105170e+15	3.374819e+14	2.325667e+04	1.154161e+04	5.627015e+03	0	3.081608e-03
1.400000e+08	7.875438e+14	0.000000e+00	5.781250e-01	8.096718e+15	3.350103e+15	3.356594e+14	2.289340e+04	1.171330e+04	5.710721e+03	0	3.009057e-03
1.500000e+08	7.347211e+14	0.000000e+00	5.781250e-01	7.575042e+15	3.571401e+15	3.338505e+14	2.255389e+04	1.186090e+04	5.782684e+03	0	2.940219e-03
1.600000e+08	6.868628e+14	0.000000e+00	5.781250e-01	7.102210e+15	3.768116e+15	3.320548e+14	2.223592e+04	1.198675e+04	5.844039e+03	0	2.874941e-03
1.700000e+08	6.434573e+14	0.000000e+00	5.781250e-01	6.673191e+15	3.940121e+15	3.302724e+14	2.193751e+04	1.209302e+04	5.895853e+03	0	2.813059e-03
1.800000e+08	6.040410e+14	0.000000e+00	5.781250e-01	6.283428e+15	4.087939e+15	3.285032e+14	2.165687e+04	1.218176e+04	5.939115e+03	0	2.754404e-03
1.900000e+08	5.681956e+14	0.000000e+00	5.781250e-01	5.928809e+15	4.212562e+15	3.267470e+14	2.139239e+04	1.225482e+04	5.974736e+03	0	2.698805e-03
2.000000e+08	5.355452e+14	0.000000e+00	5.781250e-01	5.605641e+15	4.315322e+15	3.250037e+14	2.114264e+04	1.231392e+04	6.003552e+03	0	2.646088e-03
2.100000e+08	5.057531e+14	0.000000e+00	5.781250e-01	5.310614e+15	4.397775e+15	3.232732e+14	2.090633e+04	1.236063e+04	6.026324e+03	0	2.596082e-03
2.200000e+08	4.785185e+14	0.000000e+00	5.781250e-01	5.040769e+15	4.461587e+15	3.215555e+14	2.068229e+04	1.239636e+04	6.043742e+03	0	2.548620e-03
2.300000e+08	4.535734e+14	0.000000e+00	5.781250e-01	4.793473e+15	4.508472e+15	3.198503e+14	2.046950e+04	1.242238e+04	6.056428e+03	0	2.503541e-03
2.400000e+08	4.306792e+14	0.000000e+00	5.781250e-01	4.566381e+15	4.540128e+15	3.181577e+14	2.026702e+04	1.243984e+04	6.064941e+03	0	2.460690e-03
2.500000e+08	4.096240e+14	0.000000e+00	5.781250e-01	4.357410e+15	4.558205e+15	3.164774e+14	2.007401e+04	1.244977e+04	6.069783e+03	0	2.419918e-03
2.600000e+08	3.902198e+14	0.000000e+00	5.781250e-01	4.164709e+15	4.564258e+15	3.148094e+14	1.988974e+04	1.245309e+04	6.071401e+03	0	2.381087e-03
2.700000e+08	3.722997e+14	0.000000e+00	5.781250e-01	3.986638e+15	4.559747e+15	3.131537e+14	1.971352e+04	1.245062e+04	6.070195e+03	0	2.344066e-03
2.800000e+08	3.557155e+14	0.000000e+00	5.781250e-01	3.821741e+15	4.546019e+15	3.115100e+14	1.954474e+04	1.244308e+04	6.066520e+03	0	2.308730e-03
2.900000e+08	3.403360e+14	0.000000e+00	5.781250e-01	3.668727e+15	4.524306e+15	3.098783e+14	1.938287e+04	1.243112e+04	6.060691e+03	0	2.274966e-03
3.000000e+08	3.260446e+14	0.000000e+00	5.781250e-01	3.526447e+15	4.495723e+15	3.082586e+14	1.922741e+04	1.241532e+04	6.052988e+03	0	2.242666e-03
3.100000e+08	3.127377e+14	0.000000e+00	5.781250e-01	3.393885e+15	4.461278e+15	3.066506e+14	1.907791e+04	1.239619e+04	6.043658e+03	0	2.211731e-03
3.200000e+08	3.003234e+14	0.000000e+00	5.781250e-01	3.270133e+15	4.421866e+15	3.050543e+14	1.893397e+04	1.237416e+04	6.032921e+03	0	2.182070e-03
3.300000e+08	2.887196e+14	0.000000e+00	5.781250e-01	3.154386e+15	4.378291e+15	3.034696e+14	1.879523e+04	1.234965e+04	6.020970e+03	0	2.153596e-03
3.400000e+08	2.778534e+14	0.000000e+00	5.781250e-01	3.045927e+15	4.331260e+15	3.018965e+14	1.866134e+04	1.232300e+04	6.007977e+03	0	2.126233e-03
3.500000e+08	2.676597e+14	0.000000e+00	5.781250e-01	2.944113e+15	4.281398e+15	3.003347e+14	1.853201e+04	1.229452e+04	5.994093e+03	0	2.099906e-03
3.600000e+08	2.580804e+14	0.000000e+00	5.781250e-01	2.848373e+15	4.229256e+15	2.987843e+14	1.840696e+04	1.226449e+04	5.979451e+03	0	2.074550e-03
3.700000e+08	2.490635e+14	0.000000e+00	5.781250e-01	2.758194e+15	4.175312e+15	2.972451e+14	1.828593e+04	1.223314e+04	5.964168e+03	0	2.050103e-03
3.800000e+08	2.405623e+14	0.000000e+00	5.781250e-01	2.673116e+15	4.119990e+15	2.957170e+14	1.816870e+04	1.220070e+04	5.948349e+03	0	2.026507e-03
3.900000e+08	2.325349e+14	0.000000e+00	5.781250e-01	2.592728e+15	4.063653e+15	2.942000e+14	1.805505e+04	1.216734e+04	5.932084e+03	0	2.003710e-03
4.000000e+08	2.249437e+14	0.000000e+00	5.781250e-01	2.516658e+15	4.006617e+15	2.926939e+14	1.794478e+04	1.213323e+04	5.915454e+03	0	1.981665e-03
4.100000e+08	2.177549e+14	0.000000e+00	5.781250e-01	2.444572e+15	3.949158e+15	2.911987e+14	1.783771e+04	1.209851e+04	5.898530e+03	0	1.960325e-03
4.200000e+08	2.109377e+14	0.000000e+00	5.781250e-01	2.376169e+15	3.891508e+15	2.897143e+14	1.773369e+04	1.206333e+04	5.881374e+03	0	1.939651e-03
4.300000e+08	2.044646e+14	0.000000e+00	5.781250e-01	2.311176e+15	3.833870e+15	2.882406e+14	1.763254e+04	1.202777e+04	5.864041e+03	0	1.919604e-03
4.400000e+08	1.983105e+14	0.000000e+00	5.781250e-01	2.249346e+15	3.776420e+15	2.867775e+14	1.753414e+04	1.199196e+04	5.846579e+03	0	1.900148e-03
4.500000e+08	1.924527e+14	0.000000e+00	5.781250e-01	2.190454e+15	3.719299e+15	2.853248e+14	1.743834e+04	1.195596e+04	5.829030e+03	0	1.881252e-03
4.600000e+08	1.868705e+14	0.000000e+00	5.781250e-01	2.134297e+15	3.662635e+15	2.838827e+14	1.734503e+04	1.191986e+04	5.811431e+03	0	1.862884e-03
4.700000e+08	1.815452e+14	0.000000e+00	5.781250e-01	2.080690e+15	3.606532e+15	2.824508e+14	1.725409e+04	1.188373e+04	5.793814e+03	0	1.845017e-03
4.800000e+08	1.764595e+14	0.000000e+00	5.781250e-01	2.029463e+15	3.551073e+15	2.810292e+14	1.716542e+04	1.184762e+04	5.776208e+03	0	1.827626e-03
4.900000e+08	1.715979e+14	0.000000e+00	5.781250e-01	1.980461e+15	3.496334e+15	2.796178e+14	1.707891e+04	1.181158e+04	5.758637e+03	0	1.810685e-03
5.000000e+08	1.669460e+14	0.000000e+00	5.781250e-01	1.933544e+15	3.442372e+15	2.782165e+14	1.699446e+04	1.177566e+04	5.741124e+03	0	1.794173e-03
5.100000e+08	1.624907e+14	0.000000e+00	5.781250e-01	1.888580e+15	3.389232e+15	2.768252e+14	1.691201e+04	1.173989e+04	5.723686e+03	0	1.778068e-03
5.200000e+08	1.582198e+14	0.000000e+00	5.781250e-01	1.845451e+15	3.336954e+15	2.754438e+14	1.683145e+04	1.170431e+04	5.706340e+03	0	1.762351e-03
5.300000e+08	1.541223e+14	0.000000e+00	5.781250e-01	1.804047e+15	3.285567e+15	2.740723e+14	1.675272e+04	1.166895e+04	5.689100e+03	0	1.747005e-03
5.400000e+08	1.501880e+14	0.000000e+00	5.781250e-01	1.764267e+15	3.235092e+15	2.727106e+14	1.667573e+04	1.163383e+04	5.671979e+03	0	1.732011e-03
5.500000e+08	1.464074e+14	0.000000e+00	5.781250e-01	1.726018e+15	3.185543e+15	2.713585e+14	1.660044e+04	1.159898e+04	5.654985e+03	0	1.717354e-03
5.600000e+08	1.427718e+14	0.000000e+00	5.781250e-01	1.689213e+15	3.136932e+15	2.700160e+14	1.652676e+04	1.156440e+04	5.638129e+03	0	1.703020e-03
5.700000e+08	1.392732e+14	0.000000e+00	5.781250e-01	1.653773e+15	3.089261e+15	2.686831e+14	1.645464e+04	1.153013e+04	5.621417e+03	0	1.688994e-03
5.800000e+08	1.359041e+14	0.000000e+00	5.781250e-01	1.619624e+15	3.042532e+15	2.673597e+14	1.638402e+04	1.149616e+04	5.604857e+03	0	1.675263e-03
5.900000e+08	1.326576e+14	0.000000e+00	5.781250e-01	1.586697e+15	2.996742e+15	2.660456e+14	1.631484e+04	1.146251e+04	5.588452e+03	0	1.661816e-03
6.000000e+08	1.295271e+14	0.000000e+00	5.781250e-01	1.554928e+15	2.951888e+15	2.647408e+14	1.624706e+04	1.142919e+04	5.572208e+03	0	1.648640e-03
6.100000e+08	1.265068e+14	0.000000e+00	5.781250e-01	1.524259e+15	2.907958e+15	2.634453e+14	1.618063e+04	1.139621e+04	5.556128e+03	0	1.635724e-03
6.200000e+08	1.235910e+14	0.000000e+00	5.781250e-01	1.494632e+15	2.864946e+15	2.621589e+14	1.611550e+04	1.136357e+04	5.540215e+03	0	1.623060e-03
6.300000e+08	1.207745e+14	0.000000e+00	5.781250e-01	1.465998e+15	2.822838e+15	2.608815e+14	1.605162e+04	1.133128e+04	5.524470e+03	0	1.610636e-03
6.400000e+08	1.180525e+14	0.000000e+00	5.781250e-01	1.438308e+15	2.781621e+15	2.596132e+14	1.598896e+04	1.129933e+04	5.508895e+03	0	1.598443e-03
6.500000e+08	1.154203e+14	0.000000e+00	5.781250e-01	1.411515e+15	2.741282e+15	2.583539e+14	1.592748e+04	1.126773e+04	5.493491e+03	0	1.586474e-03
6.600000e+08	1.128738e+14	0.000000e+00	5.781250e-01	1.385580e+15	2.701806e+15	2.571034e+14	1.586713e+04	1.123649e+04	5.478259e+03	0	1.574720e-03
6.700000e+08	1.104090e+14	0.000000e+00	5.781250e-01	1.360461e+15	2.663177e+15	2.558616e+14	1.580788e+04	1.120560e+04	5.463198e+03	0	1.563173e-03
6.800000e+08	1.080220e+14	0.000000e+00	5.781250e-01	1.336121e+15	2.625377e+15	2.546287e+14	1.574969e+04	1.117506e+04	5.448310e+03	0	1.551826e-03
6.900000e+08	1.057095e+14	0.000000e+00	5.781250e-01	1.312526e+15	2.588390e+15	2.534043e+14	1.569254e+04	1.114488e+04	5.433592e+03	0	1.540672e-03
7.000000e+08	1.034680e+14	0.000000e+00	5.781250e-01	1.289642e+15	2.552199e+15	2.521885e+14	1.563640e+04	1.111504e+04	5.419045e+03	0	1.529705e-03
7.100000e+08	1.012944e+14	0.000000e+00	5.781250e-01	1.267439e+15	2.516789e+15	2.509813e+14	1.558122e+04	1.108555e+04	5.404667e+03	0	1.518917e-03
7.200000e+08	9.918593e+13	0.000000e+00	5.781250e-01	1.245888e+15	2.482138e+15	2.497825e+14	1.552699e+04	1.105640e+04	5.390457e+03	0	1.508304e-03
7.300000e+08	9.713967e+13	0.000000e+00	5.781250e-01	1.224961e+15	2.448232e+15	2.485921e+14	1.547367e+04	1.102760e+04	5.376414e+03	0	1.497860e-03
7.400000e+08	9.515305e+13	0.000000e+00	5.781250e-01	1.204631e+15	2.415053e+15	2.474099e+14	1.542124e+04	1.099913e+04	5.362537e+03	0	1.487578e-03
7.500000e+08	9.322361e+13	0.000000e+00	5.781250e-01	1.184876e+15	2.382584e+15	2.462360e+14	1.536968e+04	1.097101e+04	5.348823e+03	0	1.477455e-03
7.600000e+08	9.134901e+13	0.000000e+00	5.781250e-01	1.165671e+15	2.350807e+15	2.450703e+14	1.531896e+04	1.094321e+04	5.335272e+03	0	1.467484e-03
7.700000e+08	8.952705e+13	0.000000e+00	5.781250e-01	1.146994e+15	2.319705e+15	2.439127e+14	1.526905e+04	1.091574e+04	5.321881e+03	0	1.457662e-03
7.800000e+08	8.775564e+13	0.000000e+00	5.781250e-01	1.128824e+15	2.289262e+15	2.427632e+14	1.521994e+04	1.088860e+04	5.308648e+03	0	1.447984e-03
7.900000e+08	8.603280e+13	0.000000e+00	5.781250e-01	1.111143e+15	2.259462e+15	2.416216e+14	1.517160e+04	1.086178e+04	5.295571e+03	0	1.438446e-03
8.000000e+08	8.435664e+13	0.000000e+00	5.781250e-01	1.093931e+15	2.230289e+15	2.404880e+14	1.512401e+04	1.083528e+04	5.282649e+03	0	1.429043e-03
8.100000e+08	8.272539e+13	0.000000e+00	5.781250e-01	1.077170e+15	2.201726e+15	2.393622e+14	1.507716e+04	1.080908e+04	5.269880e+03	0	1.419772e-03
8.200000e+08	8.113735e+13	0.000000e+00	5.781250e-01	1.060844e+15	2.173759e+15	2.382442e+14	1.503101e+04	1.078320e+04	5.257260e+03	0	1.410628e-03
8.300000e+08	7.959091e+13	0.000000e+00	5.781250e-01	1.044936e+15	2.146371e+15	2.371339e+14	1.498557e+04	1.075762e+04	5.244789e+03	0	1.401608e-03
8.400000e+08	7.808454e+13	0.000000e+00	5.781250e-01	1.029432e+15	2.119549e+15	2.360313e+14	1.494080e+04	1.073234e+04	5.232464e+03	0	1.392710e-03
8.500000e+08	7.661679e+13	0.000000e+00	5.781250e-01	1.014316e+15	2.093278e+15	2.349363e+14	1.489669e+04	1.070735e+04	5.220282e+03	0	1.383928e-03
8.600000e+08	7.518626e+13	0.000000e+00	5.781250e-01	9.995751e+14	2.067545e+15	2.338489e+14	1.485322e+04	1.068266e+04	5.208243e+03	0	1.375261e-03
8.700000e+08	7.379163e+13	0.000000e+00	5.781250e-01	9.851959e+14	2.042333e+15	2.327689e+14	1.481038e+04	1.065825e+04	5.196343e+03	0	1.366704e-03
8.800000e+08	7.243165e+13	0.000000e+00	5.781250e-01	9.711658e+14	2.017631e+15	2.316964e+14	1.476816e+04	1.063413e+04	5.184580e+03	0	1.358256e-03
8.900000e+08	7.110510e+13	0.000000e+00	5.781250e-01	9.574727e+14	1.993427e+15	2.306312e+14	1.472653e+04	1.061028e+04	5.172953e+03	0	1.349913e-03
9.000000e+08	6.981084e+13	0.000000e+00	5.781250e-01	9.441053e+14	1.969705e+15	2.295734e+14	1.468549e+04	1.058670e+04	5.161460e+03	0	1.341672e-03
9.100000e+08	6.854777e+13	0.000000e+00	5.781250e-01	9.310525e+14	1.946455e+15	2.285228e+14	1.464501e+04	1.056340e+04	5.150097e+03	0	1.333532e-03
9.200000e+08	6.731485e+13	0.000000e+00	5.781250e-01	9.183039e+14	1.923664e+15	2.274794e+14	1.460509e+04	1.054036e+04	5.138864e+03	0	1.325488e-03
9.300000e+08	6.611106e+13	0.000000e+00	5.781250e-01	9.058494e+14	1.901321e+15	2.264431e+14	1.456572e+04	1.051758e+04	5.127757e+03	0	1.317539e-03
9.400000e+08	6.493546e+13	0.000000e+00	5.781250e-01	8.936795e+14	1.879414e+15	2.254139e+14	1.452687e+04	1.049505e+04	5.116776e+03	0	1.309683e-03
9.500000e+08	6.378711e+13	0.000000e+00	5.781250e-01	8.817850e+14	1.857932e+15	2.243918e+14	1.448855e+04	1.047278e+04	5.105918e+03	0	1.301917e-03
9.600000e+08	6.266515e+13	0.000000e+00	5.781250e-01	8.701570e+14	1.836865e+15	2.233766e+14	1.445073e+04	1.045076e+04	5.095180e+03	0	1.294238e-03
9.700000e+08	6.156873e+13	0.000000e+00	5.781250e-01	8.587873e+14	1.816200e+15	2.223683e+14	1.441341e+04	1.042898e+04	5.084562e+03	0	1.286646e-03
9.800000e+08	6.049704e+13	0.000000e+00	5.781250e-01	8.476676e+14	1.795930e+15	2.213669e+14	1.437657e+04	1.040744e+04	5.074061e+03	0	1.279137e-03
9.900000e+08	5.944931e+13	0.000000e+00	5.781250e-01	8.367902e+14	1.776043e+15	2.203723e+14	1.434020e+04	1.038614e+04	5.063675e+03	0	1.271709e-03
1.000000e+09	5.842479e+13	0.000000e+00	5.781250e-01	8.261478e+14	1.756530e+15	2.193844e+14	1.430431e+04	1.036507e+04	5.053403e+03	0	1.264362e-03
1.010000e+09	5.742278e+13	0.000000e+00	5.781250e-01	8.157331e+14	1.737382e+15	2.184033e+14	1.426886e+04	1.034423e+04	5.043242e+03	0	1.257092e-03
1.020000e+09	5.644258e+13	0.000000e+00	5.781250e-01	8.055393e+14	1.718589e+15	2.174287e+14	1.423386e+04	1.032361e+04	5.033190e+03	0	1.249898e-03
1.030000e+09	5.548354e+13	0.000000e+00	5.781250e-01	7.955598e+14	1.700143e+15	2.164608e+14	1.419929e+04	1.030321e+04	5.023247e+03	0	1.242778e-03
1.040000e+09	5.454503e+13	0.000000e+00	5.781250e-01	7.857883e+14	1.682036e+15	2.154994e+14	1.416515e+04	1.028304e+04	5.013410e+03	0	1.235731e-03
1.050000e+09	5.362643e+13	0.000000e+00	5.781250e-01	7.762187e+14	1.664258e+15	2.145446e+14	1.413143e+04	1.026307e+04	5.003677e+03	0	1.228755e-03
1.060000e+09	5.272717e+13	0.000000e+00	5.781250e-01	7.668451e+14	1.646802e+15	2.135961e+14	1.409812e+04	1.024332e+04	4.994047e+03	0	1.221848e-03
1.070000e+09	5.184668e+13	0.000000e+00	5.781250e-01	7.576619e+14	1.629660e+15	2.126541e+14	1.406520e+04	1.022378e+04	4.984517e+03	0	1.215008e-03
1.080000e+09	5.098442e+13	0.000000e+00	5.781250e-01	7.486637e+14	1.612824e+15	2.117184e+14	1.403268e+04	1.020443e+04	4.975088e+03	0	1.208235e-03
1.090000e+09	5.013987e+13	0.000000e+00	5.781250e-01	7.398452e+14	1.596287e+15	2.107889e+14	1.400054e+04	1.018529e+04	4.965756e+03	0	1.201526e-03
1.100000e+09	4.931253e+13	0.000000e+00	5.781250e-01	7.312014e+14	1.580042e+15	2.098657e+14	1.396878e+04	1.016635e+04	4.956520e+03	0	1.194881e-03
1.110000e+09	4.850191e+13	0.000000e+00	5.781250e-01	7.227274e+14	1.564082e+15	2.089488e+14	1.393739e+04	1.014760e+04	4.947379e+03	0	1.188297e-03
1.120000e+09	4.770755e+13	0.000000e+00	5.781250e-01	7.144186e+14	1.548400e+15	2.080379e+14	1.390636e+04	1.012904e+04	4.938331e+03	0	1.181774e-03
1.130000e+09	4.692900e+13	0.000000e+00	5.781250e-01	7.062704e+14	1.532989e+15	2.071332e+14	1.387568e+04	1.011067e+04	4.929375e+03	0	1.175311e-03
1.140000e+09	4.616582e+13	0.000000e+00	5.781250e-01	6.982785e+14	1.517843e+15	2.062344e+14	1.384536e+04	1.009249e+04	4.920508e+03	0	1.168905e-03
1.150000e+09	4.541759e+13	0.000000e+00	5.781250e-01	6.904388e+14	1.502956e+15	2.053417e+14	1.381537e+04	1.007448e+04	4.911731e+03	0	1.162555e-03
1.160000e+09	4.468392e+13	0.000000e+00	5.781250e-01	6.827470e+14	1.488321e+15	2.044550e+14	1.378572e+04	1.005666e+04	4.903041e+03	0	1.156261e-03
1.170000e+09	4.396441e+13	0.000000e+00	5.781250e-01	6.751994e+14	1.473933e+15	2.035741e+14	1.375640e+04	1.003901e+04	4.894436e+03	0	1.150022e-03
1.180000e+09	4.325869e+13	0.000000e+00	5.781250e-01	6.677922e+14	1.459786e+15	2.026992e+14	1.372740e+04	1.002154e+04	4.885917e+03	0	1.143835e-03
1.190000e+09	4.256640e+13	0.000000e+00	5.781250e-01	6.605216e+14	1.445875e+15	2.018300e+14	1.369872e+04	1.000423e+04	4.877480e+03	0	1.137700e-03
1.200000e+09	4.188717e+13	0.000000e+00	5.781250e-01	6.533842e+14	1.432195e+15	2.009666e+14	1.367034e+04	9.987095e+03	4.869126e+03	0	1.131616e-03
1.210000e+09	4.122068e+13	0.000000e+00	5.781250e-01	6.463765e+14	1.418739e+15	2.001089e+14	1.364228e+04	9.970125e+03	4.860852e+03	0	1.125582e-03
1.220000e+09	4.056660e+13	0.000000e+00	5.781250e-01	6.394953e+14	1.405502e+15	1.992569e+14	1.361451e+04	9.953317e+03	4.852657e+03	0	1.119597e-03
1.230000e+09	3.992460e+13	0.000000e+00	5.781250e-01	6.327374e+14	1.392481e+15	1.984106e+14	1.358704e+04	9.936669e+03	4.844541e+03	0	1.113659e-03
1.240000e+09	3.929438e+13	0.000000e+00	5.781250e-01	6.260996e+14	1.379670e+15	1.975698e+14	1.355985e+04	9.920179e+03	4.836501e+03	0	1.107769e-03
1.250000e+09	3.867565e+13	0.000000e+00	5.781250e-01	6.195790e+14	1.367064e+15	1.967346e+14	1.353295e+04	9.903845e+03	4.828538e+03	0	1.101923e-03
1.260000e+09	3.806812e+13	0.000000e+00	5.781250e-01	6.131727e+14	1.354659e+15	1.959049e+14	1.350633e+04	9.887664e+03	4.820649e+03	0	1.096123e-03
1.270000e+09	3.747151e+13	0.000000e+00	5.781250e-01	6.068779e+14	1.342450e+15	1.950807e+14	1.347998e+04	9.871633e+03	4.812833e+03	0	1.090367e-03
1.280000e+09	3.688555e+13	0.000000e+00	5.781250e-01	6.006918e+14	1.330434e+15	1.942619e+14	1.345391e+04	9.855750e+03	4.805089e+03	0	1.084653e-03
1.290000e+09	3.630997e+13	0.000000e+00	5.781250e-01	5.946119e+14	1.318605e+15	1.934485e+14	1.342809e+04	9.840014e+03	4.797417e+03	0	1.078982e-03
1.300000e+09	3.574454e+13	0.000000e+00	5.781250e-01	5.886356e+14	1.306960e+15	1.926404e+14	1.340254e+04	9.824421e+03	4.789815e+03	0	1.073352e-03
1.310000e+09	3.518899e+13	0.000000e+00	5.781250e-01	5.827605e+14	1.295495e+15	1.918376e+14	1.337724e+04	9.808971e+03	4.782282e+03	0	1.067762e-03
1.320000e+09	3.464311e+13	0.000000e+00	5.781250e-01	5.769840e+14	1.284206e+15	1.910400e+14	1.335219e+04	9.793659e+03	4.774818e+03	0	1.062212e-03
1.330000e+09	3.410665e+13	0.000000e+00	5.781250e-01	5.713041e+14	1.273089e+15	1.902477e+14	1.332740e+04	9.778486e+03	4.767420e+03	0	1.056700e-03
1.340000e+09	3.357939e+13	0.000000e+00	5.781250e-01	5.657182e+14	1.262141e+15	1.894606e+14	1.330284e+04	9.763447e+03	4.760088e+03	0	1.051227e-03
1.350000e+09	3.306112e+13	0.000000e+00	5.781250e-01	5.602244e+14	1.251358e+15	1.886786e+14	1.327852e+04	9.748543e+03	4.752821e+03	0	1.045791e-03
1.360000e+09	3.255162e+13	0.000000e+00	5.781250e-01	5.548205e+14	1.240736e+15	1.879017e+14	1.325444e+04	9.733769e+03	4.745619e+03	0	1.040391e-03
