#t		Qconv[W]	Ri[Rp]		R*[Rp]		Qc[W]		Qm[W]		Qr[W]		Tcmb[K]		Tl[K]		Tup[K]		RiFlag		Bs[T]
0.000000e+00	2.828634e+14	0.000000e+00	5.873016e-01	3.035385e+15	3.932204e+13	4.101680e+14	2.087129e+04	5.061557e+03	2.958920e+03	0	2.123473e-03
1.000000e+07	2.787834e+14	0.000000e+00	5.873016e-01	2.996659e+15	4.465102e+13	4.078953e+14	2.076749e+04	5.144748e+03	3.007552e+03	0	2.113214e-03
2.000000e+07	2.747418e+14	0.000000e+00	5.873016e-01	2.958306e+15	5.044781e+13	4.056397e+14	2.066501e+04	5.226801e+03	3.055519e+03	0	2.102952e-03
3.000000e+07	2.707386e+14	0.000000e+00	5.873016e-01	2.920327e+15	5.672663e+13	4.034009e+14	2.056383e+04	5.307714e+03	3.102819e+03	0	2.092688e-03
4.000000e+07	2.667737e+14	0.000000e+00	5.873016e-01	2.882719e+15	6.349999e+13	4.011789e+14	2.046393e+04	5.387484e+03	3.149452e+03	0	2.082422e-03
5.000000e+07	2.628470e+14	0.000000e+00	5.873016e-01	2.845481e+15	7.077874e+13	3.989734e+14	2.036532e+04	5.466108e+03	3.195415e+03	0	2.072155e-03
6.000000e+07	2.589585e+14	0.000000e+00	5.873016e-01	2.808613e+15	7.857185e+13	3.967843e+14	2.026796e+04	5.543584e+03	3.240706e+03	0	2.061885e-03
7.000000e+07	2.551080e+14	0.000000e+00	5.873016e-01	2.772113e+15	8.688644e+13	3.946116e+14	2.017186e+04	5.619909e+03	3.285324e+03	0	2.051615e-03
8.000000e+07	2.512954e+14	0.000000e+00	5.873016e-01	2.735981e+15	9.572767e+13	3.924550e+14	2.007700e+04	5.695078e+03	3.329267e+03	0	2.041343e-03
9.000000e+07	2.475208e+14	0.000000e+00	5.873016e-01	2.700215e+15	1.050987e+14	3.903144e+14	1.998336e+04	5.769089e+03	3.372533e+03	0	2.031071e-03
1.000000e+08	2.437840e+14	0.000000e+00	5.873016e-01	2.664815e+15	1.150008e+14	3.881898e+14	1.989094e+04	5.841937e+03	3.415120e+03	0	2.020798e-03
1.100000e+08	2.400851e+14	0.000000e+00	5.873016e-01	2.629781e+15	1.254329e+14	3.860809e+14	1.979972e+04	5.913620e+03	3.457024e+03	0	2.010525e-03
1.200000e+08	2.364240e+14	0.000000e+00	5.873016e-01	2.595111e+15	1.363922e+14	3.839876e+14	1.970969e+04	5.984133e+03	3.498245e+03	0	2.000253e-03
1.300000e+08	2.328006e+14	0.000000e+00	5.873016e-01	2.560805e+15	1.478737e+14	3.819098e+14	1.962084e+04	6.053473e+03	3.538781e+03	0	1.989982e-03
1.400000e+08	2.292151e+14	0.000000e+00	5.873016e-01	2.526863e+15	1.598704e+14	3.798475e+14	1.953315e+04	6.121637e+03	3.578628e+03	0	1.979713e-03
1.500000e+08	2.256673e+14	0.000000e+00	5.873016e-01	2.493285e+15	1.723736e+14	3.778003e+14	1.944662e+04	6.188621e+03	3.617786e+03	0	1.969446e-03
1.600000e+08	2.221574e+14	0.000000e+00	5.873016e-01	2.460070e+15	1.853721e+14	3.757683e+14	1.936123e+04	6.254423e+03	3.656253e+03	0	1.959182e-03
1.700000e+08	2.186853e+14	0.000000e+00	5.873016e-01	2.427219e+15	1.988533e+14	3.737513e+14	1.927697e+04	6.319039e+03	3.694027e+03	0	1.948922e-03
1.800000e+08	2.152511e+14	0.000000e+00	5.873016e-01	2.394731e+15	2.128028e+14	3.717491e+14	1.919383e+04	6.382468e+03	3.731106e+03	0	1.938666e-03
1.900000e+08	2.118549e+14	0.000000e+00	5.873016e-01	2.362608e+15	2.272041e+14	3.697617e+14	1.911179e+04	6.444706e+03	3.767490e+03	0	1.928416e-03
2.000000e+08	2.084966e+14	0.000000e+00	5.873016e-01	2.330848e+15	2.420393e+14	3.677889e+14	1.903084e+04	6.505754e+03	3.803178e+03	0	1.918172e-03
2.100000e+08	2.051764e+14	0.000000e+00	5.873016e-01	2.299452e+15	2.572891e+14	3.658306e+14	1.895098e+04	6.565609e+03	3.838168e+03	0	1.907935e-03
2.200000e+08	2.018944e+14	0.000000e+00	5.873016e-01	2.268421e+15	2.729324e+14	3.638868e+14	1.887219e+04	6.624271e+03	3.872461e+03	0	1.897707e-03
2.300000e+08	1.986505e+14	0.000000e+00	5.873016e-01	2.237754e+15	2.889471e+14	3.619571e+14	1.879445e+04	6.681740e+03	3.906057e+03	0	1.887489e-03
2.400000e+08	1.954449e+14	0.000000e+00	5.873016e-01	2.207452e+15	3.053098e+14	3.600416e+14	1.871775e+04	6.738016e+03	3.938955e+03	0	1.877281e-03
2.500000e+08	1.922776e+14	0.000000e+00	5.873016e-01	2.177516e+15	3.219958e+14	3.581402e+14	1.864209e+04	6.793101e+03	3.971157e+03	0	1.867085e-03
2.600000e+08	1.891488e+14	0.000000e+00	5.873016e-01	2.147945e+15	3.389798e+14	3.562527e+14	1.856745e+04	6.846995e+03	4.002663e+03	0	1.856902e-03
2.700000e+08	1.860584e+14	0.000000e+00	5.873016e-01	2.118740e+15	3.562354e+14	3.543789e+14	1.849382e+04	6.899702e+03	4.033475e+03	0	1.846733e-03
2.800000e+08	1.830065e+14	0.000000e+00	5.873016e-01	2.089902e+15	3.737356e+14	3.525189e+14	1.842118e+04	6.951225e+03	4.063594e+03	0	1.836581e-03
2.900000e+08	1.799932e+14	0.000000e+00	5.873016e-01	2.061429e+15	3.914528e+14	3.506724e+14	1.834952e+04	7.001566e+03	4.093023e+03	0	1.826445e-03
3.000000e+08	1.770186e+14	0.000000e+00	5.873016e-01	2.033323e+15	4.093589e+14	3.488394e+14	1.827883e+04	7.050731e+03	4.121764e+03	0	1.816327e-03
3.100000e+08	1.740826e+14	0.000000e+00	5.873016e-01	2.005584e+15	4.274258e+14	3.470197e+14	1.820910e+04	7.098724e+03	4.149820e+03	0	1.806230e-03
3.200000e+08	1.711854e+14	0.000000e+00	5.873016e-01	1.978210e+15	4.456246e+14	3.452133e+14	1.814032e+04	7.145551e+03	4.177195e+03	0	1.796153e-03
3.300000e+08	1.683268e+14	0.000000e+00	5.873016e-01	1.951203e+15	4.639272e+14	3.434200e+14	1.807247e+04	7.191219e+03	4.203892e+03	0	1.786099e-03
3.400000e+08	1.655069e+14	0.000000e+00	5.873016e-01	1.924561e+15	4.823048e+14	3.416397e+14	1.800554e+04	7.235734e+03	4.229915e+03	0	1.776069e-03
3.500000e+08	1.627258e+14	0.000000e+00	5.873016e-01	1.898285e+15	5.007291e+14	3.398724e+14	1.793952e+04	7.279104e+03	4.255268e+03	0	1.766065e-03
3.600000e+08	1.599833e+14	0.000000e+00	5.873016e-01	1.872374e+15	5.191724e+14	3.381179e+14	1.787440e+04	7.321338e+03	4.279958e+03	0	1.756087e-03
3.700000e+08	1.572794e+14	0.000000e+00	5.873016e-01	1.846827e+15	5.376067e+14	3.363760e+14	1.781016e+04	7.362445e+03	4.303988e+03	0	1.746138e-03
3.800000e+08	1.546142e+14	0.000000e+00	5.873016e-01	1.821643e+15	5.560053e+14	3.346468e+14	1.774679e+04	7.402435e+03	4.327366e+03	0	1.736218e-03
3.900000e+08	1.519873e+14	0.000000e+00	5.873016e-01	1.796821e+15	5.743415e+14	3.329301e+14	1.768428e+04	7.441317e+03	4.350096e+03	0	1.726329e-03
4.000000e+08	1.493989e+14	0.000000e+00	5.873016e-01	1.772360e+15	5.925897e+14	3.312257e+14	1.762262e+04	7.479103e+03	4.372185e+03	0	1.716473e-03
4.100000e+08	1.468488e+14	0.000000e+00	5.873016e-01	1.748259e+15	6.107248e+14	3.295337e+14	1.756180e+04	7.515806e+03	4.393641e+03	0	1.706651e-03
4.200000e+08	1.443368e+14	0.000000e+00	5.873016e-01	1.724517e+15	6.287226e+14	3.278539e+14	1.750179e+04	7.551435e+03	4.414470e+03	0	1.696863e-03
4.300000e+08	1.418628e+14	0.000000e+00	5.873016e-01	1.701130e+15	6.465598e+14	3.261861e+14	1.744260e+04	7.586006e+03	4.434679e+03	0	1.687112e-03
4.400000e+08	1.394266e+14	0.000000e+00	5.873016e-01	1.678099e+15	6.642144e+14	3.245304e+14	1.738421e+04	7.619529e+03	4.454276e+03	0	1.677399e-03
4.500000e+08	1.370280e+14	0.000000e+00	5.873016e-01	1.655420e+15	6.816647e+14	3.228865e+14	1.732660e+04	7.652021e+03	4.473270e+03	0	1.667724e-03
4.600000e+08	1.346668e+14	0.000000e+00	5.873016e-01	1.633092e+15	6.988909e+14	3.212545e+14	1.726977e+04	7.683493e+03	4.491669e+03	0	1.658090e-03
4.700000e+08	1.323429e+14	0.000000e+00	5.873016e-01	1.611112e+15	7.158739e+14	3.196342e+14	1.721370e+04	7.713962e+03	4.509481e+03	0	1.648496e-03
4.800000e+08	1.300558e+14	0.000000e+00	5.873016e-01	1.589478e+15	7.325952e+14	3.180254e+14	1.715838e+04	7.743442e+03	4.526714e+03	0	1.638945e-03
4.900000e+08	1.278055e+14	0.000000e+00	5.873016e-01	1.568187e+15	7.490383e+14	3.164282e+14	1.710380e+04	7.771948e+03	4.543378e+03	0	1.629437e-03
5.000000e+08	1.255915e+14	0.000000e+00	5.873016e-01	1.547237e+15	7.651875e+14	3.148424e+14	1.704995e+04	7.799496e+03	4.559483e+03	0	1.619974e-03
5.100000e+08	1.234137e+14	0.000000e+00	5.873016e-01	1.526624e+15	7.810282e+14	3.132680e+14	1.699681e+04	7.826103e+03	4.575036e+03	0	1.610555e-03
5.200000e+08	1.212716e+14	0.000000e+00	5.873016e-01	1.506345e+15	7.965468e+14	3.117047e+14	1.694438e+04	7.851783e+03	4.590049e+03	0	1.601183e-03
5.300000e+08	1.191651e+14	0.000000e+00	5.873016e-01	1.486398e+15	8.117315e+14	3.101527e+14	1.689264e+04	7.876554e+03	4.604530e+03	0	1.591857e-03
5.400000e+08	1.170936e+14	0.000000e+00	5.873016e-01	1.466779e+15	8.265707e+14	3.086116e+14	1.684158e+04	7.900433e+03	4.618489e+03	0	1.582579e-03
5.500000e+08	1.150569e+14	0.000000e+00	5.873016e-01	1.447484e+15	8.410547e+14	3.070816e+14	1.679120e+04	7.923436e+03	4.631936e+03	0	1.573350e-03
5.600000e+08	1.130546e+14	0.000000e+00	5.873016e-01	1.428510e+15	8.551746e+14	3.055624e+14	1.674147e+04	7.945580e+03	4.644881e+03	0	1.564170e-03
5.700000e+08	1.110863e+14	0.000000e+00	5.873016e-01	1.409853e+15	8.689224e+14	3.040540e+14	1.669239e+04	7.966882e+03	4.657334e+03	0	1.555039e-03
5.800000e+08	1.091516e+14	0.000000e+00	5.873016e-01	1.391510e+15	8.822913e+14	3.025563e+14	1.664395e+04	7.987361e+03	4.669306e+03	0	1.545959e-03
5.900000e+08	1.072501e+14	0.000000e+00	5.873016e-01	1.373477e+15	8.952762e+14	3.010693e+14	1.659614e+04	8.007031e+03	4.680805e+03	0	1.536929e-03
6.000000e+08	1.053815e+14	0.000000e+00	5.873016e-01	1.355749e+15	9.078719e+14	2.995927e+14	1.654895e+04	8.025912e+03	4.691843e+03	0	1.527950e-03
6.100000e+08	1.035452e+14	0.000000e+00	5.873016e-01	1.338324e+15	9.200747e+14	2.981266e+14	1.650236e+04	8.044021e+03	4.702429e+03	0	1.519024e-03
6.200000e+08	1.017409e+14	0.000000e+00	5.873016e-01	1.321195e+15	9.318816e+14	2.966709e+14	1.645637e+04	8.061374e+03	4.712573e+03	0	1.510149e-03
6.300000e+08	9.996811e+13	0.000000e+00	5.873016e-01	1.304361e+15	9.432907e+14	2.952254e+14	1.641096e+04	8.077989e+03	4.722286e+03	0	1.501326e-03
6.400000e+08	9.822639e+13	0.000000e+00	5.873016e-01	1.287816e+15	9.543009e+14	2.937901e+14	1.636613e+04	8.093883e+03	4.731577e+03	0	1.492556e-03
6.500000e+08	9.651529e+13	0.000000e+00	5.873016e-01	1.271556e+15	9.649122e+14	2.923650e+14	1.632186e+04	8.109074e+03	4.740457e+03	0	1.483838e-03
6.600000e+08	9.483437e+13	0.000000e+00	5.873016e-01	1.255577e+15	9.751243e+14	2.909498e+14	1.627816e+04	8.123577e+03	4.748936e+03	0	1.475173e-03
6.700000e+08	9.318317e+13	0.000000e+00	5.873016e-01	1.239875e+15	9.849389e+14	2.895447e+14	1.623500e+04	8.137410e+03	4.757023e+03	0	1.466562e-03
6.800000e+08	9.156122e+13	0.000000e+00	5.873016e-01	1.224446e+15	9.943574e+14	2.881493e+14	1.619237e+04	8.150591e+03	4.764728e+03	0	1.458003e-03
6.900000e+08	8.996807e+13	0.000000e+00	5.873016e-01	1.209284e+15	1.003382e+15	2.867638e+14	1.615028e+04	8.163134e+03	4.772061e+03	0	1.449497e-03
7.000000e+08	8.840325e+13	0.000000e+00	5.873016e-01	1.194386e+15	1.012017e+15	2.853880e+14	1.610870e+04	8.175057e+03	4.779031e+03	0	1.441044e-03
7.100000e+08	8.686631e+13	0.000000e+00	5.873016e-01	1.179748e+15	1.020265e+15	2.840218e+14	1.606764e+04	8.186376e+03	4.785648e+03	0	1.432644e-03
7.200000e+08	8.535676e+13	0.000000e+00	5.873016e-01	1.165365e+15	1.028129e+15	2.826652e+14	1.602707e+04	8.197107e+03	4.791921e+03	0	1.424297e-03
7.300000e+08	8.387416e+13	0.000000e+00	5.873016e-01	1.151232e+15	1.035615e+15	2.813180e+14	1.598700e+04	8.207265e+03	4.797859e+03	0	1.416002e-03
7.400000e+08	8.241803e+13	0.000000e+00	5.873016e-01	1.137346e+15	1.042728e+15	2.799803e+14	1.594741e+04	8.216867e+03	4.803472e+03	0	1.407760e-03
7.500000e+08	8.098791e+13	0.000000e+00	5.873016e-01	1.123702e+15	1.049472e+15	2.786519e+14	1.590830e+04	8.225927e+03	4.808768e+03	0	1.399570e-03
7.600000e+08	7.958334e+13	0.000000e+00	5.873016e-01	1.110296e+15	1.055854e+15	2.773327e+14	1.586965e+04	8.234461e+03	4.813757e+03	0	1.391432e-03
7.700000e+08	7.820388e+13	0.000000e+00	5.873016e-01	1.097123e+15	1.061879e+15	2.760227e+14	1.583147e+04	8.242483e+03	4.818447e+03	0	1.383345e-03
7.800000e+08	7.684905e+13	0.000000e+00	5.873016e-01	1.084180e+15	1.067554e+15	2.747219e+14	1.579373e+04	8.250008e+03	4.822846e+03	0	1.375310e-03
7.900000e+08	7.551840e+13	0.000000e+00	5.873016e-01	1.071462e+15	1.072885e+15	2.734300e+14	1.575644e+04	8.257050e+03	4.826963e+03	0	1.367326e-03
8.000000e+08	7.421150e+13	0.000000e+00	5.873016e-01	1.058965e+15	1.077879e+15	2.721471e+14	1.571958e+04	8.263624e+03	4.830805e+03	0	1.359393e-03
8.100000e+08	7.292790e+13	0.000000e+00	5.873016e-01	1.046685e+15	1.082542e+15	2.708731e+14	1.568316e+04	8.269742e+03	4.834382e+03	0	1.351509e-03
8.200000e+08	7.166715e+13	0.000000e+00	5.873016e-01	1.034617e+15	1.086883e+15	2.696079e+14	1.564715e+04	8.275420e+03	4.837701e+03	0	1.343676e-03
8.300000e+08	7.042882e+13	0.000000e+00	5.873016e-01	1.022759e+15	1.090908e+15	2.683515e+14	1.561156e+04	8.280669e+03	4.840770e+03	0	1.335892e-03
8.400000e+08	6.921248e+13	0.000000e+00	5.873016e-01	1.011105e+15	1.094623e+15	2.671038e+14	1.557637e+04	8.285503e+03	4.843596e+03	0	1.328157e-03
8.500000e+08	6.801771e+13	0.000000e+00	5.873016e-01	9.996525e+14	1.098038e+15	2.658646e+14	1.554158e+04	8.289935e+03	4.846187e+03	0	1.320470e-03
8.600000e+08	6.684408e+13	0.000000e+00	5.873016e-01	9.883966e+14	1.101159e+15	2.646340e+14	1.550719e+04	8.293976e+03	4.848549e+03	0	1.312831e-03
8.700000e+08	6.569119e+13	0.000000e+00	5.873016e-01	9.773339e+14	1.103994e+15	2.634119e+14	1.547318e+04	8.297640e+03	4.850691e+03	0	1.305239e-03
8.800000e+08	6.455862e+13	0.000000e+00	5.873016e-01	9.664606e+14	1.106550e+15	2.621982e+14	1.543955e+04	8.300937e+03	4.852618e+03	0	1.297695e-03
8.900000e+08	6.344597e+13	0.000000e+00	5.873016e-01	9.557729e+14	1.108835e+15	2.609928e+14	1.540629e+04	8.303880e+03	4.854339e+03	0	1.290196e-03
9.000000e+08	6.235285e+13	0.000000e+00	5.873016e-01	9.452672e+14	1.110856e+15	2.597957e+14	1.537340e+04	8.306480e+03	4.855858e+03	0	1.282744e-03
9.100000e+08	6.127886e+13	0.000000e+00	5.873016e-01	9.349399e+14	1.112621e+15	2.586067e+14	1.534087e+04	8.308747e+03	4.857184e+03	0	1.275336e-03
9.200000e+08	6.022362e+13	0.000000e+00	5.873016e-01	9.247874e+14	1.114137e+15	2.574260e+14	1.530870e+04	8.310692e+03	4.858321e+03	0	1.267973e-03
9.300000e+08	5.918676e+13	0.000000e+00	5.873016e-01	9.148063e+14	1.115412e+15	2.562533e+14	1.527687e+04	8.312327e+03	4.859277e+03	0	1.260654e-03
9.400000e+08	5.816790e+13	0.000000e+00	5.873016e-01	9.049930e+14	1.116453e+15	2.550886e+14	1.524538e+04	8.313660e+03	4.860056e+03	0	1.253379e-03
9.500000e+08	5.716667e+13	0.000000e+00	5.873016e-01	8.953443e+14	1.117267e+15	2.539319e+14	1.521423e+04	8.314703e+03	4.860666e+03	0	1.246146e-03
9.600000e+08	5.618273e+13	0.000000e+00	5.873016e-01	8.858568e+14	1.117862e+15	2.527831e+14	1.518342e+04	8.315464e+03	4.861111e+03	0	1.238955e-03
9.700000e+08	5.521571e+13	0.000000e+00	5.873016e-01	8.765273e+14	1.118245e+15	2.516421e+14	1.515292e+04	8.315953e+03	4.861397e+03	0	1.231805e-03
9.800000e+08	5.426528e+13	0.000000e+00	5.873016e-01	8.673525e+14	1.118422e+15	2.505088e+14	1.512275e+04	8.316180e+03	4.861529e+03	0	1.224697e-03
9.900000e+08	5.333109e+13	0.000000e+00	5.873016e-01	8.583294e+14	1.118401e+15	2.493833e+14	1.509289e+04	8.316153e+03	4.861513e+03	0	1.217628e-03
1.000000e+09	5.241280e+13	0.000000e+00	5.873016e-01	8.494549e+14	1.118187e+15	2.482654e+14	1.506334e+04	8.315880e+03	4.861354e+03	0	1.210599e-03
1.010000e+09	5.151011e+13	0.000000e+00	5.873016e-01	8.407259e+14	1.117790e+15	2.471550e+14	1.503410e+04	8.315371e+03	4.861056e+03	0	1.203609e-03
1.020000e+09	5.062268e+13	0.000000e+00	5.873016e-01	8.321396e+14	1.117213e+15	2.460522e+14	1.500516e+04	8.314633e+03	4.860625e+03	0	1.196657e-03
1.030000e+09	4.975020e+13	0.000000e+00	5.873016e-01	8.236930e+14	1.116464e+15	2.449569e+14	1.497651e+04	8.313675e+03	4.860065e+03	0	1.189742e-03
1.040000e+09	4.889237e+13	0.000000e+00	5.873016e-01	8.153832e+14	1.115550e+15	2.438690e+14	1.494815e+04	8.312504e+03	4.859380e+03	0	1.182864e-03
1.050000e+09	4.804888e+13	0.000000e+00	5.873016e-01	8.072076e+14	1.114476e+15	2.427884e+14	1.492007e+04	8.311127e+03	4.858575e+03	0	1.176022e-03
1.060000e+09	4.721944e+13	0.000000e+00	5.873016e-01	7.991634e+14	1.113248e+15	2.417151e+14	1.489228e+04	8.309552e+03	4.857655e+03	0	1.169216e-03
1.070000e+09	4.640377e+13	0.000000e+00	5.873016e-01	7.912479e+14	1.111873e+15	2.406490e+14	1.486476e+04	8.307787e+03	4.856623e+03	0	1.162444e-03
1.080000e+09	4.560157e+13	0.000000e+00	5.873016e-01	7.834585e+14	1.110356e+15	2.395901e+14	1.483751e+04	8.305837e+03	4.855483e+03	0	1.155707e-03
1.090000e+09	4.481258e+13	0.000000e+00	5.873016e-01	7.757926e+14	1.108702e+15	2.385383e+14	1.481053e+04	8.303710e+03	4.854239e+03	0	1.149003e-03
1.100000e+09	4.403652e+13	0.000000e+00	5.873016e-01	7.682479e+14	1.106918e+15	2.374936e+14	1.478382e+04	8.301411e+03	4.852896e+03	0	1.142331e-03
1.110000e+09	4.327313e+13	0.000000e+00	5.873016e-01	7.608217e+14	1.105007e+15	2.364559e+14	1.475736e+04	8.298948e+03	4.851456e+03	0	1.135692e-03
1.120000e+09	4.252215e+13	0.000000e+00	5.873016e-01	7.535118e+14	1.102977e+15	2.354251e+14	1.473116e+04	8.296326e+03	4.849923e+03	0	1.129084e-03
1.130000e+09	4.178333e+13	0.000000e+00	5.873016e-01	7.463158e+14	1.100831e+15	2.344013e+14	1.470520e+04	8.293552e+03	4.848301e+03	0	1.122506e-03
1.140000e+09	4.105641e+13	0.000000e+00	5.873016e-01	7.392314e+14	1.098575e+15	2.333843e+14	1.467950e+04	8.290630e+03	4.846593e+03	0	1.115959e-03
1.150000e+09	4.034116e+13	0.000000e+00	5.873016e-01	7.322563e+14	1.096213e+15	2.323740e+14	1.465404e+04	8.287567e+03	4.844802e+03	0	1.109440e-03
1.160000e+09	3.963735e+13	0.000000e+00	5.873016e-01	7.253884e+14	1.093750e+15	2.313705e+14	1.462882e+04	8.284368e+03	4.842932e+03	0	1.102950e-03
1.170000e+09	3.894473e+13	0.000000e+00	5.873016e-01	7.186256e+14	1.091190e+15	2.303737e+14	1.460383e+04	8.281038e+03	4.840985e+03	0	1.096488e-03
1.180000e+09	3.826308e+13	0.000000e+00	5.873016e-01	7.119657e+14	1.088539e+15	2.293836e+14	1.457908e+04	8.277581e+03	4.838965e+03	0	1.090053e-03
1.190000e+09	3.759218e+13	0.000000e+00	5.873016e-01	7.054066e+14	1.085799e+15	2.284000e+14	1.455455e+04	8.274004e+03	4.836874e+03	0	1.083645e-03
1.200000e+09	3.693181e+13	0.000000e+00	5.873016e-01	6.989465e+14	1.082976e+15	2.274229e+14	1.453025e+04	8.270310e+03	4.834714e+03	0	1.077262e-03
1.210000e+09	3.628177e+13	0.000000e+00	5.873016e-01	6.925832e+14	1.080073e+15	2.264524e+14	1.450618e+04	8.266505e+03	4.832490e+03	0	1.070904e-03
1.220000e+09	3.564184e+13	0.000000e+00	5.873016e-01	6.863150e+14	1.077094e+15	2.254882e+14	1.448232e+04	8.262592e+03	4.830203e+03	0	1.064571e-03
1.230000e+09	3.501183e+13	0.000000e+00	5.873016e-01	6.801400e+14	1.074043e+15	2.245304e+14	1.445867e+04	8.258577e+03	4.827855e+03	0	1.058261e-03
1.240000e+09	3.439153e+13	0.000000e+00	5.873016e-01	6.740562e+14	1.070923e+15	2.235790e+14	1.443524e+04	8.254462e+03	4.825450e+03	0	1.051974e-03
1.250000e+09	3.378075e+13	0.000000e+00	5.873016e-01	6.680620e+14	1.067739e+15	2.226338e+14	1.441202e+04	8.250253e+03	4.822989e+03	0	1.045709e-03
1.260000e+09	3.317930e+13	0.000000e+00	5.873016e-01	6.621555e+14	1.064493e+15	2.216949e+14	1.438900e+04	8.245952e+03	4.820475e+03	0	1.039466e-03
1.270000e+09	3.258701e+13	0.000000e+00	5.873016e-01	6.563351e+14	1.061188e+15	2.207622e+14	1.436619e+04	8.241564e+03	4.817910e+03	0	1.033243e-03
1.280000e+09	3.200368e+13	0.000000e+00	5.873016e-01	6.505991e+14	1.057828e+15	2.198356e+14	1.434357e+04	8.237093e+03	4.815296e+03	0	1.027041e-03
1.290000e+09	3.142915e+13	0.000000e+00	5.873016e-01	6.449459e+14	1.054417e+15	2.189151e+14	1.432115e+04	8.232542e+03	4.812635e+03	0	1.020858e-03
1.300000e+09	3.086323e+13	0.000000e+00	5.873016e-01	6.393739e+14	1.050956e+15	2.180006e+14	1.429893e+04	8.227914e+03	4.809930e+03	0	1.014694e-03
1.310000e+09	3.030577e+13	0.000000e+00	5.873016e-01	6.338815e+14	1.047448e+15	2.170921e+14	1.427690e+04	8.223213e+03	4.807182e+03	0	1.008547e-03
1.320000e+09	2.975659e+13	0.000000e+00	5.873016e-01	6.284671e+14	1.043898e+15	2.161896e+14	1.425506e+04	8.218442e+03	4.804393e+03	0	1.002418e-03
1.330000e+09	2.921554e+13	0.000000e+00	5.873016e-01	6.231294e+14	1.040306e+15	2.152929e+14	1.423340e+04	8.213603e+03	4.801564e+03	0	9.963053e-04
1.340000e+09	2.868246e+13	0.000000e+00	5.873016e-01	6.178668e+14	1.036676e+15	2.144022e+14	1.421193e+04	8.208701e+03	4.798698e+03	0	9.902084e-04
1.350000e+09	2.815719e+13	0.000000e+00	5.873016e-01	6.126779e+14	1.033010e+15	2.135172e+14	1.419063e+04	8.203737e+03	4.795796e+03	0	9.841265e-04
1.360000e+09	2.763959e+13	0.000000e+00	5.873016e-01	6.075614e+14	1.029311e+15	2.126380e+14	1.416952e+04	8.198715e+03	4.792861e+03	0	9.780589e-04
