#t		Qconv[W]	Ri[Rp]		R*[Rp]		Qc[W]		Qm[W]		Qr[W]		Tcmb[K]		Tl[K]		Tup[K]		RiFlag		Bs[T]
0.000000e+00	2.939392e+14	0.000000e+00	5.873015e-01	3.139173e+15	3.756918e+13	4.239985e+14	2.135885e+04	5.125021e+03	2.979281e+03	0	2.149399e-03
1.000000e+07	2.898811e+14	0.000000e+00	5.873015e-01	3.101145e+15	4.265748e+13	4.216492e+14	2.125614e+04	5.208529e+03	3.027826e+03	0	2.139462e-03
2.000000e+07	2.858562e+14	0.000000e+00	5.873015e-01	3.063440e+15	4.819732e+13	4.193175e+14	2.115466e+04	5.290954e+03	3.075742e+03	0	2.129514e-03
3.000000e+07	2.818645e+14	0.000000e+00	5.873015e-01	3.026056e+15	5.420361e+13	4.170032e+14	2.105441e+04	5.372293e+03	3.123026e+03	0	2.119555e-03
4.000000e+07	2.779062e+14	0.000000e+00	5.873015e-01	2.988995e+15	6.068979e+13	4.147062e+14	2.095536e+04	5.452543e+03	3.169677e+03	0	2.109587e-03
5.000000e+07	2.739812e+14	0.000000e+00	5.873015e-01	2.952257e+15	6.766775e+13	4.124264e+14	2.085752e+04	5.531701e+03	3.215693e+03	0	2.099608e-03
6.000000e+07	2.700897e+14	0.000000e+00	5.873015e-01	2.915841e+15	7.514773e+13	4.101635e+14	2.076088e+04	5.609762e+03	3.261071e+03	0	2.089620e-03
7.000000e+07	2.662316e+14	0.000000e+00	5.873015e-01	2.879748e+15	8.313827e+13	4.079175e+14	2.066541e+04	5.686723e+03	3.305810e+03	0	2.079622e-03
8.000000e+07	2.624071e+14	0.000000e+00	5.873015e-01	2.843978e+15	9.164613e+13	4.056882e+14	2.057112e+04	5.762579e+03	3.349907e+03	0	2.069616e-03
9.000000e+07	2.586161e+14	0.000000e+00	5.873015e-01	2.808532e+15	1.006762e+14	4.034755e+14	2.047799e+04	5.837326e+03	3.393359e+03	0	2.059601e-03
1.000000e+08	2.548588e+14	0.000000e+00	5.873015e-01	2.773409e+15	1.102316e+14	4.012792e+14	2.038602e+04	5.910961e+03	3.436164e+03	0	2.049578e-03
1.100000e+08	2.511352e+14	0.000000e+00	5.873015e-01	2.738611e+15	1.203134e+14	3.990992e+14	2.029518e+04	5.983478e+03	3.478320e+03	0	2.039547e-03
1.200000e+08	2.474455e+14	0.000000e+00	5.873015e-01	2.704137e+15	1.309208e+14	3.969353e+14	2.020548e+04	6.054873e+03	3.519824e+03	0	2.029510e-03
1.300000e+08	2.437896e+14	0.000000e+00	5.873015e-01	2.669988e+15	1.420510e+14	3.947875e+14	2.011690e+04	6.125142e+03	3.560672e+03	0	2.019465e-03
1.400000e+08	2.401678e+14	0.000000e+00	5.873015e-01	2.636165e+15	1.536996e+14	3.926556e+14	2.002943e+04	6.194281e+03	3.600864e+03	0	2.009415e-03
1.500000e+08	2.365801e+14	0.000000e+00	5.873015e-01	2.602668e+15	1.658598e+14	3.905394e+14	1.994305e+04	6.262285e+03	3.640396e+03	0	1.999359e-03
1.600000e+08	2.330267e+14	0.000000e+00	5.873015e-01	2.569498e+15	1.785233e+14	3.884389e+14	1.985777e+04	6.329150e+03	3.679266e+03	0	1.989298e-03
1.700000e+08	2.295077e+14	0.000000e+00	5.873015e-01	2.536657e+15	1.916798e+14	3.863538e+14	1.977357e+04	6.394873e+03	3.717473e+03	0	1.979234e-03
1.800000e+08	2.260232e+14	0.000000e+00	5.873015e-01	2.504145e+15	2.053172e+14	3.842842e+14	1.969044e+04	6.459451e+03	3.755013e+03	0	1.969166e-03
1.900000e+08	2.225734e+14	0.000000e+00	5.873015e-01	2.471962e+15	2.194217e+14	3.822297e+14	1.960836e+04	6.522880e+03	3.791885e+03	0	1.959096e-03
2.000000e+08	2.191585e+14	0.000000e+00	5.873015e-01	2.440110e+15	2.339779e+14	3.801904e+14	1.952734e+04	6.585157e+03	3.828089e+03	0	1.949025e-03
2.100000e+08	2.157785e+14	0.000000e+00	5.873015e-01	2.408591e+15	2.489687e+14	3.781661e+14	1.944735e+04	6.646281e+03	3.863621e+03	0	1.938953e-03
2.200000e+08	2.124336e+14	0.000000e+00	5.873015e-01	2.377405e+15	2.643757e+14	3.761567e+14	1.936838e+04	6.706249e+03	3.898482e+03	0	1.928882e-03
2.300000e+08	2.091241e+14	0.000000e+00	5.873015e-01	2.346553e+15	2.801787e+14	3.741620e+14	1.929044e+04	6.765060e+03	3.932670e+03	0	1.918813e-03
2.400000e+08	2.058501e+14	0.000000e+00	5.873015e-01	2.316036e+15	2.963566e+14	3.721819e+14	1.921350e+04	6.822713e+03	3.966185e+03	0	1.908747e-03
2.500000e+08	2.026117e+14	0.000000e+00	5.873015e-01	2.285856e+15	3.128872e+14	3.702164e+14	1.913755e+04	6.879208e+03	3.999027e+03	0	1.898684e-03
2.600000e+08	1.994091e+14	0.000000e+00	5.873015e-01	2.256014e+15	3.297466e+14	3.682652e+14	1.906258e+04	6.934545e+03	4.031195e+03	0	1.888627e-03
2.700000e+08	1.962425e+14	0.000000e+00	5.873015e-01	2.226510e+15	3.469106e+14	3.663283e+14	1.898859e+04	6.988726e+03	4.062691e+03	0	1.878577e-03
2.800000e+08	1.931120e+14	0.000000e+00	5.873015e-01	2.197346e+15	3.643537e+14	3.644055e+14	1.891556e+04	7.041750e+03	4.093516e+03	0	1.868534e-03
2.900000e+08	1.900177e+14	0.000000e+00	5.873015e-01	2.168523e+15	3.820502e+14	3.624967e+14	1.884349e+04	7.093621e+03	4.123669e+03	0	1.858500e-03
3.000000e+08	1.869599e+14	0.000000e+00	5.873015e-01	2.140042e+15	3.999730e+14	3.606019e+14	1.877235e+04	7.144341e+03	4.153154e+03	0	1.848477e-03
3.100000e+08	1.839386e+14	0.000000e+00	5.873015e-01	2.111903e+15	4.180954e+14	3.587209e+14	1.870214e+04	7.193914e+03	4.181971e+03	0	1.838466e-03
3.200000e+08	1.809540e+14	0.000000e+00	5.873015e-01	2.084107e+15	4.363896e+14	3.568536e+14	1.863285e+04	7.242343e+03	4.210124e+03	0	1.828468e-03
3.300000e+08	1.780061e+14	0.000000e+00	5.873015e-01	2.056656e+15	4.548283e+14	3.549998e+14	1.856446e+04	7.289633e+03	4.237615e+03	0	1.818484e-03
3.400000e+08	1.750951e+14	0.000000e+00	5.873015e-01	2.029549e+15	4.733833e+14	3.531595e+14	1.849697e+04	7.335790e+03	4.264447e+03	0	1.808517e-03
3.500000e+08	1.722211e+14	0.000000e+00	5.873015e-01	2.002786e+15	4.920269e+14	3.513326e+14	1.843037e+04	7.380820e+03	4.290624e+03	0	1.798567e-03
3.600000e+08	1.693841e+14	0.000000e+00	5.873015e-01	1.976369e+15	5.107316e+14	3.495189e+14	1.836464e+04	7.424730e+03	4.316150e+03	0	1.788637e-03
3.700000e+08	1.665841e+14	0.000000e+00	5.873015e-01	1.950297e+15	5.294698e+14	3.477183e+14	1.829977e+04	7.467526e+03	4.341028e+03	0	1.778726e-03
3.800000e+08	1.638213e+14	0.000000e+00	5.873015e-01	1.924571e+15	5.482143e+14	3.459308e+14	1.823575e+04	7.509217e+03	4.365264e+03	0	1.768838e-03
3.900000e+08	1.610956e+14	0.000000e+00	5.873015e-01	1.899189e+15	5.669385e+14	3.441562e+14	1.817257e+04	7.549811e+03	4.388862e+03	0	1.758973e-03
4.000000e+08	1.584070e+14	0.000000e+00	5.873015e-01	1.874153e+15	5.856161e+14	3.423944e+14	1.811022e+04	7.589319e+03	4.411829e+03	0	1.749133e-03
4.100000e+08	1.557555e+14	0.000000e+00	5.873015e-01	1.849460e+15	6.042217e+14	3.406453e+14	1.804869e+04	7.627749e+03	4.434169e+03	0	1.739318e-03
4.200000e+08	1.531411e+14	0.000000e+00	5.873015e-01	1.825112e+15	6.227303e+14	3.389088e+14	1.798797e+04	7.665112e+03	4.455889e+03	0	1.729532e-03
4.300000e+08	1.505637e+14	0.000000e+00	5.873015e-01	1.801106e+15	6.411179e+14	3.371848e+14	1.792804e+04	7.701419e+03	4.476995e+03	0	1.719774e-03
4.400000e+08	1.480232e+14	0.000000e+00	5.873015e-01	1.777442e+15	6.593608e+14	3.354733e+14	1.786889e+04	7.736682e+03	4.497494e+03	0	1.710046e-03
4.500000e+08	1.455195e+14	0.000000e+00	5.873015e-01	1.754118e+15	6.774370e+14	3.337740e+14	1.781052e+04	7.770913e+03	4.517393e+03	0	1.700350e-03
4.600000e+08	1.430525e+14	0.000000e+00	5.873015e-01	1.731134e+15	6.953250e+14	3.320869e+14	1.775291e+04	7.804125e+03	4.536700e+03	0	1.690687e-03
4.700000e+08	1.406221e+14	0.000000e+00	5.873015e-01	1.708488e+15	7.130039e+14	3.304119e+14	1.769605e+04	7.836329e+03	4.555421e+03	0	1.681057e-03
4.800000e+08	1.382281e+14	0.000000e+00	5.873015e-01	1.686178e+15	7.304546e+14	3.287490e+14	1.763994e+04	7.867541e+03	4.573565e+03	0	1.671463e-03
4.900000e+08	1.358703e+14	0.000000e+00	5.873015e-01	1.664202e+15	7.476585e+14	3.270979e+14	1.758455e+04	7.897774e+03	4.591140e+03	0	1.661905e-03
5.000000e+08	1.335486e+14	0.000000e+00	5.873015e-01	1.642559e+15	7.645982e+14	3.254586e+14	1.752988e+04	7.927041e+03	4.608154e+03	0	1.652384e-03
5.100000e+08	1.312626e+14	0.000000e+00	5.873015e-01	1.621246e+15	7.812575e+14	3.238311e+14	1.747591e+04	7.955359e+03	4.624615e+03	0	1.642902e-03
5.200000e+08	1.290123e+14	0.000000e+00	5.873015e-01	1.600260e+15	7.976212e+14	3.222151e+14	1.742265e+04	7.982741e+03	4.640533e+03	0	1.633459e-03
5.300000e+08	1.267972e+14	0.000000e+00	5.873015e-01	1.579600e+15	8.136751e+14	3.206107e+14	1.737007e+04	8.009203e+03	4.655916e+03	0	1.624057e-03
5.400000e+08	1.246173e+14	0.000000e+00	5.873015e-01	1.559262e+15	8.294065e+14	3.190177e+14	1.731816e+04	8.034760e+03	4.670773e+03	0	1.614696e-03
5.500000e+08	1.224721e+14	0.000000e+00	5.873015e-01	1.539244e+15	8.448032e+14	3.174361e+14	1.726692e+04	8.059429e+03	4.685113e+03	0	1.605377e-03
5.600000e+08	1.203614e+14	0.000000e+00	5.873015e-01	1.519544e+15	8.598549e+14	3.158657e+14	1.721634e+04	8.083224e+03	4.698946e+03	0	1.596101e-03
5.700000e+08	1.182848e+14	0.000000e+00	5.873015e-01	1.500157e+15	8.745511e+14	3.143064e+14	1.716640e+04	8.106163e+03	4.712281e+03	0	1.586868e-03
5.800000e+08	1.162421e+14	0.000000e+00	5.873015e-01	1.481082e+15	8.888843e+14	3.127582e+14	1.711710e+04	8.128260e+03	4.725127e+03	0	1.577681e-03
5.900000e+08	1.142328e+14	0.000000e+00	5.873015e-01	1.462314e+15	9.028458e+14	3.112210e+14	1.706841e+04	8.149534e+03	4.737493e+03	0	1.568538e-03
6.000000e+08	1.122568e+14	0.000000e+00	5.873015e-01	1.443850e+15	9.164296e+14	3.096947e+14	1.702035e+04	8.169999e+03	4.749390e+03	0	1.559440e-03
6.100000e+08	1.103134e+14	0.000000e+00	5.873015e-01	1.425687e+15	9.296298e+14	3.081792e+14	1.697288e+04	8.189673e+03	4.760827e+03	0	1.550389e-03
6.200000e+08	1.084025e+14	0.000000e+00	5.873015e-01	1.407821e+15	9.424421e+14	3.066743e+14	1.692602e+04	8.208573e+03	4.771814e+03	0	1.541385e-03
6.300000e+08	1.065236e+14	0.000000e+00	5.873015e-01	1.390250e+15	9.548626e+14	3.051801e+14	1.687973e+04	8.226714e+03	4.782360e+03	0	1.532427e-03
6.400000e+08	1.046763e+14	0.000000e+00	5.873015e-01	1.372968e+15	9.668885e+14	3.036965e+14	1.683402e+04	8.244113e+03	4.792474e+03	0	1.523517e-03
6.500000e+08	1.028602e+14	0.000000e+00	5.873015e-01	1.355972e+15	9.785174e+14	3.022232e+14	1.678888e+04	8.260787e+03	4.802167e+03	0	1.514655e-03
6.600000e+08	1.010749e+14	0.000000e+00	5.873015e-01	1.339260e+15	9.897485e+14	3.007604e+14	1.674430e+04	8.276752e+03	4.811448e+03	0	1.505841e-03
6.700000e+08	9.932000e+13	0.000000e+00	5.873015e-01	1.322825e+15	1.000581e+15	2.993078e+14	1.670026e+04	8.292024e+03	4.820326e+03	0	1.497075e-03
6.800000e+08	9.759506e+13	0.000000e+00	5.873015e-01	1.306665e+15	1.011016e+15	2.978655e+14	1.665676e+04	8.306621e+03	4.828811e+03	0	1.488357e-03
6.900000e+08	9.589966e+13	0.000000e+00	5.873015e-01	1.290777e+15	1.021054e+15	2.964332e+14	1.661378e+04	8.320558e+03	4.836913e+03	0	1.479689e-03
7.000000e+08	9.423337e+13	0.000000e+00	5.873015e-01	1.275154e+15	1.030696e+15	2.950110e+14	1.657133e+04	8.333850e+03	4.844640e+03	0	1.471068e-03
7.100000e+08	9.259575e+13	0.000000e+00	5.873015e-01	1.259795e+15	1.039944e+15	2.935988e+14	1.652939e+04	8.346515e+03	4.852003e+03	0	1.462497e-03
7.200000e+08	9.098637e+13	0.000000e+00	5.873015e-01	1.244695e+15	1.048803e+15	2.921964e+14	1.648796e+04	8.358567e+03	4.859009e+03	0	1.453974e-03
7.300000e+08	8.940479e+13	0.000000e+00	5.873015e-01	1.229849e+15	1.057274e+15	2.908038e+14	1.644702e+04	8.370023e+03	4.865668e+03	0	1.445500e-03
7.400000e+08	8.785056e+13	0.000000e+00	5.873015e-01	1.215254e+15	1.065362e+15	2.894210e+14	1.640656e+04	8.380898e+03	4.871990e+03	0	1.437075e-03
7.500000e+08	8.632326e+13	0.000000e+00	5.873015e-01	1.200905e+15	1.073071e+15	2.880478e+14	1.636658e+04	8.391206e+03	4.877983e+03	0	1.428698e-03
7.600000e+08	8.482242e+13	0.000000e+00	5.873015e-01	1.186799e+15	1.080406e+15	2.866841e+14	1.632708e+04	8.400964e+03	4.883655e+03	0	1.420370e-03
7.700000e+08	8.334763e+13	0.000000e+00	5.873015e-01	1.172931e+15	1.087372e+15	2.853300e+14	1.628803e+04	8.410185e+03	4.889015e+03	0	1.412090e-03
7.800000e+08	8.189843e+13	0.000000e+00	5.873015e-01	1.159299e+15	1.093974e+15	2.839852e+14	1.624944e+04	8.418885e+03	4.894073e+03	0	1.403858e-03
7.900000e+08	8.047439e+13	0.000000e+00	5.873015e-01	1.145896e+15	1.100217e+15	2.826498e+14	1.621130e+04	8.427077e+03	4.898835e+03	0	1.395674e-03
8.000000e+08	7.907507e+13	0.000000e+00	5.873015e-01	1.132720e+15	1.106109e+15	2.813237e+14	1.617359e+04	8.434777e+03	4.903311e+03	0	1.387537e-03
8.100000e+08	7.770004e+13	0.000000e+00	5.873015e-01	1.119767e+15	1.111655e+15	2.800067e+14	1.613632e+04	8.441996e+03	4.907508e+03	0	1.379447e-03
8.200000e+08	7.634887e+13	0.000000e+00	5.873015e-01	1.107032e+15	1.116862e+15	2.786989e+14	1.609947e+04	8.448751e+03	4.911434e+03	0	1.371404e-03
8.300000e+08	7.502113e+13	0.000000e+00	5.873015e-01	1.094512e+15	1.121736e+15	2.774001e+14	1.606304e+04	8.455052e+03	4.915098e+03	0	1.363408e-03
8.400000e+08	7.371639e+13	0.000000e+00	5.873015e-01	1.082203e+15	1.126284e+15	2.761103e+14	1.602702e+04	8.460915e+03	4.918506e+03	0	1.355458e-03
8.500000e+08	7.243424e+13	0.000000e+00	5.873015e-01	1.070100e+15	1.130514e+15	2.748293e+14	1.599141e+04	8.466351e+03	4.921666e+03	0	1.347553e-03
8.600000e+08	7.117426e+13	0.000000e+00	5.873015e-01	1.058201e+15	1.134432e+15	2.735572e+14	1.595619e+04	8.471373e+03	4.924585e+03	0	1.339694e-03
8.700000e+08	6.993603e+13	0.000000e+00	5.873015e-01	1.046502e+15	1.138046e+15	2.722939e+14	1.592136e+04	8.475994e+03	4.927271e+03	0	1.331880e-03
8.800000e+08	6.871916e+13	0.000000e+00	5.873015e-01	1.034998e+15	1.141362e+15	2.710392e+14	1.588691e+04	8.480225e+03	4.929731e+03	0	1.324109e-03
8.900000e+08	6.752323e+13	0.000000e+00	5.873015e-01	1.023686e+15	1.144389e+15	2.697932e+14	1.585285e+04	8.484079e+03	4.931971e+03	0	1.316383e-03
9.000000e+08	6.634785e+13	0.000000e+00	5.873015e-01	1.012563e+15	1.147134e+15	2.685557e+14	1.581915e+04	8.487567e+03	4.933999e+03	0	1.308700e-03
9.100000e+08	6.519263e+13	0.000000e+00	5.873015e-01	1.001624e+15	1.149603e+15	2.673267e+14	1.578582e+04	8.490700e+03	4.935820e+03	0	1.301060e-03
9.200000e+08	6.405718e+13	0.000000e+00	5.873015e-01	9.908673e+14	1.151805e+15	2.661062e+14	1.575284e+04	8.493489e+03	4.937442e+03	0	1.293463e-03
9.300000e+08	6.294112e+13	0.000000e+00	5.873015e-01	9.802880e+14	1.153746e+15	2.648939e+14	1.572022e+04	8.495945e+03	4.938869e+03	0	1.285907e-03
9.400000e+08	6.184408e+13	0.000000e+00	5.873015e-01	9.698833e+14	1.155434e+15	2.636900e+14	1.568795e+04	8.498079e+03	4.940110e+03	0	1.278392e-03
9.500000e+08	6.076567e+13	0.000000e+00	5.873015e-01	9.596496e+14	1.156877e+15	2.624942e+14	1.565602e+04	8.499900e+03	4.941168e+03	0	1.270918e-03
9.600000e+08	5.970555e+13	0.000000e+00	5.873015e-01	9.495837e+14	1.158081e+15	2.613067e+14	1.562442e+04	8.501419e+03	4.942052e+03	0	1.263483e-03
9.700000e+08	5.866335e+13	0.000000e+00	5.873015e-01	9.396823e+14	1.159054e+15	2.601272e+14	1.559315e+04	8.502646e+03	4.942765e+03	0	1.256088e-03
9.800000e+08	5.763872e+13	0.000000e+00	5.873015e-01	9.299423e+14	1.159803e+15	2.589557e+14	1.556221e+04	8.503589e+03	4.943313e+03	0	1.248732e-03
9.900000e+08	5.663131e+13	0.000000e+00	5.873015e-01	9.203605e+14	1.160335e+15	2.577922e+14	1.553159e+04	8.504259e+03	4.943702e+03	0	1.241414e-03
1.000000e+09	5.564078e+13	0.000000e+00	5.873015e-01	9.109337e+14	1.160656e+15	2.566366e+14	1.550128e+04	8.504664e+03	4.943938e+03	0	1.234134e-03
1.010000e+09	5.466680e+13	0.000000e+00	5.873015e-01	9.016590e+14	1.160775e+15	2.554889e+14	1.547129e+04	8.504813e+03	4.944024e+03	0	1.226891e-03
1.020000e+09	5.370904e+13	0.000000e+00	5.873015e-01	8.925333e+14	1.160697e+15	2.543489e+14	1.544159e+04	8.504714e+03	4.943967e+03	0	1.219683e-03
1.030000e+09	5.276718e+13	0.000000e+00	5.873015e-01	8.835537e+14	1.160428e+15	2.532166e+14	1.541220e+04	8.504376e+03	4.943771e+03	0	1.212512e-03
1.040000e+09	5.184089e+13	0.000000e+00	5.873015e-01	8.747174e+14	1.159976e+15	2.520920e+14	1.538310e+04	8.503807e+03	4.943440e+03	0	1.205375e-03
1.050000e+09	5.092988e+13	0.000000e+00	5.873015e-01	8.660216e+14	1.159348e+15	2.509750e+14	1.535429e+04	8.503015e+03	4.942979e+03	0	1.198272e-03
1.060000e+09	5.003384e+13	0.000000e+00	5.873015e-01	8.574634e+14	1.158548e+15	2.498655e+14	1.532577e+04	8.502007e+03	4.942393e+03	0	1.191203e-03
1.070000e+09	4.915246e+13	0.000000e+00	5.873015e-01	8.490401e+14	1.157583e+15	2.487635e+14	1.529752e+04	8.500791e+03	4.941686e+03	0	1.184167e-03
1.080000e+09	4.828546e+13	0.000000e+00	5.873015e-01	8.407492e+14	1.156460e+15	2.476689e+14	1.526956e+04	8.499374e+03	4.940863e+03	0	1.177163e-03
1.090000e+09	4.743255e+13	0.000000e+00	5.873015e-01	8.325879e+14	1.155184e+15	2.465816e+14	1.524186e+04	8.497763e+03	4.939926e+03	0	1.170191e-03
1.100000e+09	4.659344e+13	0.000000e+00	5.873015e-01	8.245538e+14	1.153761e+15	2.455017e+14	1.521444e+04	8.495964e+03	4.938881e+03	0	1.163249e-03
1.110000e+09	4.576787e+13	0.000000e+00	5.873015e-01	8.166443e+14	1.152197e+15	2.444290e+14	1.518727e+04	8.493985e+03	4.937730e+03	0	1.156338e-03
1.120000e+09	4.495555e+13	0.000000e+00	5.873015e-01	8.088570e+14	1.150497e+15	2.433635e+14	1.516037e+04	8.491832e+03	4.936479e+03	0	1.149456e-03
1.130000e+09	4.415624e+13	0.000000e+00	5.873015e-01	8.011894e+14	1.148666e+15	2.423051e+14	1.513372e+04	8.489511e+03	4.935129e+03	0	1.142603e-03
1.140000e+09	4.336967e+13	0.000000e+00	5.873015e-01	7.936393e+14	1.146709e+15	2.412538e+14	1.510733e+04	8.487028e+03	4.933686e+03	0	1.135778e-03
1.150000e+09	4.259558e+13	0.000000e+00	5.873015e-01	7.862043e+14	1.144633e+15	2.402095e+14	1.508118e+04	8.484389e+03	4.932152e+03	0	1.128980e-03
1.160000e+09	4.183373e+13	0.000000e+00	5.873015e-01	7.788822e+14	1.142441e+15	2.391721e+14	1.505528e+04	8.481600e+03	4.930530e+03	0	1.122208e-03
1.170000e+09	4.108387e+13	0.000000e+00	5.873015e-01	7.716707e+14	1.140139e+15	2.381417e+14	1.502962e+04	8.478666e+03	4.928825e+03	0	1.115463e-03
1.180000e+09	4.034577e+13	0.000000e+00	5.873015e-01	7.645677e+14	1.137731e+15	2.371182e+14	1.500419e+04	8.475592e+03	4.927038e+03	0	1.108742e-03
1.190000e+09	3.961920e+13	0.000000e+00	5.873015e-01	7.575711e+14	1.135222e+15	2.361014e+14	1.497900e+04	8.472384e+03	4.925173e+03	0	1.102046e-03
1.200000e+09	3.890392e+13	0.000000e+00	5.873015e-01	7.506788e+14	1.132616e+15	2.350914e+14	1.495403e+04	8.469047e+03	4.923233e+03	0	1.095374e-03
1.210000e+09	3.819972e+13	0.000000e+00	5.873015e-01	7.438888e+14	1.129917e+15	2.340881e+14	1.492930e+04	8.465585e+03	4.921220e+03	0	1.088725e-03
1.220000e+09	3.750638e+13	0.000000e+00	5.873015e-01	7.371992e+14	1.127131e+15	2.330915e+14	1.490479e+04	8.462004e+03	4.919139e+03	0	1.082097e-03
1.230000e+09	3.682368e+13	0.000000e+00	5.873015e-01	7.306079e+14	1.124260e+15	2.321014e+14	1.488049e+04	8.458307e+03	4.916990e+03	0	1.075492e-03
1.240000e+09	3.615141e+13	0.000000e+00	5.873015e-01	7.241130e+14	1.121308e+15	2.311179e+14	1.485642e+04	8.454500e+03	4.914777e+03	0	1.068906e-03
1.250000e+09	3.548938e+13	0.000000e+00	5.873015e-01	7.177128e+14	1.118280e+15	2.301409e+14	1.483255e+04	8.450587e+03	4.912502e+03	0	1.062341e-03
1.260000e+09	3.483738e+13	0.000000e+00	5.873015e-01	7.114054e+14	1.115180e+15	2.291703e+14	1.480890e+04	8.446571e+03	4.910167e+03	0	1.055795e-03
1.270000e+09	3.419521e+13	0.000000e+00	5.873015e-01	7.051890e+14	1.112010e+15	2.282061e+14	1.478545e+04	8.442457e+03	4.907776e+03	0	1.049268e-03
1.280000e+09	3.356270e+13	0.000000e+00	5.873015e-01	6.990619e+14	1.108774e+15	2.272482e+14	1.476221e+04	8.438249e+03	4.905330e+03	0	1.042758e-03
1.290000e+09	3.293964e+13	0.000000e+00	5.873015e-01	6.930224e+14	1.105476e+15	2.262967e+14	1.473917e+04	8.433951e+03	4.902831e+03	0	1.036265e-03
1.300000e+09	3.232586e+13	0.000000e+00	5.873015e-01	6.870688e+14	1.102119e+15	2.253514e+14	1.471633e+04	8.429565e+03	4.900281e+03	0	1.029788e-03
1.310000e+09	3.172117e+13	0.000000e+00	5.873015e-01	6.811996e+14	1.098706e+15	2.244123e+14	1.469368e+04	8.425097e+03	4.897684e+03	0	1.023327e-03
1.320000e+09	3.112542e+13	0.000000e+00	5.873015e-01	6.754130e+14	1.095239e+15	2.234793e+14	1.467123e+04	8.420549e+03	4.895040e+03	0	1.016880e-03
1.330000e+09	3.053841e+13	0.000000e+00	5.873015e-01	6.697076e+14	1.091723e+15	2.225524e+14	1.464897e+04	8.415924e+03	4.892351e+03	0	1.010447e-03
1.340000e+09	2.995999e+13	0.000000e+00	5.873015e-01	6.640819e+14	1.088160e+15	2.216316e+14	1.462689e+04	8.411226e+03	4.889620e+03	0	1.004027e-03
1.350000e+09	2.939000e+13	0.000000e+00	5.873015e-01	6.585343e+14	1.084552e+15	2.207168e+14	1.460500e+04	8.406458e+03	4.886848e+03	0	9.976185e-04
1.360000e+09	2.882827e+13	0.000000e+00	5.873015e-01	6.530634e+14	1.080902e+15	2.198080e+14	1.458329e+04	8.401622e+03	4.884038e+03	0	9.912217e-04
