#t		Qconv[W]	Ri[Rp]		R*[Rp]		Qc[W]		Qm[W]		Qr[W]		Tcmb[K]		Tl[K]		Tup[K]		RiFlag		Bs[T]
0.000000e+00	1.513538e+12	0.000000e+00	6.683416e-01	4.957895e+13	9.952594e+13	1.370574e+14	5.009619e+03	3.477256e+03	2.144767e+03	0	3.462122e-04
1.000000e+07	1.496088e+12	0.000000e+00	6.683416e-01	4.931860e+13	1.006356e+14	1.362980e+14	5.006444e+03	3.483379e+03	2.148543e+03	0	3.448765e-04
2.000000e+07	1.478711e+12	0.000000e+00	6.683416e-01	4.905937e+13	1.017269e+14	1.355443e+14	5.003285e+03	3.489351e+03	2.152226e+03	0	3.435361e-04
3.000000e+07	1.461416e+12	0.000000e+00	6.683416e-01	4.880136e+13	1.027995e+14	1.347962e+14	5.000142e+03	3.495174e+03	2.155818e+03	0	3.421915e-04
4.000000e+07	1.444208e+12	0.000000e+00	6.683416e-01	4.854465e+13	1.038533e+14	1.340537e+14	4.997016e+03	3.500851e+03	2.159320e+03	0	3.408431e-04
5.000000e+07	1.427094e+12	0.000000e+00	6.683416e-01	4.828934e+13	1.048879e+14	1.333167e+14	4.993907e+03	3.506382e+03	2.162731e+03	0	3.394914e-04
6.000000e+07	1.410079e+12	0.000000e+00	6.683416e-01	4.803551e+13	1.059031e+14	1.325852e+14	4.990814e+03	3.511771e+03	2.166055e+03	0	3.381368e-04
7.000000e+07	1.393169e+12	0.000000e+00	6.683416e-01	4.778322e+13	1.068988e+14	1.318592e+14	4.987737e+03	3.517018e+03	2.169292e+03	0	3.367796e-04
8.000000e+07	1.376368e+12	0.000000e+00	6.683416e-01	4.753254e+13	1.078747e+14	1.311386e+14	4.984676e+03	3.522126e+03	2.172442e+03	0	3.354204e-04
9.000000e+07	1.359682e+12	0.000000e+00	6.683416e-01	4.728355e+13	1.088308e+14	1.304233e+14	4.981632e+03	3.527096e+03	2.175508e+03	0	3.340594e-04
1.000000e+08	1.343115e+12	0.000000e+00	6.683416e-01	4.703629e+13	1.097669e+14	1.297134e+14	4.978603e+03	3.531931e+03	2.178490e+03	0	3.326971e-04
1.100000e+08	1.326670e+12	0.000000e+00	6.683416e-01	4.679083e+13	1.106829e+14	1.290087e+14	4.975590e+03	3.536632e+03	2.181390e+03	0	3.313337e-04
1.200000e+08	1.310353e+12	0.000000e+00	6.683416e-01	4.654722e+13	1.115786e+14	1.283092e+14	4.972593e+03	3.541202e+03	2.184208e+03	0	3.299697e-04
1.300000e+08	1.294165e+12	0.000000e+00	6.683416e-01	4.630550e+13	1.124542e+14	1.276149e+14	4.969611e+03	3.545641e+03	2.186947e+03	0	3.286052e-04
1.400000e+08	1.278111e+12	0.000000e+00	6.683416e-01	4.606572e+13	1.133094e+14	1.269258e+14	4.966645e+03	3.549954e+03	2.189606e+03	0	3.272408e-04
1.500000e+08	1.262192e+12	0.000000e+00	6.683416e-01	4.582792e+13	1.141443e+14	1.262417e+14	4.963694e+03	3.554140e+03	2.192188e+03	0	3.258765e-04
1.600000e+08	1.246413e+12	0.000000e+00	6.683416e-01	4.559213e+13	1.149589e+14	1.255627e+14	4.960759e+03	3.558202e+03	2.194694e+03	0	3.245128e-04
1.700000e+08	1.230774e+12	0.000000e+00	6.683416e-01	4.535839e+13	1.157532e+14	1.248888e+14	4.957838e+03	3.562142e+03	2.197124e+03	0	3.231499e-04
1.800000e+08	1.215279e+12	0.000000e+00	6.683416e-01	4.512672e+13	1.165272e+14	1.242197e+14	4.954933e+03	3.565962e+03	2.199480e+03	0	3.217881e-04
1.900000e+08	1.199929e+12	0.000000e+00	6.683416e-01	4.489715e+13	1.172809e+14	1.235556e+14	4.952042e+03	3.569665e+03	2.201764e+03	0	3.204275e-04
2.000000e+08	1.184726e+12	0.000000e+00	6.683416e-01	4.466970e+13	1.180145e+14	1.228964e+14	4.949166e+03	3.573251e+03	2.203976e+03	0	3.190685e-04
2.100000e+08	1.169671e+12	0.000000e+00	6.683416e-01	4.444439e+13	1.187280e+14	1.222421e+14	4.946304e+03	3.576722e+03	2.206117e+03	0	3.177112e-04
2.200000e+08	1.154766e+12	0.000000e+00	6.683416e-01	4.422124e+13	1.194214e+14	1.215925e+14	4.943457e+03	3.580082e+03	2.208189e+03	0	3.163559e-04
2.300000e+08	1.140011e+12	0.000000e+00	6.683416e-01	4.400026e+13	1.200950e+14	1.209477e+14	4.940625e+03	3.583331e+03	2.210193e+03	0	3.150027e-04
2.400000e+08	1.125407e+12	0.000000e+00	6.683416e-01	4.378146e+13	1.207487e+14	1.203077e+14	4.937806e+03	3.586472e+03	2.212131e+03	0	3.136518e-04
2.500000e+08	1.110956e+12	0.000000e+00	6.683416e-01	4.356485e+13	1.213828e+14	1.196723e+14	4.935002e+03	3.589506e+03	2.214002e+03	0	3.123035e-04
2.600000e+08	1.096656e+12	0.000000e+00	6.683416e-01	4.335044e+13	1.219973e+14	1.190416e+14	4.932211e+03	3.592435e+03	2.215809e+03	0	3.109578e-04
2.700000e+08	1.082510e+12	0.000000e+00	6.683416e-01	4.313823e+13	1.225925e+14	1.184155e+14	4.929434e+03	3.595261e+03	2.217552e+03	0	3.096150e-04
2.800000e+08	1.068517e+12	0.000000e+00	6.683416e-01	4.292822e+13	1.231684e+14	1.177940e+14	4.926670e+03	3.597987e+03	2.219233e+03	0	3.082751e-04
2.900000e+08	1.054677e+12	0.000000e+00	6.683416e-01	4.272041e+13	1.237253e+14	1.171770e+14	4.923920e+03	3.600613e+03	2.220853e+03	0	3.069383e-04
3.000000e+08	1.040990e+12	0.000000e+00	6.683416e-01	4.251481e+13	1.242633e+14	1.165645e+14	4.921184e+03	3.603142e+03	2.222413e+03	0	3.056048e-04
3.100000e+08	1.027455e+12	0.000000e+00	6.683416e-01	4.231139e+13	1.247827e+14	1.159564e+14	4.918460e+03	3.605575e+03	2.223914e+03	0	3.042745e-04
3.200000e+08	1.014073e+12	0.000000e+00	6.683416e-01	4.211017e+13	1.252835e+14	1.153528e+14	4.915750e+03	3.607915e+03	2.225357e+03	0	3.029477e-04
3.300000e+08	1.000843e+12	0.000000e+00	6.683416e-01	4.191112e+13	1.257661e+14	1.147536e+14	4.913052e+03	3.610163e+03	2.226743e+03	0	3.016245e-04
3.400000e+08	9.877639e+11	0.000000e+00	6.683416e-01	4.171425e+13	1.262307e+14	1.141587e+14	4.910367e+03	3.612320e+03	2.228074e+03	0	3.003048e-04
3.500000e+08	9.748354e+11	0.000000e+00	6.683416e-01	4.151954e+13	1.266774e+14	1.135681e+14	4.907695e+03	3.614389e+03	2.229350e+03	0	2.989889e-04
3.600000e+08	9.620566e+11	0.000000e+00	6.683416e-01	4.132698e+13	1.271064e+14	1.129819e+14	4.905035e+03	3.616372e+03	2.230573e+03	0	2.976767e-04
3.700000e+08	9.494267e+11	0.000000e+00	6.683416e-01	4.113655e+13	1.275181e+14	1.123998e+14	4.902388e+03	3.618269e+03	2.231743e+03	0	2.963683e-04
3.800000e+08	9.369446e+11	0.000000e+00	6.683416e-01	4.094825e+13	1.279126e+14	1.118220e+14	4.899752e+03	3.620083e+03	2.232862e+03	0	2.950638e-04
3.900000e+08	9.246094e+11	0.000000e+00	6.683416e-01	4.076206e+13	1.282902e+14	1.112484e+14	4.897129e+03	3.621815e+03	2.233930e+03	0	2.937632e-04
4.000000e+08	9.124200e+11	0.000000e+00	6.683416e-01	4.057795e+13	1.286511e+14	1.106789e+14	4.894518e+03	3.623467e+03	2.234949e+03	0	2.924665e-04
4.100000e+08	9.003750e+11	0.000000e+00	6.683416e-01	4.039592e+13	1.289956e+14	1.101135e+14	4.891918e+03	3.625041e+03	2.235920e+03	0	2.911739e-04
4.200000e+08	8.884734e+11	0.000000e+00	6.683416e-01	4.021595e+13	1.293238e+14	1.095522e+14	4.889330e+03	3.626537e+03	2.236843e+03	0	2.898852e-04
4.300000e+08	8.767137e+11	0.000000e+00	6.683416e-01	4.003801e+13	1.296362e+14	1.089949e+14	4.886754e+03	3.627959e+03	2.237720e+03	0	2.886006e-04
4.400000e+08	8.650946e+11	0.000000e+00	6.683416e-01	3.986209e+13	1.299329e+14	1.084416e+14	4.884189e+03	3.629307e+03	2.238551e+03	0	2.873200e-04
4.500000e+08	8.536148e+11	0.000000e+00	6.683416e-01	3.968817e+13	1.302141e+14	1.078923e+14	4.881635e+03	3.630582e+03	2.239338e+03	0	2.860434e-04
4.600000e+08	8.422727e+11	0.000000e+00	6.683416e-01	3.951622e+13	1.304802e+14	1.073470e+14	4.879092e+03	3.631787e+03	2.240081e+03	0	2.847708e-04
4.700000e+08	8.310669e+11	0.000000e+00	6.683416e-01	3.934622e+13	1.307313e+14	1.068056e+14	4.876561e+03	3.632923e+03	2.240782e+03	0	2.835023e-04
4.800000e+08	8.199959e+11	0.000000e+00	6.683416e-01	3.917816e+13	1.309679e+14	1.062680e+14	4.874040e+03	3.633991e+03	2.241440e+03	0	2.822378e-04
4.900000e+08	8.090581e+11	0.000000e+00	6.683416e-01	3.901201e+13	1.311900e+14	1.057343e+14	4.871530e+03	3.634993e+03	2.242058e+03	0	2.809773e-04
5.000000e+08	7.982518e+11	0.000000e+00	6.683416e-01	3.884775e+13	1.313980e+14	1.052044e+14	4.869031e+03	3.635929e+03	2.242636e+03	0	2.797207e-04
5.100000e+08	7.875756e+11	0.000000e+00	6.683416e-01	3.868535e+13	1.315921e+14	1.046783e+14	4.866542e+03	3.636803e+03	2.243175e+03	0	2.784680e-04
5.200000e+08	7.770278e+11	0.000000e+00	6.683416e-01	3.852479e+13	1.317726e+14	1.041559e+14	4.864064e+03	3.637614e+03	2.243675e+03	0	2.772193e-04
5.300000e+08	7.666067e+11	0.000000e+00	6.683416e-01	3.836606e+13	1.319398e+14	1.036373e+14	4.861595e+03	3.638365e+03	2.244138e+03	0	2.759744e-04
5.400000e+08	7.563107e+11	0.000000e+00	6.683416e-01	3.820911e+13	1.320939e+14	1.031224e+14	4.859137e+03	3.639056e+03	2.244564e+03	0	2.747333e-04
5.500000e+08	7.461381e+11	0.000000e+00	6.683416e-01	3.805394e+13	1.322351e+14	1.026111e+14	4.856689e+03	3.639689e+03	2.244955e+03	0	2.734960e-04
5.600000e+08	7.360873e+11	0.000000e+00	6.683416e-01	3.790051e+13	1.323638e+14	1.021035e+14	4.854251e+03	3.640265e+03	2.245310e+03	0	2.722624e-04
5.700000e+08	7.261564e+11	0.000000e+00	6.683416e-01	3.774880e+13	1.324801e+14	1.015995e+14	4.851823e+03	3.640786e+03	2.245631e+03	0	2.710325e-04
5.800000e+08	7.163439e+11	0.000000e+00	6.683416e-01	3.759880e+13	1.325844e+14	1.010990e+14	4.849405e+03	3.641252e+03	2.245919e+03	0	2.698061e-04
5.900000e+08	7.066481e+11	0.000000e+00	6.683416e-01	3.745046e+13	1.326769e+14	1.006021e+14	4.846996e+03	3.641666e+03	2.246174e+03	0	2.685833e-04
6.000000e+08	6.970672e+11	0.000000e+00	6.683416e-01	3.730378e+13	1.327578e+14	1.001087e+14	4.844596e+03	3.642027e+03	2.246397e+03	0	2.673639e-04
6.100000e+08	6.875995e+11	0.000000e+00	6.683416e-01	3.715872e+13	1.328273e+14	9.961882e+13	4.842206e+03	3.642338e+03	2.246589e+03	0	2.661479e-04
6.200000e+08	6.782434e+11	0.000000e+00	6.683416e-01	3.701527e+13	1.328859e+14	9.913239e+13	4.839826e+03	3.642599e+03	2.246750e+03	0	2.649353e-04
6.300000e+08	6.689972e+11	0.000000e+00	6.683416e-01	3.687339e+13	1.329335e+14	9.864938e+13	4.837454e+03	3.642812e+03	2.246881e+03	0	2.637258e-04
6.400000e+08	6.598591e+11	0.000000e+00	6.683416e-01	3.673306e+13	1.329706e+14	9.816979e+13	4.835092e+03	3.642977e+03	2.246983e+03	0	2.625196e-04
6.500000e+08	6.508276e+11	0.000000e+00	6.683416e-01	3.659427e+13	1.329974e+14	9.769357e+13	4.832738e+03	3.643097e+03	2.247057e+03	0	2.613164e-04
6.600000e+08	6.419009e+11	0.000000e+00	6.683416e-01	3.645698e+13	1.330140e+14	9.722071e+13	4.830394e+03	3.643171e+03	2.247103e+03	0	2.601161e-04
6.700000e+08	6.330774e+11	0.000000e+00	6.683416e-01	3.632117e+13	1.330208e+14	9.675117e+13	4.828058e+03	3.643201e+03	2.247121e+03	0	2.589188e-04
6.800000e+08	6.243554e+11	0.000000e+00	6.683416e-01	3.618682e+13	1.330179e+14	9.628492e+13	4.825731e+03	3.643188e+03	2.247113e+03	0	2.577242e-04
6.900000e+08	6.157333e+11	0.000000e+00	6.683416e-01	3.605391e+13	1.330056e+14	9.582195e+13	4.823412e+03	3.643133e+03	2.247079e+03	0	2.565324e-04
7.000000e+08	6.072095e+11	0.000000e+00	6.683416e-01	3.592241e+13	1.329841e+14	9.536222e+13	4.821102e+03	3.643037e+03	2.247020e+03	0	2.553431e-04
7.100000e+08	5.987824e+11	0.000000e+00	6.683416e-01	3.579230e+13	1.329537e+14	9.490571e+13	4.818801e+03	3.642901e+03	2.246936e+03	0	2.541563e-04
7.200000e+08	5.904504e+11	0.000000e+00	6.683416e-01	3.566356e+13	1.329144e+14	9.445240e+13	4.816507e+03	3.642726e+03	2.246828e+03	0	2.529720e-04
7.300000e+08	5.822119e+11	0.000000e+00	6.683416e-01	3.553617e+13	1.328667e+14	9.400225e+13	4.814222e+03	3.642513e+03	2.246697e+03	0	2.517899e-04
7.400000e+08	5.740654e+11	0.000000e+00	6.683416e-01	3.541010e+13	1.328106e+14	9.355524e+13	4.811945e+03	3.642263e+03	2.246542e+03	0	2.506100e-04
7.500000e+08	5.660093e+11	0.000000e+00	6.683416e-01	3.528532e+13	1.327464e+14	9.311135e+13	4.809677e+03	3.641976e+03	2.246366e+03	0	2.494322e-04
7.600000e+08	5.580422e+11	0.000000e+00	6.683416e-01	3.516183e+13	1.326743e+14	9.267056e+13	4.807416e+03	3.641654e+03	2.246167e+03	0	2.482563e-04
7.700000e+08	5.501624e+11	0.000000e+00	6.683416e-01	3.503960e+13	1.325945e+14	9.223283e+13	4.805163e+03	3.641297e+03	2.245947e+03	0	2.470823e-04
7.800000e+08	5.423685e+11	0.000000e+00	6.683416e-01	3.491860e+13	1.325071e+14	9.179814e+13	4.802918e+03	3.640907e+03	2.245706e+03	0	2.459099e-04
7.900000e+08	5.346591e+11	0.000000e+00	6.683416e-01	3.479882e+13	1.324125e+14	9.136647e+13	4.800680e+03	3.640483e+03	2.245445e+03	0	2.447392e-04
8.000000e+08	5.270327e+11	0.000000e+00	6.683416e-01	3.468024e+13	1.323108e+14	9.093779e+13	4.798451e+03	3.640028e+03	2.245164e+03	0	2.435700e-04
8.100000e+08	5.194878e+11	0.000000e+00	6.683416e-01	3.456283e+13	1.322021e+14	9.051209e+13	4.796229e+03	3.639541e+03	2.244864e+03	0	2.424021e-04
8.200000e+08	5.120231e+11	0.000000e+00	6.683416e-01	3.444658e+13	1.320867e+14	9.008933e+13	4.794014e+03	3.639024e+03	2.244545e+03	0	2.412355e-04
8.300000e+08	5.046373e+11	0.000000e+00	6.683416e-01	3.433146e+13	1.319647e+14	8.966949e+13	4.791807e+03	3.638477e+03	2.244207e+03	0	2.400699e-04
8.400000e+08	4.973288e+11	0.000000e+00	6.683416e-01	3.421746e+13	1.318364e+14	8.925256e+13	4.789607e+03	3.637900e+03	2.243852e+03	0	2.389053e-04
8.500000e+08	4.900964e+11	0.000000e+00	6.683416e-01	3.410456e+13	1.317018e+14	8.883850e+13	4.787415e+03	3.637296e+03	2.243479e+03	0	2.377416e-04
8.600000e+08	4.829388e+11	0.000000e+00	6.683416e-01	3.399274e+13	1.315613e+14	8.842729e+13	4.785229e+03	3.636664e+03	2.243089e+03	0	2.365785e-04
8.700000e+08	4.758546e+11	0.000000e+00	6.683416e-01	3.388198e+13	1.314148e+14	8.801892e+13	4.783051e+03	3.636005e+03	2.242683e+03	0	2.354160e-04
8.800000e+08	4.688426e+11	0.000000e+00	6.683416e-01	3.377226e+13	1.312627e+14	8.761335e+13	4.780880e+03	3.635320e+03	2.242260e+03	0	2.342540e-04
8.900000e+08	4.619015e+11	0.000000e+00	6.683416e-01	3.366356e+13	1.311051e+14	8.721057e+13	4.778716e+03	3.634610e+03	2.241822e+03	0	2.330922e-04
9.000000e+08	4.550300e+11	0.000000e+00	6.683416e-01	3.355587e+13	1.309420e+14	8.681056e+13	4.776559e+03	3.633874e+03	2.241369e+03	0	2.319305e-04
9.100000e+08	4.482270e+11	0.000000e+00	6.683416e-01	3.344917e+13	1.307738e+14	8.641329e+13	4.774409e+03	3.633115e+03	2.240900e+03	0	2.307689e-04
9.200000e+08	4.414913e+11	0.000000e+00	6.683416e-01	3.334345e+13	1.306006e+14	8.601873e+13	4.772266e+03	3.632332e+03	2.240417e+03	0	2.296071e-04
9.300000e+08	4.348216e+11	0.000000e+00	6.683416e-01	3.323867e+13	1.304224e+14	8.562688e+13	4.770129e+03	3.631526e+03	2.239920e+03	0	2.284450e-04
9.400000e+08	4.282168e+11	0.000000e+00	6.683416e-01	3.313484e+13	1.302395e+14	8.523771e+13	4.767999e+03	3.630697e+03	2.239409e+03	0	2.272824e-04
9.500000e+08	4.216758e+11	0.000000e+00	6.683416e-01	3.303193e+13	1.300519e+14	8.485119e+13	4.765876e+03	3.629847e+03	2.238884e+03	0	2.261192e-04
9.600000e+08	4.151974e+11	0.000000e+00	6.683416e-01	3.292993e+13	1.298599e+14	8.446730e+13	4.763760e+03	3.628976e+03	2.238347e+03	0	2.249553e-04
9.700000e+08	4.087806e+11	0.000000e+00	6.683416e-01	3.282882e+13	1.296636e+14	8.408604e+13	4.761650e+03	3.628084e+03	2.237797e+03	0	2.237904e-04
9.800000e+08	4.024243e+11	0.000000e+00	6.683416e-01	3.272859e+13	1.294631e+14	8.370736e+13	4.759546e+03	3.627172e+03	2.237234e+03	0	2.226244e-04
9.900000e+08	3.961274e+11	0.000000e+00	6.683416e-01	3.262922e+13	1.292585e+14	8.333126e+13	4.757449e+03	3.626240e+03	2.236660e+03	0	2.214571e-04
1.000000e+09	3.898889e+11	0.000000e+00	6.683416e-01	3.253069e+13	1.290500e+14	8.295771e+13	4.755358e+03	3.625289e+03	2.236073e+03	0	2.202884e-04
1.010000e+09	3.837077e+11	0.000000e+00	6.683416e-01	3.243300e+13	1.288377e+14	8.258670e+13	4.753273e+03	3.624320e+03	2.235475e+03	0	2.191180e-04
1.020000e+09	3.775829e+11	0.000000e+00	6.683416e-01	3.233612e+13	1.286217e+14	8.221820e+13	4.751195e+03	3.623333e+03	2.234866e+03	0	2.179459e-04
1.030000e+09	3.715135e+11	0.000000e+00	6.683416e-01	3.224005e+13	1.284022e+14	8.185219e+13	4.749123e+03	3.622328e+03	2.234247e+03	0	2.167718e-04
1.040000e+09	3.654985e+11	0.000000e+00	6.683416e-01	3.214477e+13	1.281793e+14	8.148866e+13	4.747057e+03	3.621306e+03	2.233617e+03	0	2.155956e-04
1.050000e+09	3.595370e+11	0.000000e+00	6.683416e-01	3.205027e+13	1.279530e+14	8.112758e+13	4.744997e+03	3.620268e+03	2.232976e+03	0	2.144170e-04
1.060000e+09	3.536280e+11	0.000000e+00	6.683416e-01	3.195653e+13	1.277235e+14	8.076894e+13	4.742944e+03	3.619214e+03	2.232326e+03	0	2.132358e-04
1.070000e+09	3.477707e+11	0.000000e+00	6.683416e-01	3.186354e+13	1.274909e+14	8.041271e+13	4.740896e+03	3.618144e+03	2.231666e+03	0	2.120519e-04
1.080000e+09	3.419641e+11	0.000000e+00	6.683416e-01	3.177129e+13	1.272554e+14	8.005888e+13	4.738854e+03	3.617059e+03	2.230997e+03	0	2.108651e-04
1.090000e+09	3.362075e+11	0.000000e+00	6.683416e-01	3.167977e+13	1.270170e+14	7.970743e+13	4.736818e+03	3.615959e+03	2.230318e+03	0	2.096752e-04
1.100000e+09	3.304998e+11	0.000000e+00	6.683416e-01	3.158896e+13	1.267758e+14	7.935834e+13	4.734788e+03	3.614844e+03	2.229631e+03	0	2.084819e-04
1.110000e+09	3.248404e+11	0.000000e+00	6.683416e-01	3.149885e+13	1.265319e+14	7.901159e+13	4.732764e+03	3.613716e+03	2.228935e+03	0	2.072850e-04
1.120000e+09	3.192283e+11	0.000000e+00	6.683416e-01	3.140943e+13	1.262855e+14	7.866716e+13	4.730745e+03	3.612574e+03	2.228231e+03	0	2.060844e-04
1.130000e+09	3.136628e+11	0.000000e+00	6.683416e-01	3.132070e+13	1.260366e+14	7.832504e+13	4.728732e+03	3.611419e+03	2.227518e+03	0	2.048797e-04
1.140000e+09	3.081431e+11	0.000000e+00	6.683416e-01	3.123263e+13	1.257853e+14	7.798521e+13	4.726725e+03	3.610252e+03	2.226798e+03	0	2.036708e-04
1.150000e+09	3.026684e+11	0.000000e+00	6.683416e-01	3.114521e+13	1.255317e+14	7.764764e+13	4.724724e+03	3.609072e+03	2.226070e+03	0	2.024574e-04
1.160000e+09	2.972379e+11	0.000000e+00	6.683416e-01	3.105845e+13	1.252760e+14	7.731232e+13	4.722728e+03	3.607880e+03	2.225335e+03	0	2.012392e-04
1.170000e+09	2.918510e+11	0.000000e+00	6.683416e-01	3.097232e+13	1.250181e+14	7.697924e+13	4.720738e+03	3.606676e+03	2.224592e+03	0	2.000161e-04
1.180000e+09	2.865068e+11	0.000000e+00	6.683416e-01	3.088681e+13	1.247582e+14	7.664838e+13	4.718753e+03	3.605461e+03	2.223843e+03	0	1.987877e-04
1.190000e+09	2.812047e+11	0.000000e+00	6.683416e-01	3.080192e+13	1.244963e+14	7.631971e+13	4.716774e+03	3.604235e+03	2.223087e+03	0	1.975538e-04
1.200000e+09	2.759440e+11	0.000000e+00	6.683416e-01	3.071764e+13	1.242327e+14	7.599323e+13	4.714800e+03	3.602998e+03	2.222324e+03	0	1.963141e-04
1.210000e+09	2.707240e+11	0.000000e+00	6.683416e-01	3.063395e+13	1.239672e+14	7.566891e+13	4.712831e+03	3.601751e+03	2.221555e+03	0	1.950684e-04
1.220000e+09	2.655440e+11	0.000000e+00	6.683416e-01	3.055085e+13	1.237000e+14	7.534674e+13	4.710868e+03	3.600494e+03	2.220780e+03	0	1.938162e-04
1.230000e+09	2.604035e+11	0.000000e+00	6.683416e-01	3.046832e+13	1.234313e+14	7.502671e+13	4.708910e+03	3.599227e+03	2.219998e+03	0	1.925574e-04
1.240000e+09	2.553016e+11	0.000000e+00	6.683416e-01	3.038636e+13	1.231609e+14	7.470878e+13	4.706958e+03	3.597951e+03	2.219211e+03	0	1.912915e-04
1.250000e+09	2.502379e+11	0.000000e+00	6.683416e-01	3.030496e+13	1.228891e+14	7.439296e+13	4.705011e+03	3.596666e+03	2.218419e+03	0	1.900184e-04
1.260000e+09	2.452116e+11	0.000000e+00	6.683416e-01	3.022412e+13	1.226159e+14	7.407922e+13	4.703068e+03	3.595372e+03	2.217621e+03	0	1.887375e-04
1.270000e+09	2.402223e+11	0.000000e+00	6.683416e-01	3.014381e+13	1.223413e+14	7.376754e+13	4.701132e+03	3.594070e+03	2.216817e+03	0	1.874487e-04
1.280000e+09	2.352692e+11	0.000000e+00	6.683416e-01	3.006404e+13	1.220655e+14	7.345792e+13	4.699200e+03	3.592759e+03	2.216009e+03	0	1.861514e-04
1.290000e+09	2.303519e+11	0.000000e+00	6.683416e-01	2.998479e+13	1.217885e+14	7.315033e+13	4.697273e+03	3.591441e+03	2.215196e+03	0	1.848453e-04
1.300000e+09	2.254697e+11	0.000000e+00	6.683416e-01	2.990606e+13	1.215103e+14	7.284476e+13	4.695352e+03	3.590115e+03	2.214378e+03	0	1.835301e-04
1.310000e+09	2.206222e+11	0.000000e+00	6.683416e-01	2.982783e+13	1.212311e+14	7.254119e+13	4.693435e+03	3.588781e+03	2.213555e+03	0	1.822053e-04
1.320000e+09	2.158088e+11	0.000000e+00	6.683416e-01	2.975011e+13	1.209508e+14	7.223961e+13	4.691524e+03	3.587440e+03	2.212728e+03	0	1.808705e-04
1.330000e+09	2.110289e+11	0.000000e+00	6.683416e-01	2.967289e+13	1.206696e+14	7.194001e+13	4.689617e+03	3.586092e+03	2.211897e+03	0	1.795251e-04
1.340000e+09	2.062820e+11	0.000000e+00	6.683416e-01	2.959615e+13	1.203875e+14	7.164236e+13	4.687715e+03	3.584738e+03	2.211061e+03	0	1.781688e-04
1.350000e+09	2.015676e+11	0.000000e+00	6.683416e-01	2.951989e+13	1.201045e+14	7.134665e+13	4.685819e+03	3.583377e+03	2.210222e+03	0	1.768011e-04
1.360000e+09	1.968853e+11	0.000000e+00	6.683416e-01	2.944410e+13	1.198207e+14	7.105287e+13	4.683927e+03	3.582010e+03	2.209378e+03	0	1.754213e-04
