#t		Qconv[W]	Ri[Rp]		R*[Rp]		Qc[W]		Qm[W]		Qr[W]		Tcmb[K]		Tl[K]		Tup[K]		RiFlag		Bs[T]
0.000000e+00	5.015448e+13	0.000000e+00	7.338129e-01	7.605165e+14	6.280672e+13	8.087676e+13	9.319895e+03	3.532420e+03	2.292490e+03	0	1.096261e-03
1.000000e+07	4.919265e+13	0.000000e+00	7.338129e-01	7.463259e+14	7.394209e+13	8.042864e+13	9.258199e+03	3.623324e+03	2.351485e+03	0	1.089208e-03
2.000000e+07	4.820340e+13	0.000000e+00	7.338129e-01	7.317407e+14	8.604930e+13	7.998388e+13	9.197644e+03	3.711139e+03	2.408476e+03	0	1.081857e-03
3.000000e+07	4.719198e+13	0.000000e+00	7.338129e-01	7.168369e+14	9.905777e+13	7.954243e+13	9.138264e+03	3.795708e+03	2.463360e+03	0	1.074237e-03
4.000000e+07	4.616366e+13	0.000000e+00	7.338129e-01	7.016916e+14	1.128767e+14	7.910429e+13	9.080085e+03	3.876895e+03	2.516049e+03	0	1.066377e-03
5.000000e+07	4.512367e+13	0.000000e+00	7.338129e-01	6.863806e+14	1.273975e+14	7.866941e+13	9.023126e+03	3.954582e+03	2.566467e+03	0	1.058308e-03
6.000000e+07	4.407712e+13	0.000000e+00	7.338129e-01	6.709785e+14	1.424972e+14	7.823777e+13	8.967402e+03	4.028674e+03	2.614552e+03	0	1.050062e-03
7.000000e+07	4.302891e+13	0.000000e+00	7.338129e-01	6.555566e+14	1.580418e+14	7.780935e+13	8.912919e+03	4.099102e+03	2.660258e+03	0	1.041672e-03
8.000000e+07	4.198370e+13	0.000000e+00	7.338129e-01	6.401822e+14	1.738906e+14	7.738412e+13	8.859681e+03	4.165817e+03	2.703555e+03	0	1.033168e-03
9.000000e+07	4.094577e+13	0.000000e+00	7.338129e-01	6.249180e+14	1.899001e+14	7.696204e+13	8.807683e+03	4.228800e+03	2.744431e+03	0	1.024583e-03
1.000000e+08	3.991907e+13	0.000000e+00	7.338129e-01	6.098211e+14	2.059276e+14	7.654310e+13	8.756916e+03	4.288054e+03	2.782885e+03	0	1.015947e-03
1.100000e+08	3.890711e+13	0.000000e+00	7.338129e-01	5.949427e+14	2.218354e+14	7.612727e+13	8.707369e+03	4.343603e+03	2.818936e+03	0	1.007288e-03
1.200000e+08	3.791297e+13	0.000000e+00	7.338129e-01	5.803274e+14	2.374933e+14	7.571452e+13	8.659022e+03	4.395496e+03	2.852614e+03	0	9.986348e-04
1.300000e+08	3.693931e+13	0.000000e+00	7.338129e-01	5.660137e+14	2.527816e+14	7.530483e+13	8.611856e+03	4.443801e+03	2.883963e+03	0	9.900117e-04
1.400000e+08	3.598831e+13	0.000000e+00	7.338129e-01	5.520335e+14	2.675932e+14	7.489817e+13	8.565847e+03	4.488604e+03	2.913040e+03	0	9.814419e-04
1.500000e+08	3.506178e+13	0.000000e+00	7.338129e-01	5.384126e+14	2.818345e+14	7.449452e+13	8.520967e+03	4.530006e+03	2.939909e+03	0	9.729460e-04
1.600000e+08	3.416108e+13	0.000000e+00	7.338129e-01	5.251711e+14	2.954265e+14	7.409384e+13	8.477187e+03	4.568121e+03	2.964644e+03	0	9.645423e-04
1.700000e+08	3.328721e+13	0.000000e+00	7.338129e-01	5.123232e+14	3.083050e+14	7.369613e+13	8.434478e+03	4.603074e+03	2.987329e+03	0	9.562466e-04
1.800000e+08	3.244085e+13	0.000000e+00	7.338129e-01	4.998787e+14	3.204204e+14	7.330134e+13	8.392808e+03	4.634999e+03	3.008048e+03	0	9.480723e-04
1.900000e+08	3.162234e+13	0.000000e+00	7.338129e-01	4.878424e+14	3.317369e+14	7.290947e+13	8.352144e+03	4.664036e+03	3.026892e+03	0	9.400307e-04
2.000000e+08	3.083176e+13	0.000000e+00	7.338129e-01	4.762157e+14	3.422316e+14	7.252047e+13	8.312454e+03	4.690329e+03	3.043956e+03	0	9.321308e-04
2.100000e+08	3.006899e+13	0.000000e+00	7.338129e-01	4.649962e+14	3.518937e+14	7.213434e+13	8.273704e+03	4.714023e+03	3.059333e+03	0	9.243796e-04
2.200000e+08	2.933367e+13	0.000000e+00	7.338129e-01	4.541789e+14	3.607226e+14	7.175105e+13	8.235862e+03	4.735265e+03	3.073119e+03	0	9.167823e-04
2.300000e+08	2.862530e+13	0.000000e+00	7.338129e-01	4.437564e+14	3.687269e+14	7.137056e+13	8.198895e+03	4.754200e+03	3.085407e+03	0	9.093424e-04
2.400000e+08	2.794326e+13	0.000000e+00	7.338129e-01	4.337193e+14	3.759230e+14	7.099287e+13	8.162772e+03	4.770970e+03	3.096291e+03	0	9.020621e-04
2.500000e+08	2.728679e+13	0.000000e+00	7.338129e-01	4.240569e+14	3.823340e+14	7.061794e+13	8.127461e+03	4.785716e+03	3.105861e+03	0	8.949420e-04
2.600000e+08	2.665510e+13	0.000000e+00	7.338129e-01	4.147572e+14	3.879875e+14	7.024576e+13	8.092933e+03	4.798572e+03	3.114204e+03	0	8.879820e-04
2.700000e+08	2.604730e+13	0.000000e+00	7.338129e-01	4.058075e+14	3.929157e+14	6.987629e+13	8.059157e+03	4.809669e+03	3.121406e+03	0	8.811807e-04
2.800000e+08	2.546250e+13	0.000000e+00	7.338129e-01	3.971945e+14	3.971535e+14	6.950953e+13	8.026107e+03	4.819130e+03	3.127546e+03	0	8.745361e-04
2.900000e+08	2.489977e+13	0.000000e+00	7.338129e-01	3.889048e+14	4.007379e+14	6.914544e+13	7.993754e+03	4.827076e+03	3.132703e+03	0	8.680456e-04
3.000000e+08	2.435818e+13	0.000000e+00	7.338129e-01	3.809246e+14	4.037070e+14	6.878401e+13	7.962072e+03	4.833620e+03	3.136950e+03	0	8.617058e-04
3.100000e+08	2.383680e+13	0.000000e+00	7.338129e-01	3.732404e+14	4.060995e+14	6.842521e+13	7.931037e+03	4.838867e+03	3.140355e+03	0	8.555132e-04
3.200000e+08	2.333471e+13	0.000000e+00	7.338129e-01	3.658388e+14	4.079539e+14	6.806902e+13	7.900625e+03	4.842919e+03	3.142985e+03	0	8.494638e-04
3.300000e+08	2.285103e+13	0.000000e+00	7.338129e-01	3.587068e+14	4.093085e+14	6.771542e+13	7.870813e+03	4.845870e+03	3.144900e+03	0	8.435536e-04
3.400000e+08	2.238489e+13	0.000000e+00	7.338129e-01	3.518316e+14	4.102002e+14	6.736439e+13	7.841578e+03	4.847809e+03	3.146158e+03	0	8.377781e-04
3.500000e+08	2.193543e+13	0.000000e+00	7.338129e-01	3.452011e+14	4.106652e+14	6.701590e+13	7.812901e+03	4.848819e+03	3.146814e+03	0	8.321331e-04
3.600000e+08	2.150187e+13	0.000000e+00	7.338129e-01	3.388033e+14	4.107378e+14	6.666994e+13	7.784761e+03	4.848977e+03	3.146916e+03	0	8.266142e-04
3.700000e+08	2.108343e+13	0.000000e+00	7.338129e-01	3.326271e+14	4.104510e+14	6.632649e+13	7.757141e+03	4.848354e+03	3.146512e+03	0	8.212168e-04
3.800000e+08	2.067937e+13	0.000000e+00	7.338129e-01	3.266616e+14	4.098362e+14	6.598552e+13	7.730021e+03	4.847018e+03	3.145645e+03	0	8.159367e-04
3.900000e+08	2.028898e+13	0.000000e+00	7.338129e-01	3.208966e+14	4.089227e+14	6.564702e+13	7.703384e+03	4.845030e+03	3.144355e+03	0	8.107697e-04
4.000000e+08	1.991161e+13	0.000000e+00	7.338129e-01	3.153224e+14	4.077384e+14	6.531096e+13	7.677216e+03	4.842449e+03	3.142680e+03	0	8.057115e-04
4.100000e+08	1.954662e+13	0.000000e+00	7.338129e-01	3.099297e+14	4.063091e+14	6.497733e+13	7.651499e+03	4.839326e+03	3.140653e+03	0	8.007581e-04
4.200000e+08	1.919342e+13	0.000000e+00	7.338129e-01	3.047097e+14	4.046591e+14	6.464610e+13	7.626220e+03	4.835711e+03	3.138307e+03	0	7.959055e-04
4.300000e+08	1.885143e+13	0.000000e+00	7.338129e-01	2.996543e+14	4.028109e+14	6.431725e+13	7.601365e+03	4.831649e+03	3.135670e+03	0	7.911500e-04
4.400000e+08	1.852013e+13	0.000000e+00	7.338129e-01	2.947557e+14	4.007854e+14	6.399077e+13	7.576920e+03	4.827181e+03	3.132771e+03	0	7.864880e-04
4.500000e+08	1.819901e+13	0.000000e+00	7.338129e-01	2.900064e+14	3.986019e+14	6.366664e+13	7.552872e+03	4.822347e+03	3.129634e+03	0	7.819159e-04
4.600000e+08	1.788760e+13	0.000000e+00	7.338129e-01	2.853995e+14	3.962782e+14	6.334483e+13	7.529210e+03	4.817182e+03	3.126282e+03	0	7.774303e-04
4.700000e+08	1.758546e+13	0.000000e+00	7.338129e-01	2.809285e+14	3.938307e+14	6.302534e+13	7.505922e+03	4.811718e+03	3.122736e+03	0	7.730281e-04
4.800000e+08	1.729215e+13	0.000000e+00	7.338129e-01	2.765873e+14	3.912746e+14	6.270813e+13	7.482996e+03	4.805984e+03	3.119015e+03	0	7.687062e-04
4.900000e+08	1.700728e+13	0.000000e+00	7.338129e-01	2.723700e+14	3.886234e+14	6.239319e+13	7.460424e+03	4.800010e+03	3.115137e+03	0	7.644617e-04
5.000000e+08	1.673049e+13	0.000000e+00	7.338129e-01	2.682711e+14	3.858902e+14	6.208050e+13	7.438193e+03	4.793819e+03	3.111119e+03	0	7.602917e-04
5.100000e+08	1.646140e+13	0.000000e+00	7.338129e-01	2.642856e+14	3.830861e+14	6.177005e+13	7.416296e+03	4.787434e+03	3.106976e+03	0	7.561937e-04
5.200000e+08	1.619971e+13	0.000000e+00	7.338129e-01	2.604084e+14	3.802222e+14	6.146182e+13	7.394722e+03	4.780879e+03	3.102721e+03	0	7.521650e-04
5.300000e+08	1.594508e+13	0.000000e+00	7.338129e-01	2.566352e+14	3.773077e+14	6.115578e+13	7.373463e+03	4.774170e+03	3.098368e+03	0	7.482034e-04
5.400000e+08	1.569723e+13	0.000000e+00	7.338129e-01	2.529614e+14	3.743515e+14	6.085192e+13	7.352511e+03	4.767328e+03	3.093927e+03	0	7.443064e-04
5.500000e+08	1.545588e+13	0.000000e+00	7.338129e-01	2.493831e+14	3.713616e+14	6.055022e+13	7.331857e+03	4.760367e+03	3.089410e+03	0	7.404720e-04
5.600000e+08	1.522075e+13	0.000000e+00	7.338129e-01	2.458964e+14	3.683453e+14	6.025067e+13	7.311493e+03	4.753304e+03	3.084826e+03	0	7.366979e-04
5.700000e+08	1.499161e+13	0.000000e+00	7.338129e-01	2.424976e+14	3.653089e+14	5.995325e+13	7.291414e+03	4.746151e+03	3.080184e+03	0	7.329824e-04
5.800000e+08	1.476822e+13	0.000000e+00	7.338129e-01	2.391833e+14	3.622584e+14	5.965794e+13	7.271610e+03	4.738921e+03	3.075492e+03	0	7.293234e-04
5.900000e+08	1.455036e+13	0.000000e+00	7.338129e-01	2.359503e+14	3.591992e+14	5.936471e+13	7.252076e+03	4.731627e+03	3.070758e+03	0	7.257193e-04
6.000000e+08	1.433781e+13	0.000000e+00	7.338129e-01	2.327954e+14	3.561361e+14	5.907357e+13	7.232804e+03	4.724278e+03	3.065988e+03	0	7.221682e-04
6.100000e+08	1.413038e+13	0.000000e+00	7.338129e-01	2.297158e+14	3.530734e+14	5.878449e+13	7.213789e+03	4.716883e+03	3.061189e+03	0	7.186686e-04
6.200000e+08	1.392787e+13	0.000000e+00	7.338129e-01	2.267087e+14	3.500150e+14	5.849744e+13	7.195024e+03	4.709453e+03	3.056367e+03	0	7.152189e-04
6.300000e+08	1.373012e+13	0.000000e+00	7.338129e-01	2.237713e+14	3.469644e+14	5.821243e+13	7.176504e+03	4.701995e+03	3.051527e+03	0	7.118177e-04
6.400000e+08	1.353694e+13	0.000000e+00	7.338129e-01	2.209014e+14	3.439247e+14	5.792942e+13	7.158222e+03	4.694516e+03	3.046673e+03	0	7.084636e-04
6.500000e+08	1.334817e+13	0.000000e+00	7.338129e-01	2.180964e+14	3.408989e+14	5.764841e+13	7.140174e+03	4.687023e+03	3.041810e+03	0	7.051551e-04
6.600000e+08	1.316367e+13	0.000000e+00	7.338129e-01	2.153542e+14	3.378891e+14	5.736937e+13	7.122355e+03	4.679522e+03	3.036942e+03	0	7.018911e-04
6.700000e+08	1.298328e+13	0.000000e+00	7.338129e-01	2.126725e+14	3.348979e+14	5.709230e+13	7.104758e+03	4.672018e+03	3.032073e+03	0	6.986703e-04
6.800000e+08	1.280688e+13	0.000000e+00	7.338129e-01	2.100494e+14	3.319268e+14	5.681717e+13	7.087379e+03	4.664518e+03	3.027205e+03	0	6.954915e-04
6.900000e+08	1.263431e+13	0.000000e+00	7.338129e-01	2.074829e+14	3.289780e+14	5.654397e+13	7.070213e+03	4.657024e+03	3.022342e+03	0	6.923536e-04
7.000000e+08	1.246547e+13	0.000000e+00	7.338129e-01	2.049712e+14	3.260527e+14	5.627269e+13	7.053257e+03	4.649543e+03	3.017486e+03	0	6.892556e-04
7.100000e+08	1.230022e+13	0.000000e+00	7.338129e-01	2.025125e+14	3.231522e+14	5.600331e+13	7.036505e+03	4.642076e+03	3.012641e+03	0	6.861964e-04
7.200000e+08	1.213846e+13	0.000000e+00	7.338129e-01	2.001051e+14	3.202778e+14	5.573581e+13	7.019952e+03	4.634629e+03	3.007807e+03	0	6.831750e-04
7.300000e+08	1.198007e+13	0.000000e+00	7.338129e-01	1.977474e+14	3.174305e+14	5.547018e+13	7.003596e+03	4.627203e+03	3.002988e+03	0	6.801905e-04
7.400000e+08	1.182495e+13	0.000000e+00	7.338129e-01	1.954379e+14	3.146110e+14	5.520640e+13	6.987432e+03	4.619802e+03	2.998185e+03	0	6.772420e-04
7.500000e+08	1.167300e+13	0.000000e+00	7.338129e-01	1.931750e+14	3.118200e+14	5.494447e+13	6.971455e+03	4.612429e+03	2.993400e+03	0	6.743286e-04
7.600000e+08	1.152412e+13	0.000000e+00	7.338129e-01	1.909575e+14	3.090583e+14	5.468436e+13	6.955663e+03	4.605085e+03	2.988634e+03	0	6.714495e-04
7.700000e+08	1.137822e+13	0.000000e+00	7.338129e-01	1.887839e+14	3.063262e+14	5.442605e+13	6.940051e+03	4.597773e+03	2.983889e+03	0	6.686038e-04
7.800000e+08	1.123521e+13	0.000000e+00	7.338129e-01	1.866529e+14	3.036242e+14	5.416955e+13	6.924616e+03	4.590495e+03	2.979165e+03	0	6.657909e-04
7.900000e+08	1.109501e+13	0.000000e+00	7.338129e-01	1.845633e+14	3.009525e+14	5.391482e+13	6.909355e+03	4.583252e+03	2.974464e+03	0	6.630099e-04
8.000000e+08	1.095754e+13	0.000000e+00	7.338129e-01	1.825140e+14	2.983114e+14	5.366186e+13	6.894263e+03	4.576045e+03	2.969788e+03	0	6.602602e-04
8.100000e+08	1.082272e+13	0.000000e+00	7.338129e-01	1.805037e+14	2.957011e+14	5.341065e+13	6.879339e+03	4.568877e+03	2.965136e+03	0	6.575411e-04
8.200000e+08	1.069047e+13	0.000000e+00	7.338129e-01	1.785314e+14	2.931216e+14	5.316119e+13	6.864578e+03	4.561748e+03	2.960509e+03	0	6.548518e-04
8.300000e+08	1.056073e+13	0.000000e+00	7.338129e-01	1.765960e+14	2.905730e+14	5.291344e+13	6.849978e+03	4.554660e+03	2.955909e+03	0	6.521918e-04
8.400000e+08	1.043341e+13	0.000000e+00	7.338129e-01	1.746966e+14	2.880553e+14	5.266741e+13	6.835536e+03	4.547613e+03	2.951335e+03	0	6.495604e-04
8.500000e+08	1.030847e+13	0.000000e+00	7.338129e-01	1.728321e+14	2.855684e+14	5.242308e+13	6.821248e+03	4.540607e+03	2.946789e+03	0	6.469571e-04
8.600000e+08	1.018583e+13	0.000000e+00	7.338129e-01	1.710015e+14	2.831122e+14	5.218043e+13	6.807112e+03	4.533645e+03	2.942270e+03	0	6.443812e-04
8.700000e+08	1.006543e+13	0.000000e+00	7.338129e-01	1.692041e+14	2.806866e+14	5.193945e+13	6.793125e+03	4.526726e+03	2.937780e+03	0	6.418322e-04
8.800000e+08	9.947212e+12	0.000000e+00	7.338129e-01	1.674389e+14	2.782914e+14	5.170013e+13	6.779285e+03	4.519850e+03	2.933318e+03	0	6.393096e-04
8.900000e+08	9.831121e+12	0.000000e+00	7.338129e-01	1.657051e+14	2.759263e+14	5.146245e+13	6.765588e+03	4.513019e+03	2.928885e+03	0	6.368128e-04
9.000000e+08	9.717101e+12	0.000000e+00	7.338129e-01	1.640018e+14	2.735913e+14	5.122640e+13	6.752033e+03	4.506233e+03	2.924480e+03	0	6.343413e-04
9.100000e+08	9.605098e+12	0.000000e+00	7.338129e-01	1.623284e+14	2.712860e+14	5.099198e+13	6.738617e+03	4.499491e+03	2.920105e+03	0	6.318946e-04
9.200000e+08	9.495061e+12	0.000000e+00	7.338129e-01	1.606840e+14	2.690103e+14	5.075915e+13	6.725336e+03	4.492795e+03	2.915759e+03	0	6.294723e-04
9.300000e+08	9.386941e+12	0.000000e+00	7.338129e-01	1.590679e+14	2.667636e+14	5.052792e+13	6.712190e+03	4.486143e+03	2.911443e+03	0	6.270740e-04
9.400000e+08	9.280690e+12	0.000000e+00	7.338129e-01	1.574794e+14	2.645460e+14	5.029827e+13	6.699176e+03	4.479537e+03	2.907155e+03	0	6.246990e-04
9.500000e+08	9.176261e+12	0.000000e+00	7.338129e-01	1.559179e+14	2.623569e+14	5.007019e+13	6.686291e+03	4.472977e+03	2.902898e+03	0	6.223471e-04
9.600000e+08	9.073611e+12	0.000000e+00	7.338129e-01	1.543826e+14	2.601960e+14	4.984366e+13	6.673533e+03	4.466462e+03	2.898669e+03	0	6.200178e-04
9.700000e+08	8.972696e+12	0.000000e+00	7.338129e-01	1.528730e+14	2.580631e+14	4.961868e+13	6.660901e+03	4.459992e+03	2.894471e+03	0	6.177106e-04
9.800000e+08	8.873474e+12	0.000000e+00	7.338129e-01	1.513884e+14	2.559578e+14	4.939523e+13	6.648391e+03	4.453567e+03	2.890301e+03	0	6.154252e-04
9.900000e+08	8.775905e+12	0.000000e+00	7.338129e-01	1.499283e+14	2.538798e+14	4.917329e+13	6.636003e+03	4.447188e+03	2.886161e+03	0	6.131613e-04
1.000000e+09	8.679949e+12	0.000000e+00	7.338129e-01	1.484920e+14	2.518287e+14	4.895286e+13	6.623733e+03	4.440854e+03	2.882050e+03	0	6.109183e-04
1.010000e+09	8.585570e+12	0.000000e+00	7.338129e-01	1.470790e+14	2.498041e+14	4.873393e+13	6.611581e+03	4.434564e+03	2.877969e+03	0	6.086960e-04
1.020000e+09	8.492729e+12	0.000000e+00	7.338129e-01	1.456887e+14	2.478057e+14	4.851648e+13	6.599544e+03	4.428320e+03	2.873916e+03	0	6.064940e-04
1.030000e+09	8.401392e+12	0.000000e+00	7.338129e-01	1.443208e+14	2.458332e+14	4.830050e+13	6.587620e+03	4.422120e+03	2.869892e+03	0	6.043119e-04
1.040000e+09	8.311525e+12	0.000000e+00	7.338129e-01	1.429745e+14	2.438860e+14	4.808598e+13	6.575807e+03	4.415964e+03	2.865897e+03	0	6.021495e-04
1.050000e+09	8.223093e+12	0.000000e+00	7.338129e-01	1.416495e+14	2.419641e+14	4.787291e+13	6.564105e+03	4.409852e+03	2.861931e+03	0	6.000063e-04
1.060000e+09	8.136065e+12	0.000000e+00	7.338129e-01	1.403453e+14	2.400669e+14	4.766128e+13	6.552511e+03	4.403784e+03	2.857992e+03	0	5.978821e-04
1.070000e+09	8.050409e+12	0.000000e+00	7.338129e-01	1.390613e+14	2.381940e+14	4.745107e+13	6.541023e+03	4.397759e+03	2.854083e+03	0	5.957765e-04
1.080000e+09	7.966094e+12	0.000000e+00	7.338129e-01	1.377973e+14	2.363452e+14	4.724228e+13	6.529639e+03	4.391778e+03	2.850201e+03	0	5.936893e-04
1.090000e+09	7.883091e+12	0.000000e+00	7.338129e-01	1.365526e+14	2.345201e+14	4.703489e+13	6.518359e+03	4.385840e+03	2.846347e+03	0	5.916201e-04
1.100000e+09	7.801372e+12	0.000000e+00	7.338129e-01	1.353270e+14	2.327183e+14	4.682889e+13	6.507180e+03	4.379944e+03	2.842520e+03	0	5.895687e-04
1.110000e+09	7.720908e+12	0.000000e+00	7.338129e-01	1.341199e+14	2.309394e+14	4.662428e+13	6.496102e+03	4.374090e+03	2.838721e+03	0	5.875347e-04
1.120000e+09	7.641672e+12	0.000000e+00	7.338129e-01	1.329310e+14	2.291832e+14	4.642103e+13	6.485121e+03	4.368278e+03	2.834950e+03	0	5.855179e-04
1.130000e+09	7.563638e+12	0.000000e+00	7.338129e-01	1.317599e+14	2.274492e+14	4.621915e+13	6.474238e+03	4.362508e+03	2.831205e+03	0	5.835181e-04
1.140000e+09	7.486781e+12	0.000000e+00	7.338129e-01	1.306063e+14	2.257372e+14	4.601861e+13	6.463451e+03	4.356779e+03	2.827487e+03	0	5.815349e-04
1.150000e+09	7.411075e+12	0.000000e+00	7.338129e-01	1.294697e+14	2.240467e+14	4.581942e+13	6.452757e+03	4.351091e+03	2.823796e+03	0	5.795681e-04
1.160000e+09	7.336497e+12	0.000000e+00	7.338129e-01	1.283498e+14	2.223775e+14	4.562155e+13	6.442156e+03	4.345444e+03	2.820130e+03	0	5.776175e-04
1.170000e+09	7.263022e+12	0.000000e+00	7.338129e-01	1.272462e+14	2.207292e+14	4.542500e+13	6.431647e+03	4.339836e+03	2.816491e+03	0	5.756827e-04
1.180000e+09	7.190628e+12	0.000000e+00	7.338129e-01	1.261587e+14	2.191014e+14	4.522976e+13	6.421227e+03	4.334269e+03	2.812878e+03	0	5.737636e-04
1.190000e+09	7.119293e+12	0.000000e+00	7.338129e-01	1.250869e+14	2.174939e+14	4.503582e+13	6.410897e+03	4.328741e+03	2.809291e+03	0	5.718600e-04
1.200000e+09	7.048996e+12	0.000000e+00	7.338129e-01	1.240304e+14	2.159064e+14	4.484316e+13	6.400654e+03	4.323252e+03	2.805728e+03	0	5.699715e-04
1.210000e+09	6.979714e+12	0.000000e+00	7.338129e-01	1.229890e+14	2.143385e+14	4.465178e+13	6.390497e+03	4.317802e+03	2.802191e+03	0	5.680980e-04
1.220000e+09	6.911428e+12	0.000000e+00	7.338129e-01	1.219623e+14	2.127900e+14	4.446167e+13	6.380425e+03	4.312390e+03	2.798679e+03	0	5.662393e-04
1.230000e+09	6.844117e+12	0.000000e+00	7.338129e-01	1.209502e+14	2.112604e+14	4.427282e+13	6.370436e+03	4.307016e+03	2.795191e+03	0	5.643951e-04
1.240000e+09	6.777763e+12	0.000000e+00	7.338129e-01	1.199522e+14	2.097495e+14	4.408522e+13	6.360531e+03	4.301679e+03	2.791728e+03	0	5.625652e-04
1.250000e+09	6.712346e+12	0.000000e+00	7.338129e-01	1.189681e+14	2.082570e+14	4.389885e+13	6.350707e+03	4.296380e+03	2.788289e+03	0	5.607494e-04
1.260000e+09	6.647847e+12	0.000000e+00	7.338129e-01	1.179976e+14	2.067827e+14	4.371372e+13	6.340963e+03	4.291118e+03	2.784874e+03	0	5.589476e-04
1.270000e+09	6.584249e+12	0.000000e+00	7.338129e-01	1.170405e+14	2.053261e+14	4.352980e+13	6.331299e+03	4.285892e+03	2.781482e+03	0	5.571594e-04
1.280000e+09	6.521535e+12	0.000000e+00	7.338129e-01	1.160965e+14	2.038872e+14	4.334709e+13	6.321712e+03	4.280703e+03	2.778114e+03	0	5.553848e-04
1.290000e+09	6.459686e+12	0.000000e+00	7.338129e-01	1.151653e+14	2.024654e+14	4.316558e+13	6.312203e+03	4.275549e+03	2.774770e+03	0	5.536235e-04
1.300000e+09	6.398687e+12	0.000000e+00	7.338129e-01	1.142468e+14	2.010607e+14	4.298527e+13	6.302770e+03	4.270431e+03	2.771448e+03	0	5.518754e-04
1.310000e+09	6.338522e+12	0.000000e+00	7.338129e-01	1.133406e+14	1.996727e+14	4.280613e+13	6.293412e+03	4.265347e+03	2.768149e+03	0	5.501402e-04
1.320000e+09	6.279173e+12	0.000000e+00	7.338129e-01	1.124465e+14	1.983012e+14	4.262817e+13	6.284127e+03	4.260299e+03	2.764872e+03	0	5.484178e-04
1.330000e+09	6.220627e+12	0.000000e+00	7.338129e-01	1.115644e+14	1.969458e+14	4.245138e+13	6.274916e+03	4.255284e+03	2.761618e+03	0	5.467080e-04
1.340000e+09	6.162868e+12	0.000000e+00	7.338129e-01	1.106939e+14	1.956064e+14	4.227574e+13	6.265777e+03	4.250304e+03	2.758386e+03	0	5.450107e-04
1.350000e+09	6.105880e+12	0.000000e+00	7.338129e-01	1.098349e+14	1.942827e+14	4.210124e+13	6.256709e+03	4.245357e+03	2.755176e+03	0	5.433256e-04
1.360000e+09	6.049651e+12	0.000000e+00	7.338129e-01	1.089872e+14	1.929744e+14	4.192788e+13	6.247711e+03	4.240444e+03	2.751987e+03	0	5.416526e-04
