#t		Qconv[W]	Ri[Rp]		R*[Rp]		Qc[W]		Qm[W]		Qr[W]		Tcmb[K]		Tl[K]		Tup[K]		RiFlag		Bs[T]
0.000000e+00	8.106866e+13	0.000000e+00	7.372263e-01	9.712613e+14	6.962806e+13	1.444676e+14	1.145650e+04	4.013155e+03	2.534341e+03	0	1.247518e-03
1.000000e+07	8.067476e+13	0.000000e+00	7.372263e-01	9.667871e+14	7.820556e+13	1.436672e+14	1.142013e+04	4.082281e+03	2.577995e+03	0	1.245494e-03
2.000000e+07	8.024019e+13	0.000000e+00	7.372263e-01	9.619007e+14	8.743352e+13	1.428727e+14	1.138393e+04	4.150467e+03	2.621055e+03	0	1.243254e-03
3.000000e+07	7.976609e+13	0.000000e+00	7.372263e-01	9.566140e+14	9.731265e+13	1.420842e+14	1.134791e+04	4.217641e+03	2.663476e+03	0	1.240800e-03
4.000000e+07	7.925373e+13	0.000000e+00	7.372263e-01	9.509400e+14	1.078381e+14	1.413015e+14	1.131209e+04	4.283736e+03	2.705215e+03	0	1.238138e-03
5.000000e+07	7.870455e+13	0.000000e+00	7.372263e-01	9.448937e+14	1.189993e+14	1.405247e+14	1.127648e+04	4.348682e+03	2.746230e+03	0	1.235271e-03
6.000000e+07	7.812012e+13	0.000000e+00	7.372263e-01	9.384912e+14	1.307797e+14	1.397537e+14	1.124109e+04	4.412415e+03	2.786477e+03	0	1.232206e-03
7.000000e+07	7.750214e+13	0.000000e+00	7.372263e-01	9.317499e+14	1.431570e+14	1.389884e+14	1.120595e+04	4.474869e+03	2.825918e+03	0	1.228949e-03
8.000000e+07	7.685243e+13	0.000000e+00	7.372263e-01	9.246886e+14	1.561032e+14	1.382289e+14	1.117105e+04	4.535985e+03	2.864513e+03	0	1.225505e-03
9.000000e+07	7.617292e+13	0.000000e+00	7.372263e-01	9.173271e+14	1.695846e+14	1.374749e+14	1.113642e+04	4.595705e+03	2.902227e+03	0	1.221882e-03
1.000000e+08	7.546561e+13	0.000000e+00	7.372263e-01	9.096860e+14	1.835625e+14	1.367266e+14	1.110206e+04	4.653975e+03	2.939025e+03	0	1.218088e-03
1.100000e+08	7.473261e+13	0.000000e+00	7.372263e-01	9.017867e+14	1.979933e+14	1.359838e+14	1.106799e+04	4.710746e+03	2.974876e+03	0	1.214132e-03
1.200000e+08	7.397605e+13	0.000000e+00	7.372263e-01	8.936512e+14	2.128290e+14	1.352465e+14	1.103422e+04	4.765971e+03	3.009751e+03	0	1.210021e-03
1.300000e+08	7.319812e+13	0.000000e+00	7.372263e-01	8.853019e+14	2.280178e+14	1.345147e+14	1.100074e+04	4.819611e+03	3.043625e+03	0	1.205764e-03
1.400000e+08	7.240104e+13	0.000000e+00	7.372263e-01	8.767614e+14	2.435052e+14	1.337883e+14	1.096758e+04	4.871630e+03	3.076476e+03	0	1.201372e-03
1.500000e+08	7.158701e+13	0.000000e+00	7.372263e-01	8.680524e+14	2.592337e+14	1.330672e+14	1.093474e+04	4.921998e+03	3.108283e+03	0	1.196852e-03
1.600000e+08	7.075825e+13	0.000000e+00	7.372263e-01	8.591973e+14	2.751444e+14	1.323515e+14	1.090222e+04	4.970691e+03	3.139033e+03	0	1.192216e-03
1.700000e+08	6.991692e+13	0.000000e+00	7.372263e-01	8.502185e+14	2.911772e+14	1.316411e+14	1.087004e+04	5.017687e+03	3.168712e+03	0	1.187472e-03
1.800000e+08	6.906515e+13	0.000000e+00	7.372263e-01	8.411376e+14	3.072718e+14	1.309359e+14	1.083818e+04	5.062974e+03	3.197311e+03	0	1.182630e-03
1.900000e+08	6.820502e+13	0.000000e+00	7.372263e-01	8.319758e+14	3.233681e+14	1.302359e+14	1.080667e+04	5.106543e+03	3.224825e+03	0	1.177700e-03
2.000000e+08	6.733853e+13	0.000000e+00	7.372263e-01	8.227536e+14	3.394072e+14	1.295411e+14	1.077550e+04	5.148392e+03	3.251253e+03	0	1.172691e-03
2.100000e+08	6.646759e+13	0.000000e+00	7.372263e-01	8.134905e+14	3.553318e+14	1.288513e+14	1.074468e+04	5.188521e+03	3.276594e+03	0	1.167613e-03
2.200000e+08	6.559404e+13	0.000000e+00	7.372263e-01	8.042051e+14	3.710869e+14	1.281667e+14	1.071420e+04	5.226937e+03	3.300855e+03	0	1.162476e-03
2.300000e+08	6.471961e+13	0.000000e+00	7.372263e-01	7.949151e+14	3.866198e+14	1.274870e+14	1.068406e+04	5.263654e+03	3.324042e+03	0	1.157287e-03
2.400000e+08	6.384591e+13	0.000000e+00	7.372263e-01	7.856371e+14	4.018817e+14	1.268124e+14	1.065428e+04	5.298687e+03	3.346166e+03	0	1.152056e-03
2.500000e+08	6.297446e+13	0.000000e+00	7.372263e-01	7.763863e+14	4.168266e+14	1.261426e+14	1.062484e+04	5.332057e+03	3.367239e+03	0	1.146790e-03
2.600000e+08	6.210666e+13	0.000000e+00	7.372263e-01	7.671772e+14	4.314126e+14	1.254778e+14	1.059574e+04	5.363788e+03	3.387278e+03	0	1.141498e-03
2.700000e+08	6.124380e+13	0.000000e+00	7.372263e-01	7.580227e+14	4.456016e+14	1.248179e+14	1.056699e+04	5.393909e+03	3.406299e+03	0	1.136187e-03
2.800000e+08	6.038705e+13	0.000000e+00	7.372263e-01	7.489347e+14	4.593600e+14	1.241627e+14	1.053858e+04	5.422451e+03	3.424324e+03	0	1.130864e-03
2.900000e+08	5.953747e+13	0.000000e+00	7.372263e-01	7.399241e+14	4.726579e+14	1.235124e+14	1.051051e+04	5.449449e+03	3.441373e+03	0	1.125536e-03
3.000000e+08	5.869601e+13	0.000000e+00	7.372263e-01	7.310005e+14	4.854699e+14	1.228667e+14	1.048278e+04	5.474939e+03	3.457470e+03	0	1.120208e-03
3.100000e+08	5.786351e+13	0.000000e+00	7.372263e-01	7.221724e+14	4.977748e+14	1.222258e+14	1.045538e+04	5.498960e+03	3.472640e+03	0	1.114887e-03
3.200000e+08	5.704070e+13	0.000000e+00	7.372263e-01	7.134473e+14	5.095550e+14	1.215896e+14	1.042831e+04	5.521553e+03	3.486907e+03	0	1.109577e-03
3.300000e+08	5.622825e+13	0.000000e+00	7.372263e-01	7.048316e+14	5.207971e+14	1.209580e+14	1.040157e+04	5.542762e+03	3.500301e+03	0	1.104284e-03
3.400000e+08	5.542668e+13	0.000000e+00	7.372263e-01	6.963311e+14	5.314916e+14	1.203309e+14	1.037515e+04	5.562628e+03	3.512846e+03	0	1.099011e-03
3.500000e+08	5.463647e+13	0.000000e+00	7.372263e-01	6.879502e+14	5.416320e+14	1.197084e+14	1.034905e+04	5.581197e+03	3.524573e+03	0	1.093763e-03
3.600000e+08	5.385799e+13	0.000000e+00	7.372263e-01	6.796929e+14	5.512151e+14	1.190905e+14	1.032326e+04	5.598515e+03	3.535509e+03	0	1.088544e-03
3.700000e+08	5.309156e+13	0.000000e+00	7.372263e-01	6.715621e+14	5.602413e+14	1.184770e+14	1.029777e+04	5.614625e+03	3.545683e+03	0	1.083355e-03
3.800000e+08	5.233741e+13	0.000000e+00	7.372263e-01	6.635603e+14	5.687129e+14	1.178679e+14	1.027260e+04	5.629575e+03	3.555124e+03	0	1.078201e-03
3.900000e+08	5.159572e+13	0.000000e+00	7.372263e-01	6.556892e+14	5.766355e+14	1.172632e+14	1.024772e+04	5.643410e+03	3.563861e+03	0	1.073084e-03
4.000000e+08	5.086659e+13	0.000000e+00	7.372263e-01	6.479499e+14	5.840162e+14	1.166629e+14	1.022313e+04	5.656174e+03	3.571921e+03	0	1.068005e-03
4.100000e+08	5.015011e+13	0.000000e+00	7.372263e-01	6.403430e+14	5.908644e+14	1.160670e+14	1.019884e+04	5.667912e+03	3.579334e+03	0	1.062967e-03
4.200000e+08	4.944628e+13	0.000000e+00	7.372263e-01	6.328686e+14	5.971911e+14	1.154753e+14	1.017482e+04	5.678669e+03	3.586128e+03	0	1.057971e-03
4.300000e+08	4.875508e+13	0.000000e+00	7.372263e-01	6.255264e+14	6.030092e+14	1.148879e+14	1.015109e+04	5.688488e+03	3.592328e+03	0	1.053018e-03
4.400000e+08	4.807646e+13	0.000000e+00	7.372263e-01	6.183159e+14	6.083319e+14	1.143047e+14	1.012764e+04	5.697411e+03	3.597963e+03	0	1.048109e-03
4.500000e+08	4.741033e+13	0.000000e+00	7.372263e-01	6.112360e+14	6.131744e+14	1.137257e+14	1.010445e+04	5.705480e+03	3.603059e+03	0	1.043246e-03
4.600000e+08	4.675657e+13	0.000000e+00	7.372263e-01	6.042854e+14	6.175523e+14	1.131509e+14	1.008152e+04	5.712734e+03	3.607640e+03	0	1.038429e-03
4.700000e+08	4.611503e+13	0.000000e+00	7.372263e-01	5.974626e+14	6.214816e+14	1.125802e+14	1.005886e+04	5.719214e+03	3.611732e+03	0	1.033657e-03
4.800000e+08	4.548555e+13	0.000000e+00	7.372263e-01	5.907660e+14	6.249790e+14	1.120136e+14	1.003645e+04	5.724956e+03	3.615358e+03	0	1.028933e-03
4.900000e+08	4.486796e+13	0.000000e+00	7.372263e-01	5.841936e+14	6.280618e+14	1.114510e+14	1.001429e+04	5.729998e+03	3.618542e+03	0	1.024255e-03
5.000000e+08	4.426206e+13	0.000000e+00	7.372263e-01	5.777434e+14	6.307471e+14	1.108925e+14	9.992381e+03	5.734376e+03	3.621307e+03	0	1.019623e-03
5.100000e+08	4.366765e+13	0.000000e+00	7.372263e-01	5.714133e+14	6.330523e+14	1.103379e+14	9.970710e+03	5.738122e+03	3.623673e+03	0	1.015038e-03
5.200000e+08	4.308451e+13	0.000000e+00	7.372263e-01	5.652010e+14	6.349942e+14	1.097873e+14	9.949275e+03	5.741272e+03	3.625661e+03	0	1.010500e-03
5.300000e+08	4.251241e+13	0.000000e+00	7.372263e-01	5.591042e+14	6.365905e+14	1.092407e+14	9.928073e+03	5.743855e+03	3.627293e+03	0	1.006007e-03
5.400000e+08	4.195114e+13	0.000000e+00	7.372263e-01	5.531206e+14	6.378577e+14	1.086979e+14	9.907098e+03	5.745902e+03	3.628585e+03	0	1.001560e-03
5.500000e+08	4.140047e+13	0.000000e+00	7.372263e-01	5.472477e+14	6.388123e+14	1.081590e+14	9.886348e+03	5.747442e+03	3.629558e+03	0	9.971585e-04
5.600000e+08	4.086015e+13	0.000000e+00	7.372263e-01	5.414831e+14	6.394709e+14	1.076239e+14	9.865817e+03	5.748504e+03	3.630229e+03	0	9.928016e-04
5.700000e+08	4.032997e+13	0.000000e+00	7.372263e-01	5.358245e+14	6.398491e+14	1.070926e+14	9.845501e+03	5.749113e+03	3.630613e+03	0	9.884888e-04
5.800000e+08	3.980967e+13	0.000000e+00	7.372263e-01	5.302693e+14	6.399622e+14	1.065651e+14	9.825397e+03	5.749295e+03	3.630728e+03	0	9.842196e-04
5.900000e+08	3.929904e+13	0.000000e+00	7.372263e-01	5.248152e+14	6.398252e+14	1.060413e+14	9.805501e+03	5.749075e+03	3.630589e+03	0	9.799933e-04
6.000000e+08	3.879785e+13	0.000000e+00	7.372263e-01	5.194597e+14	6.394527e+14	1.055213e+14	9.785809e+03	5.748474e+03	3.630210e+03	0	9.758094e-04
6.100000e+08	3.830585e+13	0.000000e+00	7.372263e-01	5.142006e+14	6.388585e+14	1.050049e+14	9.766317e+03	5.747516e+03	3.629605e+03	0	9.716671e-04
6.200000e+08	3.782284e+13	0.000000e+00	7.372263e-01	5.090354e+14	6.380559e+14	1.044922e+14	9.747022e+03	5.746222e+03	3.628787e+03	0	9.675658e-04
6.300000e+08	3.734859e+13	0.000000e+00	7.372263e-01	5.039620e+14	6.370578e+14	1.039831e+14	9.727921e+03	5.744610e+03	3.627770e+03	0	9.635048e-04
6.400000e+08	3.688289e+13	0.000000e+00	7.372263e-01	4.989780e+14	6.358767e+14	1.034775e+14	9.709009e+03	5.742700e+03	3.626563e+03	0	9.594833e-04
6.500000e+08	3.642552e+13	0.000000e+00	7.372263e-01	4.940812e+14	6.345243e+14	1.029756e+14	9.690283e+03	5.740510e+03	3.625181e+03	0	9.555007e-04
6.600000e+08	3.597627e+13	0.000000e+00	7.372263e-01	4.892696e+14	6.330119e+14	1.024771e+14	9.671741e+03	5.738057e+03	3.623631e+03	0	9.515563e-04
6.700000e+08	3.553494e+13	0.000000e+00	7.372263e-01	4.845409e+14	6.313504e+14	1.019822e+14	9.653378e+03	5.735357e+03	3.621926e+03	0	9.476493e-04
6.800000e+08	3.510134e+13	0.000000e+00	7.372263e-01	4.798932e+14	6.295498e+14	1.014908e+14	9.635193e+03	5.732426e+03	3.620075e+03	0	9.437791e-04
6.900000e+08	3.467527e+13	0.000000e+00	7.372263e-01	4.753244e+14	6.276200e+14	1.010027e+14	9.617181e+03	5.729277e+03	3.618087e+03	0	9.399450e-04
7.000000e+08	3.425655e+13	0.000000e+00	7.372263e-01	4.708325e+14	6.255703e+14	1.005182e+14	9.599340e+03	5.725925e+03	3.615970e+03	0	9.361462e-04
7.100000e+08	3.384499e+13	0.000000e+00	7.372263e-01	4.664158e+14	6.234093e+14	1.000370e+14	9.581668e+03	5.722382e+03	3.613732e+03	0	9.323821e-04
7.200000e+08	3.344041e+13	0.000000e+00	7.372263e-01	4.620723e+14	6.211457e+14	9.955915e+13	9.564161e+03	5.718661e+03	3.611383e+03	0	9.286520e-04
7.300000e+08	3.304265e+13	0.000000e+00	7.372263e-01	4.578003e+14	6.187871e+14	9.908466e+13	9.546816e+03	5.714774e+03	3.608928e+03	0	9.249553e-04
7.400000e+08	3.265153e+13	0.000000e+00	7.372263e-01	4.535980e+14	6.163411e+14	9.861349e+13	9.529631e+03	5.710731e+03	3.606375e+03	0	9.212913e-04
7.500000e+08	3.226690e+13	0.000000e+00	7.372263e-01	4.494638e+14	6.138147e+14	9.814560e+13	9.512603e+03	5.706544e+03	3.603730e+03	0	9.176594e-04
7.600000e+08	3.188859e+13	0.000000e+00	7.372263e-01	4.453959e+14	6.112150e+14	9.768097e+13	9.495730e+03	5.702221e+03	3.601000e+03	0	9.140590e-04
7.700000e+08	3.151645e+13	0.000000e+00	7.372263e-01	4.413928e+14	6.085476e+14	9.721957e+13	9.479010e+03	5.697772e+03	3.598191e+03	0	9.104894e-04
7.800000e+08	3.115033e+13	0.000000e+00	7.372263e-01	4.374530e+14	6.058189e+14	9.676138e+13	9.462439e+03	5.693206e+03	3.595307e+03	0	9.069500e-04
7.900000e+08	3.079010e+13	0.000000e+00	7.372263e-01	4.335750e+14	6.030344e+14	9.630637e+13	9.446015e+03	5.688531e+03	3.592355e+03	0	9.034403e-04
8.000000e+08	3.043560e+13	0.000000e+00	7.372263e-01	4.297572e+14	6.001994e+14	9.585452e+13	9.429737e+03	5.683755e+03	3.589339e+03	0	8.999597e-04
8.100000e+08	3.008671e+13	0.000000e+00	7.372263e-01	4.259984e+14	5.973189e+14	9.540580e+13	9.413602e+03	5.678886e+03	3.586264e+03	0	8.965077e-04
8.200000e+08	2.974329e+13	0.000000e+00	7.372263e-01	4.222971e+14	5.943973e+14	9.496018e+13	9.397607e+03	5.673930e+03	3.583134e+03	0	8.930836e-04
8.300000e+08	2.940522e+13	0.000000e+00	7.372263e-01	4.186520e+14	5.914393e+14	9.451765e+13	9.381751e+03	5.668894e+03	3.579954e+03	0	8.896870e-04
8.400000e+08	2.907237e+13	0.000000e+00	7.372263e-01	4.150619e+14	5.884491e+14	9.407817e+13	9.366031e+03	5.663784e+03	3.576727e+03	0	8.863174e-04
8.500000e+08	2.874463e+13	0.000000e+00	7.372263e-01	4.115255e+14	5.854303e+14	9.364172e+13	9.350446e+03	5.658606e+03	3.573457e+03	0	8.829742e-04
8.600000e+08	2.842187e+13	0.000000e+00	7.372263e-01	4.080416e+14	5.823866e+14	9.320828e+13	9.334993e+03	5.653366e+03	3.570148e+03	0	8.796570e-04
8.700000e+08	2.810399e+13	0.000000e+00	7.372263e-01	4.046089e+14	5.793215e+14	9.277783e+13	9.319671e+03	5.648068e+03	3.566803e+03	0	8.763652e-04
8.800000e+08	2.779088e+13	0.000000e+00	7.372263e-01	4.012265e+14	5.762381e+14	9.235034e+13	9.304477e+03	5.642719e+03	3.563425e+03	0	8.730984e-04
8.900000e+08	2.748243e+13	0.000000e+00	7.372263e-01	3.978932e+14	5.731393e+14	9.192578e+13	9.289410e+03	5.637322e+03	3.560016e+03	0	8.698562e-04
9.000000e+08	2.717853e+13	0.000000e+00	7.372263e-01	3.946079e+14	5.700280e+14	9.150414e+13	9.274467e+03	5.631881e+03	3.556580e+03	0	8.666381e-04
9.100000e+08	2.687910e+13	0.000000e+00	7.372263e-01	3.913696e+14	5.669069e+14	9.108539e+13	9.259648e+03	5.626402e+03	3.553120e+03	0	8.634437e-04
9.200000e+08	2.658403e+13	0.000000e+00	7.372263e-01	3.881773e+14	5.637783e+14	9.066950e+13	9.244950e+03	5.620887e+03	3.549637e+03	0	8.602726e-04
9.300000e+08	2.629323e+13	0.000000e+00	7.372263e-01	3.850299e+14	5.606445e+14	9.025646e+13	9.230371e+03	5.615341e+03	3.546135e+03	0	8.571242e-04
9.400000e+08	2.600661e+13	0.000000e+00	7.372263e-01	3.819267e+14	5.575076e+14	8.984625e+13	9.215911e+03	5.609766e+03	3.542615e+03	0	8.539984e-04
9.500000e+08	2.572408e+13	0.000000e+00	7.372263e-01	3.788666e+14	5.543697e+14	8.943883e+13	9.201566e+03	5.604167e+03	3.539079e+03	0	8.508946e-04
9.600000e+08	2.544556e+13	0.000000e+00	7.372263e-01	3.758487e+14	5.512324e+14	8.903419e+13	9.187336e+03	5.598546e+03	3.535529e+03	0	8.478124e-04
9.700000e+08	2.517095e+13	0.000000e+00	7.372263e-01	3.728723e+14	5.480978e+14	8.863231e+13	9.173219e+03	5.592906e+03	3.531967e+03	0	8.447516e-04
9.800000e+08	2.490019e+13	0.000000e+00	7.372263e-01	3.699364e+14	5.449672e+14	8.823316e+13	9.159214e+03	5.587249e+03	3.528395e+03	0	8.417117e-04
9.900000e+08	2.463319e+13	0.000000e+00	7.372263e-01	3.670402e+14	5.418420e+14	8.783673e+13	9.145319e+03	5.581579e+03	3.524814e+03	0	8.386924e-04
1.000000e+09	2.436988e+13	0.000000e+00	7.372263e-01	3.641829e+14	5.387240e+14	8.744298e+13	9.131532e+03	5.575898e+03	3.521227e+03	0	8.356933e-04
1.010000e+09	2.411018e+13	0.000000e+00	7.372263e-01	3.613638e+14	5.356140e+14	8.705191e+13	9.117852e+03	5.570208e+03	3.517633e+03	0	8.327142e-04
1.020000e+09	2.385403e+13	0.000000e+00	7.372263e-01	3.585821e+14	5.325135e+14	8.666348e+13	9.104277e+03	5.564511e+03	3.514036e+03	0	8.297546e-04
1.030000e+09	2.360134e+13	0.000000e+00	7.372263e-01	3.558371e+14	5.294234e+14	8.627769e+13	9.090807e+03	5.558809e+03	3.510435e+03	0	8.268144e-04
1.040000e+09	2.335206e+13	0.000000e+00	7.372263e-01	3.531281e+14	5.263449e+14	8.589450e+13	9.077440e+03	5.553104e+03	3.506832e+03	0	8.238930e-04
1.050000e+09	2.310611e+13	0.000000e+00	7.372263e-01	3.504543e+14	5.232788e+14	8.551390e+13	9.064174e+03	5.547398e+03	3.503228e+03	0	8.209903e-04
1.060000e+09	2.286343e+13	0.000000e+00	7.372263e-01	3.478151e+14	5.202258e+14	8.513587e+13	9.051009e+03	5.541692e+03	3.499625e+03	0	8.181060e-04
1.070000e+09	2.262396e+13	0.000000e+00	7.372263e-01	3.452099e+14	5.171873e+14	8.476038e+13	9.037942e+03	5.535988e+03	3.496023e+03	0	8.152398e-04
1.080000e+09	2.238764e+13	0.000000e+00	7.372263e-01	3.426380e+14	5.141633e+14	8.438742e+13	9.024973e+03	5.530288e+03	3.492423e+03	0	8.123913e-04
1.090000e+09	2.215441e+13	0.000000e+00	7.372263e-01	3.400987e+14	5.111549e+14	8.401697e+13	9.012100e+03	5.524592e+03	3.488827e+03	0	8.095603e-04
1.100000e+09	2.192421e+13	0.000000e+00	7.372263e-01	3.375916e+14	5.081624e+14	8.364900e+13	8.999322e+03	5.518903e+03	3.485234e+03	0	8.067465e-04
1.110000e+09	2.169698e+13	0.000000e+00	7.372263e-01	3.351159e+14	5.051868e+14	8.328350e+13	8.986639e+03	5.513221e+03	3.481645e+03	0	8.039497e-04
1.120000e+09	2.147267e+13	0.000000e+00	7.372263e-01	3.326711e+14	5.022282e+14	8.292045e+13	8.974048e+03	5.507547e+03	3.478062e+03	0	8.011697e-04
1.130000e+09	2.125123e+13	0.000000e+00	7.372263e-01	3.302567e+14	4.992873e+14	8.255983e+13	8.961549e+03	5.501883e+03	3.474485e+03	0	7.984060e-04
1.140000e+09	2.103260e+13	0.000000e+00	7.372263e-01	3.278721e+14	4.963644e+14	8.220163e+13	8.949140e+03	5.496229e+03	3.470915e+03	0	7.956586e-04
1.150000e+09	2.081673e+13	0.000000e+00	7.372263e-01	3.255167e+14	4.934599e+14	8.184581e+13	8.936820e+03	5.490586e+03	3.467352e+03	0	7.929271e-04
1.160000e+09	2.060357e+13	0.000000e+00	7.372263e-01	3.231901e+14	4.905742e+14	8.149236e+13	8.924589e+03	5.484956e+03	3.463796e+03	0	7.902114e-04
1.170000e+09	2.039308e+13	0.000000e+00	7.372263e-01	3.208917e+14	4.877074e+14	8.114127e+13	8.912445e+03	5.479339e+03	3.460249e+03	0	7.875112e-04
1.180000e+09	2.018520e+13	0.000000e+00	7.372263e-01	3.186211e+14	4.848599e+14	8.079252e+13	8.900387e+03	5.473736e+03	3.456711e+03	0	7.848262e-04
1.190000e+09	1.997990e+13	0.000000e+00	7.372263e-01	3.163778e+14	4.820320e+14	8.044609e+13	8.888414e+03	5.468148e+03	3.453181e+03	0	7.821563e-04
1.200000e+09	1.977711e+13	0.000000e+00	7.372263e-01	3.141612e+14	4.792239e+14	8.010195e+13	8.876526e+03	5.462574e+03	3.449662e+03	0	7.795011e-04
1.210000e+09	1.957681e+13	0.000000e+00	7.372263e-01	3.119710e+14	4.764356e+14	7.976010e+13	8.864720e+03	5.457017e+03	3.446152e+03	0	7.768606e-04
1.220000e+09	1.937895e+13	0.000000e+00	7.372263e-01	3.098066e+14	4.736675e+14	7.942051e+13	8.852997e+03	5.451476e+03	3.442653e+03	0	7.742345e-04
1.230000e+09	1.918348e+13	0.000000e+00	7.372263e-01	3.076677e+14	4.709197e+14	7.908317e+13	8.841354e+03	5.445952e+03	3.439164e+03	0	7.716226e-04
1.240000e+09	1.899037e+13	0.000000e+00	7.372263e-01	3.055537e+14	4.681920e+14	7.874806e+13	8.829792e+03	5.440445e+03	3.435687e+03	0	7.690247e-04
1.250000e+09	1.879958e+13	0.000000e+00	7.372263e-01	3.034644e+14	4.654847e+14	7.841516e+13	8.818309e+03	5.434956e+03	3.432221e+03	0	7.664406e-04
1.260000e+09	1.861106e+13	0.000000e+00	7.372263e-01	3.013993e+14	4.627979e+14	7.808445e+13	8.806905e+03	5.429486e+03	3.428766e+03	0	7.638700e-04
1.270000e+09	1.842478e+13	0.000000e+00	7.372263e-01	2.993579e+14	4.601317e+14	7.775593e+13	8.795577e+03	5.424034e+03	3.425323e+03	0	7.613129e-04
1.280000e+09	1.824069e+13	0.000000e+00	7.372263e-01	2.973399e+14	4.574860e+14	7.742956e+13	8.784327e+03	5.418601e+03	3.421892e+03	0	7.587690e-04
1.290000e+09	1.805878e+13	0.000000e+00	7.372263e-01	2.953449e+14	4.548608e+14	7.710534e+13	8.773152e+03	5.413188e+03	3.418474e+03	0	7.562381e-04
1.300000e+09	1.787899e+13	0.000000e+00	7.372263e-01	2.933726e+14	4.522561e+14	7.678325e+13	8.762051e+03	5.407794e+03	3.415067e+03	0	7.537201e-04
1.310000e+09	1.770129e+13	0.000000e+00	7.372263e-01	2.914225e+14	4.496720e+14	7.646327e+13	8.751025e+03	5.402420e+03	3.411674e+03	0	7.512148e-04
1.320000e+09	1.752565e+13	0.000000e+00	7.372263e-01	2.894943e+14	4.471085e+14	7.614539e+13	8.740072e+03	5.397067e+03	3.408293e+03	0	7.487219e-04
1.330000e+09	1.735204e+13	0.000000e+00	7.372263e-01	2.875877e+14	4.445653e+14	7.582958e+13	8.729191e+03	5.391733e+03	3.404925e+03	0	7.462414e-04
1.340000e+09	1.718043e+13	0.000000e+00	7.372263e-01	2.857023e+14	4.420426e+14	7.551584e+13	8.718382e+03	5.386421e+03	3.401570e+03	0	7.437730e-04
1.350000e+09	1.701077e+13	0.000000e+00	7.372263e-01	2.838377e+14	4.395403e+14	7.520414e+13	8.707643e+03	5.381130e+03	3.398229e+03	0	7.413167e-04
1.360000e+09	1.684304e+13	0.000000e+00	7.372263e-01	2.819937e+14	4.370582e+14	7.489448e+13	8.696974e+03	5.375859e+03	3.394900e+03	0	7.388722e-04
