#t		Qconv[W]	Ri[Rp]		R*[Rp]		Qc[W]		Qm[W]		Qr[W]		Tcmb[K]		Tl[K]		Tup[K]		RiFlag		Bs[T]
0.000000e+00	1.631390e+14	0.000000e+00	7.226276e-01	1.824135e+15	6.316005e+13	2.225980e+14	1.494946e+04	4.640348e+03	2.716738e+03	0	1.571318e-03
1.000000e+07	1.629567e+14	0.000000e+00	7.226276e-01	1.821351e+15	7.227448e+13	2.213646e+14	1.490699e+04	4.728531e+03	2.768365e+03	0	1.570733e-03
2.000000e+07	1.626882e+14	0.000000e+00	7.226276e-01	1.817833e+15	8.229916e+13	2.201405e+14	1.486458e+04	4.816108e+03	2.819638e+03	0	1.569869e-03
3.000000e+07	1.623338e+14	0.000000e+00	7.226276e-01	1.813585e+15	9.327140e+13	2.189255e+14	1.482226e+04	4.903006e+03	2.870513e+03	0	1.568728e-03
4.000000e+07	1.618940e+14	0.000000e+00	7.226276e-01	1.808612e+15	1.052238e+14	2.177196e+14	1.478003e+04	4.989151e+03	2.920947e+03	0	1.567311e-03
5.000000e+07	1.613697e+14	0.000000e+00	7.226276e-01	1.802921e+15	1.181836e+14	2.165227e+14	1.473792e+04	5.074465e+03	2.970895e+03	0	1.565617e-03
6.000000e+07	1.607621e+14	0.000000e+00	7.226276e-01	1.796524e+15	1.321719e+14	2.153347e+14	1.469595e+04	5.158872e+03	3.020312e+03	0	1.563649e-03
7.000000e+07	1.600725e+14	0.000000e+00	7.226276e-01	1.789432e+15	1.472030e+14	2.141555e+14	1.465412e+04	5.242294e+03	3.069153e+03	0	1.561411e-03
8.000000e+07	1.593027e+14	0.000000e+00	7.226276e-01	1.781660e+15	1.632843e+14	2.129851e+14	1.461245e+04	5.324654e+03	3.117371e+03	0	1.558904e-03
9.000000e+07	1.584546e+14	0.000000e+00	7.226276e-01	1.773227e+15	1.804154e+14	2.118235e+14	1.457097e+04	5.405876e+03	3.164924e+03	0	1.556132e-03
1.000000e+08	1.575305e+14	0.000000e+00	7.226276e-01	1.764150e+15	1.985877e+14	2.106704e+14	1.452968e+04	5.485884e+03	3.211765e+03	0	1.553101e-03
1.100000e+08	1.565329e+14	0.000000e+00	7.226276e-01	1.754452e+15	2.177845e+14	2.095259e+14	1.448860e+04	5.564604e+03	3.257852e+03	0	1.549816e-03
1.200000e+08	1.554645e+14	0.000000e+00	7.226276e-01	1.744158e+15	2.379810e+14	2.083899e+14	1.444775e+04	5.641962e+03	3.303142e+03	0	1.546281e-03
1.300000e+08	1.543283e+14	0.000000e+00	7.226276e-01	1.733293e+15	2.591436e+14	2.072623e+14	1.440713e+04	5.717889e+03	3.347594e+03	0	1.542506e-03
1.400000e+08	1.531276e+14	0.000000e+00	7.226276e-01	1.721884e+15	2.812307e+14	2.061430e+14	1.436677e+04	5.792318e+03	3.391170e+03	0	1.538495e-03
1.500000e+08	1.518658e+14	0.000000e+00	7.226276e-01	1.709962e+15	3.041929e+14	2.050321e+14	1.432667e+04	5.865184e+03	3.433830e+03	0	1.534257e-03
1.600000e+08	1.505465e+14	0.000000e+00	7.226276e-01	1.697558e+15	3.279730e+14	2.039293e+14	1.428685e+04	5.936428e+03	3.475541e+03	0	1.529801e-03
1.700000e+08	1.491734e+14	0.000000e+00	7.226276e-01	1.684702e+15	3.525069e+14	2.028346e+14	1.424732e+04	6.005994e+03	3.516268e+03	0	1.525136e-03
1.800000e+08	1.477503e+14	0.000000e+00	7.226276e-01	1.671430e+15	3.777241e+14	2.017481e+14	1.420809e+04	6.073829e+03	3.555983e+03	0	1.520271e-03
1.900000e+08	1.462812e+14	0.000000e+00	7.226276e-01	1.657774e+15	4.035483e+14	2.006695e+14	1.416916e+04	6.139886e+03	3.594657e+03	0	1.515215e-03
2.000000e+08	1.447701e+14	0.000000e+00	7.226276e-01	1.643769e+15	4.298986e+14	1.995989e+14	1.413055e+04	6.204124e+03	3.632265e+03	0	1.509980e-03
2.100000e+08	1.432210e+14	0.000000e+00	7.226276e-01	1.629450e+15	4.566899e+14	1.985361e+14	1.409227e+04	6.266505e+03	3.668787e+03	0	1.504575e-03
2.200000e+08	1.416381e+14	0.000000e+00	7.226276e-01	1.614851e+15	4.838339e+14	1.974812e+14	1.405432e+04	6.326999e+03	3.704204e+03	0	1.499011e-03
2.300000e+08	1.400252e+14	0.000000e+00	7.226276e-01	1.600007e+15	5.112405e+14	1.964340e+14	1.401671e+04	6.385579e+03	3.738500e+03	0	1.493299e-03
2.400000e+08	1.383864e+14	0.000000e+00	7.226276e-01	1.584952e+15	5.388183e+14	1.953944e+14	1.397944e+04	6.442226e+03	3.771665e+03	0	1.487451e-03
2.500000e+08	1.367256e+14	0.000000e+00	7.226276e-01	1.569719e+15	5.664756e+14	1.943625e+14	1.394252e+04	6.496924e+03	3.803688e+03	0	1.481477e-03
2.600000e+08	1.350466e+14	0.000000e+00	7.226276e-01	1.554341e+15	5.941218e+14	1.933381e+14	1.390596e+04	6.549665e+03	3.834566e+03	0	1.475387e-03
2.700000e+08	1.333529e+14	0.000000e+00	7.226276e-01	1.538849e+15	6.216674e+14	1.923213e+14	1.386975e+04	6.600444e+03	3.864295e+03	0	1.469194e-03
2.800000e+08	1.316483e+14	0.000000e+00	7.226276e-01	1.523274e+15	6.490258e+14	1.913118e+14	1.383390e+04	6.649264e+03	3.892877e+03	0	1.462907e-03
2.900000e+08	1.299360e+14	0.000000e+00	7.226276e-01	1.507644e+15	6.761133e+14	1.903097e+14	1.379842e+04	6.696131e+03	3.920316e+03	0	1.456537e-03
3.000000e+08	1.282193e+14	0.000000e+00	7.226276e-01	1.491986e+15	7.028503e+14	1.893150e+14	1.376330e+04	6.741058e+03	3.946619e+03	0	1.450094e-03
3.100000e+08	1.265013e+14	0.000000e+00	7.226276e-01	1.476328e+15	7.291609e+14	1.883274e+14	1.372854e+04	6.784060e+03	3.971795e+03	0	1.443588e-03
3.200000e+08	1.247847e+14	0.000000e+00	7.226276e-01	1.460692e+15	7.549753e+14	1.873471e+14	1.369414e+04	6.825158e+03	3.995856e+03	0	1.437028e-03
3.300000e+08	1.230722e+14	0.000000e+00	7.226276e-01	1.445102e+15	7.802285e+14	1.863739e+14	1.366011e+04	6.864378e+03	4.018818e+03	0	1.430424e-03
3.400000e+08	1.213663e+14	0.000000e+00	7.226276e-01	1.429579e+15	8.048604e+14	1.854077e+14	1.362644e+04	6.901748e+03	4.040696e+03	0	1.423784e-03
3.500000e+08	1.196692e+14	0.000000e+00	7.226276e-01	1.414142e+15	8.288179e+14	1.844486e+14	1.359313e+04	6.937300e+03	4.061511e+03	0	1.417117e-03
3.600000e+08	1.179832e+14	0.000000e+00	7.226276e-01	1.398808e+15	8.520535e+14	1.834964e+14	1.356018e+04	6.971069e+03	4.081281e+03	0	1.410430e-03
3.700000e+08	1.163099e+14	0.000000e+00	7.226276e-01	1.383594e+15	8.745249e+14	1.825511e+14	1.352759e+04	7.003094e+03	4.100031e+03	0	1.403730e-03
3.800000e+08	1.146511e+14	0.000000e+00	7.226276e-01	1.368515e+15	8.961965e+14	1.816127e+14	1.349535e+04	7.033415e+03	4.117782e+03	0	1.397025e-03
3.900000e+08	1.130084e+14	0.000000e+00	7.226276e-01	1.353582e+15	9.170388e+14	1.806810e+14	1.346346e+04	7.062075e+03	4.134561e+03	0	1.390321e-03
4.000000e+08	1.113831e+14	0.000000e+00	7.226276e-01	1.338807e+15	9.370274e+14	1.797561e+14	1.343192e+04	7.089118e+03	4.150394e+03	0	1.383623e-03
4.100000e+08	1.097763e+14	0.000000e+00	7.226276e-01	1.324200e+15	9.561431e+14	1.788378e+14	1.340072e+04	7.114589e+03	4.165307e+03	0	1.376938e-03
4.200000e+08	1.081891e+14	0.000000e+00	7.226276e-01	1.309771e+15	9.743732e+14	1.779261e+14	1.336986e+04	7.138537e+03	4.179327e+03	0	1.370269e-03
4.300000e+08	1.066223e+14	0.000000e+00	7.226276e-01	1.295525e+15	9.917083e+14	1.770211e+14	1.333933e+04	7.161008e+03	4.192483e+03	0	1.363622e-03
4.400000e+08	1.050766e+14	0.000000e+00	7.226276e-01	1.281469e+15	1.008145e+15	1.761225e+14	1.330914e+04	7.182052e+03	4.204803e+03	0	1.357001e-03
4.500000e+08	1.035528e+14	0.000000e+00	7.226276e-01	1.267608e+15	1.023682e+15	1.752304e+14	1.327927e+04	7.201717e+03	4.216316e+03	0	1.350409e-03
4.600000e+08	1.020512e+14	0.000000e+00	7.226276e-01	1.253947e+15	1.038326e+15	1.743447e+14	1.324973e+04	7.220051e+03	4.227050e+03	0	1.343850e-03
4.700000e+08	1.005722e+14	0.000000e+00	7.226276e-01	1.240487e+15	1.052081e+15	1.734653e+14	1.322050e+04	7.237105e+03	4.237034e+03	0	1.337326e-03
4.800000e+08	9.911606e+13	0.000000e+00	7.226276e-01	1.227232e+15	1.064961e+15	1.725923e+14	1.319158e+04	7.252926e+03	4.246297e+03	0	1.330841e-03
4.900000e+08	9.768301e+13	0.000000e+00	7.226276e-01	1.214182e+15	1.076979e+15	1.717254e+14	1.316298e+04	7.267562e+03	4.254866e+03	0	1.324396e-03
5.000000e+08	9.627313e+13	0.000000e+00	7.226276e-01	1.201339e+15	1.088150e+15	1.708648e+14	1.313467e+04	7.281062e+03	4.262770e+03	0	1.317993e-03
5.100000e+08	9.488643e+13	0.000000e+00	7.226276e-01	1.188702e+15	1.098493e+15	1.700104e+14	1.310667e+04	7.293472e+03	4.270035e+03	0	1.311635e-03
5.200000e+08	9.352287e+13	0.000000e+00	7.226276e-01	1.176270e+15	1.108028e+15	1.691620e+14	1.307896e+04	7.304837e+03	4.276689e+03	0	1.305321e-03
5.300000e+08	9.218234e+13	0.000000e+00	7.226276e-01	1.164044e+15	1.116778e+15	1.683197e+14	1.305154e+04	7.315204e+03	4.282758e+03	0	1.299055e-03
5.400000e+08	9.086470e+13	0.000000e+00	7.226276e-01	1.152021e+15	1.124764e+15	1.674834e+14	1.302440e+04	7.324615e+03	4.288268e+03	0	1.292835e-03
5.500000e+08	8.956973e+13	0.000000e+00	7.226276e-01	1.140200e+15	1.132011e+15	1.666530e+14	1.299754e+04	7.333114e+03	4.293244e+03	0	1.286664e-03
5.600000e+08	8.829720e+13	0.000000e+00	7.226276e-01	1.128577e+15	1.138546e+15	1.658286e+14	1.297096e+04	7.340742e+03	4.297710e+03	0	1.280542e-03
5.700000e+08	8.704683e+13	0.000000e+00	7.226276e-01	1.117152e+15	1.144391e+15	1.650100e+14	1.294464e+04	7.347539e+03	4.301689e+03	0	1.274469e-03
5.800000e+08	8.581833e+13	0.000000e+00	7.226276e-01	1.105921e+15	1.149574e+15	1.641972e+14	1.291859e+04	7.353545e+03	4.305206e+03	0	1.268445e-03
5.900000e+08	8.461135e+13	0.000000e+00	7.226276e-01	1.094881e+15	1.154121e+15	1.633901e+14	1.289281e+04	7.358798e+03	4.308281e+03	0	1.262470e-03
6.000000e+08	8.342557e+13	0.000000e+00	7.226276e-01	1.084029e+15	1.158058e+15	1.625888e+14	1.286728e+04	7.363334e+03	4.310936e+03	0	1.256545e-03
6.100000e+08	8.226060e+13	0.000000e+00	7.226276e-01	1.073362e+15	1.161411e+15	1.617932e+14	1.284200e+04	7.367188e+03	4.313193e+03	0	1.250668e-03
6.200000e+08	8.111608e+13	0.000000e+00	7.226276e-01	1.062876e+15	1.164205e+15	1.610031e+14	1.281697e+04	7.370394e+03	4.315070e+03	0	1.244841e-03
6.300000e+08	7.999163e+13	0.000000e+00	7.226276e-01	1.052569e+15	1.166468e+15	1.602187e+14	1.279218e+04	7.372986e+03	4.316587e+03	0	1.239062e-03
6.400000e+08	7.888684e+13	0.000000e+00	7.226276e-01	1.042436e+15	1.168222e+15	1.594398e+14	1.276764e+04	7.374993e+03	4.317763e+03	0	1.233331e-03
6.500000e+08	7.780132e+13	0.000000e+00	7.226276e-01	1.032475e+15	1.169495e+15	1.586663e+14	1.274333e+04	7.376447e+03	4.318614e+03	0	1.227648e-03
6.600000e+08	7.673467e+13	0.000000e+00	7.226276e-01	1.022681e+15	1.170308e+15	1.578983e+14	1.271925e+04	7.377377e+03	4.319158e+03	0	1.222012e-03
6.700000e+08	7.568649e+13	0.000000e+00	7.226276e-01	1.013051e+15	1.170687e+15	1.571357e+14	1.269540e+04	7.377809e+03	4.319411e+03	0	1.216422e-03
6.800000e+08	7.465637e+13	0.000000e+00	7.226276e-01	1.003582e+15	1.170653e+15	1.563785e+14	1.267177e+04	7.377770e+03	4.319388e+03	0	1.210878e-03
6.900000e+08	7.364393e+13	0.000000e+00	7.226276e-01	9.942697e+14	1.170229e+15	1.556266e+14	1.264836e+04	7.377286e+03	4.319105e+03	0	1.205380e-03
7.000000e+08	7.264876e+13	0.000000e+00	7.226276e-01	9.851112e+14	1.169436e+15	1.548799e+14	1.262517e+04	7.376381e+03	4.318575e+03	0	1.199925e-03
7.100000e+08	7.167048e+13	0.000000e+00	7.226276e-01	9.761028e+14	1.168296e+15	1.541385e+14	1.260219e+04	7.375078e+03	4.317812e+03	0	1.194515e-03
7.200000e+08	7.070870e+13	0.000000e+00	7.226276e-01	9.672412e+14	1.166828e+15	1.534023e+14	1.257942e+04	7.373398e+03	4.316829e+03	0	1.189148e-03
7.300000e+08	6.976304e+13	0.000000e+00	7.226276e-01	9.585231e+14	1.165051e+15	1.526712e+14	1.255686e+04	7.371363e+03	4.315637e+03	0	1.183823e-03
7.400000e+08	6.883313e+13	0.000000e+00	7.226276e-01	9.499452e+14	1.162983e+15	1.519452e+14	1.253450e+04	7.368993e+03	4.314249e+03	0	1.178539e-03
7.500000e+08	6.791861e+13	0.000000e+00	7.226276e-01	9.415043e+14	1.160643e+15	1.512242e+14	1.251234e+04	7.366306e+03	4.312676e+03	0	1.173296e-03
7.600000e+08	6.701911e+13	0.000000e+00	7.226276e-01	9.331972e+14	1.158047e+15	1.505083e+14	1.249038e+04	7.363321e+03	4.310929e+03	0	1.168094e-03
7.700000e+08	6.613430e+13	0.000000e+00	7.226276e-01	9.250209e+14	1.155211e+15	1.497974e+14	1.246861e+04	7.360055e+03	4.309017e+03	0	1.162930e-03
7.800000e+08	6.526381e+13	0.000000e+00	7.226276e-01	9.169724e+14	1.152152e+15	1.490914e+14	1.244703e+04	7.356525e+03	4.306950e+03	0	1.157806e-03
7.900000e+08	6.440733e+13	0.000000e+00	7.226276e-01	9.090487e+14	1.148883e+15	1.483903e+14	1.242564e+04	7.352745e+03	4.304737e+03	0	1.152719e-03
8.000000e+08	6.356453e+13	0.000000e+00	7.226276e-01	9.012469e+14	1.145419e+15	1.476941e+14	1.240443e+04	7.348732e+03	4.302388e+03	0	1.147668e-03
8.100000e+08	6.273509e+13	0.000000e+00	7.226276e-01	8.935644e+14	1.141773e+15	1.470027e+14	1.238340e+04	7.344498e+03	4.299909e+03	0	1.142655e-03
8.200000e+08	6.191869e+13	0.000000e+00	7.226276e-01	8.859983e+14	1.137958e+15	1.463161e+14	1.236255e+04	7.340057e+03	4.297309e+03	0	1.137676e-03
8.300000e+08	6.111505e+13	0.000000e+00	7.226276e-01	8.785461e+14	1.133986e+15	1.456342e+14	1.234188e+04	7.335422e+03	4.294595e+03	0	1.132733e-03
8.400000e+08	6.032386e+13	0.000000e+00	7.226276e-01	8.712051e+14	1.129869e+15	1.449571e+14	1.232138e+04	7.330605e+03	4.291775e+03	0	1.127824e-03
8.500000e+08	5.954485e+13	0.000000e+00	7.226276e-01	8.639729e+14	1.125618e+15	1.442846e+14	1.230106e+04	7.325618e+03	4.288855e+03	0	1.122948e-03
8.600000e+08	5.877773e+13	0.000000e+00	7.226276e-01	8.568470e+14	1.121241e+15	1.436168e+14	1.228090e+04	7.320470e+03	4.285841e+03	0	1.118105e-03
8.700000e+08	5.802224e+13	0.000000e+00	7.226276e-01	8.498250e+14	1.116751e+15	1.429535e+14	1.226090e+04	7.315173e+03	4.282740e+03	0	1.113293e-03
8.800000e+08	5.727811e+13	0.000000e+00	7.226276e-01	8.429047e+14	1.112156e+15	1.422948e+14	1.224107e+04	7.309735e+03	4.279557e+03	0	1.108514e-03
8.900000e+08	5.654510e+13	0.000000e+00	7.226276e-01	8.360839e+14	1.107465e+15	1.416407e+14	1.222140e+04	7.304167e+03	4.276297e+03	0	1.103765e-03
9.000000e+08	5.582295e+13	0.000000e+00	7.226276e-01	8.293603e+14	1.102685e+15	1.409910e+14	1.220189e+04	7.298477e+03	4.272966e+03	0	1.099046e-03
9.100000e+08	5.511142e+13	0.000000e+00	7.226276e-01	8.227318e+14	1.097826e+15	1.403458e+14	1.218254e+04	7.292674e+03	4.269568e+03	0	1.094356e-03
9.200000e+08	5.441029e+13	0.000000e+00	7.226276e-01	8.161964e+14	1.092893e+15	1.397050e+14	1.216334e+04	7.286764e+03	4.266108e+03	0	1.089696e-03
9.300000e+08	5.371932e+13	0.000000e+00	7.226276e-01	8.097522e+14	1.087896e+15	1.390685e+14	1.214429e+04	7.280756e+03	4.262591e+03	0	1.085063e-03
9.400000e+08	5.303831e+13	0.000000e+00	7.226276e-01	8.033971e+14	1.082839e+15	1.384365e+14	1.212539e+04	7.274657e+03	4.259020e+03	0	1.080458e-03
9.500000e+08	5.236702e+13	0.000000e+00	7.226276e-01	7.971293e+14	1.077729e+15	1.378087e+14	1.210664e+04	7.268473e+03	4.255399e+03	0	1.075881e-03
9.600000e+08	5.170526e+13	0.000000e+00	7.226276e-01	7.909470e+14	1.072573e+15	1.371852e+14	1.208804e+04	7.262210e+03	4.251732e+03	0	1.071330e-03
9.700000e+08	5.105283e+13	0.000000e+00	7.226276e-01	7.848484e+14	1.067375e+15	1.365660e+14	1.206958e+04	7.255875e+03	4.248023e+03	0	1.066804e-03
9.800000e+08	5.040954e+13	0.000000e+00	7.226276e-01	7.788318e+14	1.062140e+15	1.359510e+14	1.205126e+04	7.249473e+03	4.244275e+03	0	1.062305e-03
9.900000e+08	4.977518e+13	0.000000e+00	7.226276e-01	7.728955e+14	1.056875e+15	1.353402e+14	1.203308e+04	7.243009e+03	4.240491e+03	0	1.057830e-03
1.000000e+09	4.914958e+13	0.000000e+00	7.226276e-01	7.670379e+14	1.051583e+15	1.347335e+14	1.201504e+04	7.236489e+03	4.236674e+03	0	1.053379e-03
1.010000e+09	4.853256e+13	0.000000e+00	7.226276e-01	7.612574e+14	1.046268e+15	1.341309e+14	1.199714e+04	7.229918e+03	4.232827e+03	0	1.048953e-03
1.020000e+09	4.792394e+13	0.000000e+00	7.226276e-01	7.555524e+14	1.040935e+15	1.335324e+14	1.197937e+04	7.223299e+03	4.228952e+03	0	1.044549e-03
1.030000e+09	4.732356e+13	0.000000e+00	7.226276e-01	7.499216e+14	1.035588e+15	1.329380e+14	1.196173e+04	7.216638e+03	4.225052e+03	0	1.040169e-03
1.040000e+09	4.673125e+13	0.000000e+00	7.226276e-01	7.443633e+14	1.030229e+15	1.323476e+14	1.194423e+04	7.209937e+03	4.221129e+03	0	1.035811e-03
1.050000e+09	4.614685e+13	0.000000e+00	7.226276e-01	7.388763e+14	1.024863e+15	1.317611e+14	1.192685e+04	7.203202e+03	4.217186e+03	0	1.031475e-03
1.060000e+09	4.557020e+13	0.000000e+00	7.226276e-01	7.334591e+14	1.019493e+15	1.311787e+14	1.190960e+04	7.196436e+03	4.213224e+03	0	1.027161e-03
1.070000e+09	4.500116e+13	0.000000e+00	7.226276e-01	7.281105e+14	1.014121e+15	1.306001e+14	1.189248e+04	7.189641e+03	4.209246e+03	0	1.022868e-03
1.080000e+09	4.443958e+13	0.000000e+00	7.226276e-01	7.228290e+14	1.008750e+15	1.300254e+14	1.187549e+04	7.182822e+03	4.205254e+03	0	1.018595e-03
1.090000e+09	4.388532e+13	0.000000e+00	7.226276e-01	7.176135e+14	1.003383e+15	1.294546e+14	1.185861e+04	7.175981e+03	4.201249e+03	0	1.014342e-03
1.100000e+09	4.333823e+13	0.000000e+00	7.226276e-01	7.124627e+14	9.980218e+14	1.288877e+14	1.184186e+04	7.169121e+03	4.197233e+03	0	1.010110e-03
1.110000e+09	4.279818e+13	0.000000e+00	7.226276e-01	7.073754e+14	9.926694e+14	1.283245e+14	1.182523e+04	7.162246e+03	4.193207e+03	0	1.005896e-03
1.120000e+09	4.226503e+13	0.000000e+00	7.226276e-01	7.023505e+14	9.873274e+14	1.277651e+14	1.180871e+04	7.155357e+03	4.189174e+03	0	1.001702e-03
1.130000e+09	4.173867e+13	0.000000e+00	7.226276e-01	6.973867e+14	9.819981e+14	1.272095e+14	1.179231e+04	7.148457e+03	4.185135e+03	0	9.975263e-04
1.140000e+09	4.121896e+13	0.000000e+00	7.226276e-01	6.924831e+14	9.766831e+14	1.266575e+14	1.177603e+04	7.141548e+03	4.181090e+03	0	9.933688e-04
1.150000e+09	4.070579e+13	0.000000e+00	7.226276e-01	6.876385e+14	9.713839e+14	1.261093e+14	1.175986e+04	7.134633e+03	4.177041e+03	0	9.892291e-04
1.160000e+09	4.019903e+13	0.000000e+00	7.226276e-01	6.828518e+14	9.661025e+14	1.255647e+14	1.174381e+04	7.127713e+03	4.172990e+03	0	9.851069e-04
1.170000e+09	3.969856e+13	0.000000e+00	7.226276e-01	6.781221e+14	9.608397e+14	1.250237e+14	1.172787e+04	7.120791e+03	4.168937e+03	0	9.810017e-04
1.180000e+09	3.920428e+13	0.000000e+00	7.226276e-01	6.734483e+14	9.555977e+14	1.244864e+14	1.171203e+04	7.113868e+03	4.164884e+03	0	9.769133e-04
1.190000e+09	3.871608e+13	0.000000e+00	7.226276e-01	6.688295e+14	9.503770e+14	1.239526e+14	1.169631e+04	7.106945e+03	4.160831e+03	0	9.728412e-04
1.200000e+09	3.823385e+13	0.000000e+00	7.226276e-01	6.642647e+14	9.451793e+14	1.234223e+14	1.168069e+04	7.100026e+03	4.156780e+03	0	9.687852e-04
1.210000e+09	3.775748e+13	0.000000e+00	7.226276e-01	6.597530e+14	9.400052e+14	1.228956e+14	1.166518e+04	7.093111e+03	4.152732e+03	0	9.647449e-04
1.220000e+09	3.728687e+13	0.000000e+00	7.226276e-01	6.552935e+14	9.348562e+14	1.223723e+14	1.164978e+04	7.086201e+03	4.148686e+03	0	9.607199e-04
1.230000e+09	3.682192e+13	0.000000e+00	7.226276e-01	6.508852e+14	9.297326e+14	1.218526e+14	1.163447e+04	7.079298e+03	4.144645e+03	0	9.567100e-04
1.240000e+09	3.636254e+13	0.000000e+00	7.226276e-01	6.465274e+14	9.246358e+14	1.213362e+14	1.161928e+04	7.072403e+03	4.140608e+03	0	9.527148e-04
1.250000e+09	3.590862e+13	0.000000e+00	7.226276e-01	6.422192e+14	9.195660e+14	1.208233e+14	1.160418e+04	7.065518e+03	4.136577e+03	0	9.487339e-04
1.260000e+09	3.546009e+13	0.000000e+00	7.226276e-01	6.379597e+14	9.145246e+14	1.203137e+14	1.158918e+04	7.058643e+03	4.132552e+03	0	9.447671e-04
1.270000e+09	3.501684e+13	0.000000e+00	7.226276e-01	6.337482e+14	9.095117e+14	1.198075e+14	1.157428e+04	7.051780e+03	4.128534e+03	0	9.408141e-04
1.280000e+09	3.457879e+13	0.000000e+00	7.226276e-01	6.295839e+14	9.045280e+14	1.193047e+14	1.155948e+04	7.044929e+03	4.124523e+03	0	9.368745e-04
1.290000e+09	3.414585e+13	0.000000e+00	7.226276e-01	6.254660e+14	8.995738e+14	1.188051e+14	1.154478e+04	7.038092e+03	4.120520e+03	0	9.329480e-04
1.300000e+09	3.371793e+13	0.000000e+00	7.226276e-01	6.213937e+14	8.946500e+14	1.183088e+14	1.153018e+04	7.031269e+03	4.116526e+03	0	9.290344e-04
1.310000e+09	3.329496e+13	0.000000e+00	7.226276e-01	6.173663e+14	8.897567e+14	1.178158e+14	1.151566e+04	7.024462e+03	4.112540e+03	0	9.251334e-04
1.320000e+09	3.287686e+13	0.000000e+00	7.226276e-01	6.133832e+14	8.848946e+14	1.173260e+14	1.150125e+04	7.017670e+03	4.108564e+03	0	9.212446e-04
1.330000e+09	3.246354e+13	0.000000e+00	7.226276e-01	6.094435e+14	8.800637e+14	1.168394e+14	1.148692e+04	7.010895e+03	4.104598e+03	0	9.173678e-04
1.340000e+09	3.205493e+13	0.000000e+00	7.226276e-01	6.055467e+14	8.752645e+14	1.163560e+14	1.147269e+04	7.004138e+03	4.100642e+03	0	9.135026e-04
1.350000e+09	3.165096e+13	0.000000e+00	7.226276e-01	6.016920e+14	8.704969e+14	1.158757e+14	1.145855e+04	6.997399e+03	4.096696e+03	0	9.096489e-04
1.360000e+09	3.125154e+13	0.000000e+00	7.226276e-01	5.978787e+14	8.657615e+14	1.153986e+14	1.144449e+04	6.990678e+03	4.092761e+03	0	9.058062e-04
