#t		Qconv[W]	Ri[Rp]		R*[Rp]		Qc[W]		Qm[W]		Qr[W]		Tcmb[K]		Tl[K]		Tup[K]		RiFlag		Bs[T]
0.000000e+00	1.689132e+14	0.000000e+00	7.226275e-01	1.906509e+15	6.155019e+13	2.331560e+14	1.536419e+04	4.716200e+03	2.741314e+03	0	1.587577e-03
1.000000e+07	1.688642e+14	0.000000e+00	7.226275e-01	1.904760e+15	7.038672e+13	2.318641e+14	1.532273e+04	4.804691e+03	2.792750e+03	0	1.587423e-03
2.000000e+07	1.687270e+14	0.000000e+00	7.226275e-01	1.902276e+15	8.011236e+13	2.305819e+14	1.528130e+04	4.892657e+03	2.843880e+03	0	1.586994e-03
3.000000e+07	1.685017e+14	0.000000e+00	7.226275e-01	1.899058e+15	9.076669e+13	2.293093e+14	1.523993e+04	4.980027e+03	2.894664e+03	0	1.586287e-03
4.000000e+07	1.681885e+14	0.000000e+00	7.226275e-01	1.895108e+15	1.023852e+14	2.280462e+14	1.519863e+04	5.066730e+03	2.945061e+03	0	1.585303e-03
5.000000e+07	1.677879e+14	0.000000e+00	7.226275e-01	1.890432e+15	1.149988e+14	2.267925e+14	1.515741e+04	5.152694e+03	2.995028e+03	0	1.584044e-03
6.000000e+07	1.673007e+14	0.000000e+00	7.226275e-01	1.885037e+15	1.286328e+14	2.255482e+14	1.511629e+04	5.237845e+03	3.044522e+03	0	1.582509e-03
7.000000e+07	1.667280e+14	0.000000e+00	7.226275e-01	1.878932e+15	1.433070e+14	2.243131e+14	1.507529e+04	5.322109e+03	3.093501e+03	0	1.580701e-03
8.000000e+07	1.660712e+14	0.000000e+00	7.226275e-01	1.872128e+15	1.590342e+14	2.230872e+14	1.503443e+04	5.405411e+03	3.141921e+03	0	1.578623e-03
9.000000e+07	1.653317e+14	0.000000e+00	7.226275e-01	1.864640e+15	1.758204e+14	2.218704e+14	1.499371e+04	5.487676e+03	3.189738e+03	0	1.576276e-03
1.000000e+08	1.645117e+14	0.000000e+00	7.226275e-01	1.856484e+15	1.936644e+14	2.206627e+14	1.495315e+04	5.568831e+03	3.236910e+03	0	1.573666e-03
1.100000e+08	1.636131e+14	0.000000e+00	7.226275e-01	1.847679e+15	2.125569e+14	2.194639e+14	1.491277e+04	5.648803e+03	3.283393e+03	0	1.570796e-03
1.200000e+08	1.626385e+14	0.000000e+00	7.226275e-01	1.838246e+15	2.324809e+14	2.182740e+14	1.487259e+04	5.727519e+03	3.329147e+03	0	1.567670e-03
1.300000e+08	1.615906e+14	0.000000e+00	7.226275e-01	1.828206e+15	2.534112e+14	2.170929e+14	1.483260e+04	5.804910e+03	3.374131e+03	0	1.564296e-03
1.400000e+08	1.604722e+14	0.000000e+00	7.226275e-01	1.817586e+15	2.753146e+14	2.159206e+14	1.479284e+04	5.880908e+03	3.418305e+03	0	1.560679e-03
1.500000e+08	1.592866e+14	0.000000e+00	7.226275e-01	1.806412e+15	2.981500e+14	2.147569e+14	1.475330e+04	5.955448e+03	3.461632e+03	0	1.556826e-03
1.600000e+08	1.580370e+14	0.000000e+00	7.226275e-01	1.794712e+15	3.218687e+14	2.136018e+14	1.471401e+04	6.028467e+03	3.504075e+03	0	1.552744e-03
1.700000e+08	1.567270e+14	0.000000e+00	7.226275e-01	1.782516e+15	3.464146e+14	2.124553e+14	1.467497e+04	6.099908e+03	3.545600e+03	0	1.548442e-03
1.800000e+08	1.553602e+14	0.000000e+00	7.226275e-01	1.769855e+15	3.717248e+14	2.113172e+14	1.463619e+04	6.169715e+03	3.586176e+03	0	1.543927e-03
1.900000e+08	1.539405e+14	0.000000e+00	7.226275e-01	1.756761e+15	3.977301e+14	2.101874e+14	1.459769e+04	6.237838e+03	3.625773e+03	0	1.539210e-03
2.000000e+08	1.524718e+14	0.000000e+00	7.226275e-01	1.743267e+15	4.243560e+14	2.090660e+14	1.455948e+04	6.304231e+03	3.664364e+03	0	1.534299e-03
2.100000e+08	1.509580e+14	0.000000e+00	7.226275e-01	1.729406e+15	4.515227e+14	2.079529e+14	1.452155e+04	6.368852e+03	3.701925e+03	0	1.529205e-03
2.200000e+08	1.494031e+14	0.000000e+00	7.226275e-01	1.715212e+15	4.791472e+14	2.068479e+14	1.448393e+04	6.431664e+03	3.738435e+03	0	1.523936e-03
2.300000e+08	1.478112e+14	0.000000e+00	7.226275e-01	1.700719e+15	5.071426e+14	2.057510e+14	1.444661e+04	6.492636e+03	3.773875e+03	0	1.518504e-03
2.400000e+08	1.461862e+14	0.000000e+00	7.226275e-01	1.685960e+15	5.354201e+14	2.046622e+14	1.440961e+04	6.551741e+03	3.808230e+03	0	1.512919e-03
2.500000e+08	1.445322e+14	0.000000e+00	7.226275e-01	1.670970e+15	5.638900e+14	2.035813e+14	1.437293e+04	6.608958e+03	3.841488e+03	0	1.507192e-03
2.600000e+08	1.428531e+14	0.000000e+00	7.226275e-01	1.655780e+15	5.924613e+14	2.025083e+14	1.433658e+04	6.664273e+03	3.873640e+03	0	1.501333e-03
2.700000e+08	1.411527e+14	0.000000e+00	7.226275e-01	1.640423e+15	6.210443e+14	2.014432e+14	1.430055e+04	6.717673e+03	3.904679e+03	0	1.495352e-03
2.800000e+08	1.394348e+14	0.000000e+00	7.226275e-01	1.624930e+15	6.495501e+14	2.003859e+14	1.426486e+04	6.769153e+03	3.934602e+03	0	1.489260e-03
2.900000e+08	1.377028e+14	0.000000e+00	7.226275e-01	1.609331e+15	6.778924e+14	1.993363e+14	1.422950e+04	6.818714e+03	3.963410e+03	0	1.483069e-03
3.000000e+08	1.359603e+14	0.000000e+00	7.226275e-01	1.593656e+15	7.059874e+14	1.982943e+14	1.419449e+04	6.866359e+03	3.991104e+03	0	1.476786e-03
3.100000e+08	1.342107e+14	0.000000e+00	7.226275e-01	1.577931e+15	7.337550e+14	1.972600e+14	1.415981e+04	6.912099e+03	4.017690e+03	0	1.470424e-03
3.200000e+08	1.324569e+14	0.000000e+00	7.226275e-01	1.562183e+15	7.611189e+14	1.962331e+14	1.412547e+04	6.955946e+03	4.043177e+03	0	1.463991e-03
3.300000e+08	1.307020e+14	0.000000e+00	7.226275e-01	1.546436e+15	7.880079e+14	1.952137e+14	1.409148e+04	6.997920e+03	4.067574e+03	0	1.457497e-03
3.400000e+08	1.289487e+14	0.000000e+00	7.226275e-01	1.530715e+15	8.143555e+14	1.942018e+14	1.405782e+04	7.038042e+03	4.090895e+03	0	1.450950e-03
3.500000e+08	1.271996e+14	0.000000e+00	7.226275e-01	1.515039e+15	8.401006e+14	1.931971e+14	1.402451e+04	7.076337e+03	4.113155e+03	0	1.444360e-03
3.600000e+08	1.254572e+14	0.000000e+00	7.226275e-01	1.499430e+15	8.651874e+14	1.921998e+14	1.399154e+04	7.112836e+03	4.134370e+03	0	1.437735e-03
3.700000e+08	1.237235e+14	0.000000e+00	7.226275e-01	1.483905e+15	8.895663e+14	1.912097e+14	1.395891e+04	7.147570e+03	4.154559e+03	0	1.431082e-03
3.800000e+08	1.220007e+14	0.000000e+00	7.226275e-01	1.468482e+15	9.131927e+14	1.902267e+14	1.392661e+04	7.180575e+03	4.173743e+03	0	1.424408e-03
3.900000e+08	1.202906e+14	0.000000e+00	7.226275e-01	1.453175e+15	9.360291e+14	1.892509e+14	1.389465e+04	7.211888e+03	4.191944e+03	0	1.417721e-03
4.000000e+08	1.185948e+14	0.000000e+00	7.226275e-01	1.437999e+15	9.580425e+14	1.882820e+14	1.386302e+04	7.241549e+03	4.209184e+03	0	1.411028e-03
4.100000e+08	1.169148e+14	0.000000e+00	7.226275e-01	1.422965e+15	9.792056e+14	1.873202e+14	1.383172e+04	7.269599e+03	4.225489e+03	0	1.404333e-03
4.200000e+08	1.152519e+14	0.000000e+00	7.226275e-01	1.408084e+15	9.994976e+14	1.863653e+14	1.380075e+04	7.296082e+03	4.240882e+03	0	1.397643e-03
4.300000e+08	1.136072e+14	0.000000e+00	7.226275e-01	1.393366e+15	1.018902e+15	1.854173e+14	1.377010e+04	7.321041e+03	4.255390e+03	0	1.390963e-03
4.400000e+08	1.119818e+14	0.000000e+00	7.226275e-01	1.378819e+15	1.037406e+15	1.844761e+14	1.373977e+04	7.344523e+03	4.269039e+03	0	1.384297e-03
4.500000e+08	1.103765e+14	0.000000e+00	7.226275e-01	1.364450e+15	1.055004e+15	1.835417e+14	1.370975e+04	7.366574e+03	4.281856e+03	0	1.377651e-03
4.600000e+08	1.087920e+14	0.000000e+00	7.226275e-01	1.350265e+15	1.071693e+15	1.826140e+14	1.368005e+04	7.387239e+03	4.293868e+03	0	1.371027e-03
4.700000e+08	1.072290e+14	0.000000e+00	7.226275e-01	1.336269e+15	1.087475e+15	1.816929e+14	1.365065e+04	7.406567e+03	4.305102e+03	0	1.364429e-03
4.800000e+08	1.056879e+14	0.000000e+00	7.226275e-01	1.322466e+15	1.102354e+15	1.807784e+14	1.362156e+04	7.424604e+03	4.315586e+03	0	1.357861e-03
4.900000e+08	1.041691e+14	0.000000e+00	7.226275e-01	1.308858e+15	1.116340e+15	1.798705e+14	1.359277e+04	7.441396e+03	4.325347e+03	0	1.351325e-03
5.000000e+08	1.026728e+14	0.000000e+00	7.226275e-01	1.295449e+15	1.129444e+15	1.789691e+14	1.356427e+04	7.456992e+03	4.334412e+03	0	1.344824e-03
5.100000e+08	1.011993e+14	0.000000e+00	7.226275e-01	1.282238e+15	1.141679e+15	1.780741e+14	1.353607e+04	7.471435e+03	4.342807e+03	0	1.338360e-03
5.200000e+08	9.974874e+13	0.000000e+00	7.226275e-01	1.269228e+15	1.153063e+15	1.771855e+14	1.350815e+04	7.484773e+03	4.350559e+03	0	1.331934e-03
5.300000e+08	9.832106e+13	0.000000e+00	7.226275e-01	1.256419e+15	1.163614e+15	1.763033e+14	1.348051e+04	7.497049e+03	4.357695e+03	0	1.325549e-03
5.400000e+08	9.691627e+13	0.000000e+00	7.226275e-01	1.243809e+15	1.173352e+15	1.754273e+14	1.345316e+04	7.508308e+03	4.364240e+03	0	1.319206e-03
5.500000e+08	9.553428e+13	0.000000e+00	7.226275e-01	1.231399e+15	1.182299e+15	1.745575e+14	1.342607e+04	7.518593e+03	4.370218e+03	0	1.312905e-03
5.600000e+08	9.417498e+13	0.000000e+00	7.226275e-01	1.219187e+15	1.190478e+15	1.736940e+14	1.339926e+04	7.527946e+03	4.375654e+03	0	1.306649e-03
5.700000e+08	9.283818e+13	0.000000e+00	7.226275e-01	1.207171e+15	1.197913e+15	1.728365e+14	1.337271e+04	7.536407e+03	4.380572e+03	0	1.300437e-03
5.800000e+08	9.152366e+13	0.000000e+00	7.226275e-01	1.195350e+15	1.204629e+15	1.719852e+14	1.334642e+04	7.544018e+03	4.384996e+03	0	1.294270e-03
5.900000e+08	9.023117e+13	0.000000e+00	7.226275e-01	1.183720e+15	1.210650e+15	1.711399e+14	1.332039e+04	7.550815e+03	4.388947e+03	0	1.288148e-03
6.000000e+08	8.896044e+13	0.000000e+00	7.226275e-01	1.172281e+15	1.216003e+15	1.703005e+14	1.329461e+04	7.556838e+03	4.392448e+03	0	1.282073e-03
6.100000e+08	8.771115e+13	0.000000e+00	7.226275e-01	1.161028e+15	1.220714e+15	1.694672e+14	1.326908e+04	7.562122e+03	4.395519e+03	0	1.276043e-03
6.200000e+08	8.648298e+13	0.000000e+00	7.226275e-01	1.149960e+15	1.224809e+15	1.686397e+14	1.324379e+04	7.566702e+03	4.398181e+03	0	1.270059e-03
6.300000e+08	8.527560e+13	0.000000e+00	7.226275e-01	1.139073e+15	1.228312e+15	1.678180e+14	1.321875e+04	7.570613e+03	4.400454e+03	0	1.264121e-03
6.400000e+08	8.408864e+13	0.000000e+00	7.226275e-01	1.128364e+15	1.231250e+15	1.670021e+14	1.319394e+04	7.573886e+03	4.402357e+03	0	1.258228e-03
6.500000e+08	8.292175e+13	0.000000e+00	7.226275e-01	1.117830e+15	1.233649e+15	1.661920e+14	1.316936e+04	7.576554e+03	4.403908e+03	0	1.252381e-03
6.600000e+08	8.177454e+13	0.000000e+00	7.226275e-01	1.107468e+15	1.235532e+15	1.653876e+14	1.314501e+04	7.578647e+03	4.405124e+03	0	1.246579e-03
6.700000e+08	8.064664e+13	0.000000e+00	7.226275e-01	1.097274e+15	1.236925e+15	1.645888e+14	1.312089e+04	7.580193e+03	4.406023e+03	0	1.240821e-03
6.800000e+08	7.953767e+13	0.000000e+00	7.226275e-01	1.087245e+15	1.237852e+15	1.637957e+14	1.309699e+04	7.581220e+03	4.406620e+03	0	1.235107e-03
6.900000e+08	7.844724e+13	0.000000e+00	7.226275e-01	1.077378e+15	1.238335e+15	1.630081e+14	1.307331e+04	7.581756e+03	4.406931e+03	0	1.229437e-03
7.000000e+08	7.737496e+13	0.000000e+00	7.226275e-01	1.067670e+15	1.238397e+15	1.622260e+14	1.304984e+04	7.581825e+03	4.406972e+03	0	1.223809e-03
7.100000e+08	7.632046e+13	0.000000e+00	7.226275e-01	1.058117e+15	1.238062e+15	1.614494e+14	1.302658e+04	7.581453e+03	4.406755e+03	0	1.218224e-03
7.200000e+08	7.528336e+13	0.000000e+00	7.226275e-01	1.048715e+15	1.237348e+15	1.606783e+14	1.300353e+04	7.580662e+03	4.406296e+03	0	1.212681e-03
7.300000e+08	7.426327e+13	0.000000e+00	7.226275e-01	1.039463e+15	1.236279e+15	1.599125e+14	1.298068e+04	7.579475e+03	4.405606e+03	0	1.207179e-03
7.400000e+08	7.325982e+13	0.000000e+00	7.226275e-01	1.030355e+15	1.234872e+15	1.591521e+14	1.295804e+04	7.577914e+03	4.404698e+03	0	1.201717e-03
7.500000e+08	7.227266e+13	0.000000e+00	7.226275e-01	1.021390e+15	1.233149e+15	1.583969e+14	1.293559e+04	7.575998e+03	4.403585e+03	0	1.196295e-03
7.600000e+08	7.130140e+13	0.000000e+00	7.226275e-01	1.012564e+15	1.231126e+15	1.576471e+14	1.291333e+04	7.573748e+03	4.402277e+03	0	1.190912e-03
7.700000e+08	7.034571e+13	0.000000e+00	7.226275e-01	1.003874e+15	1.228822e+15	1.569024e+14	1.289127e+04	7.571181e+03	4.400785e+03	0	1.185567e-03
7.800000e+08	6.940523e+13	0.000000e+00	7.226275e-01	9.953175e+14	1.226253e+15	1.561630e+14	1.286940e+04	7.568316e+03	4.399119e+03	0	1.180260e-03
7.900000e+08	6.847962e+13	0.000000e+00	7.226275e-01	9.868909e+14	1.223437e+15	1.554286e+14	1.284771e+04	7.565169e+03	4.397290e+03	0	1.174990e-03
8.000000e+08	6.756854e+13	0.000000e+00	7.226275e-01	9.785914e+14	1.220388e+15	1.546994e+14	1.282621e+04	7.561757e+03	4.395307e+03	0	1.169756e-03
8.100000e+08	6.667167e+13	0.000000e+00	7.226275e-01	9.704164e+14	1.217121e+15	1.539752e+14	1.280489e+04	7.558093e+03	4.393177e+03	0	1.164557e-03
8.200000e+08	6.578869e+13	0.000000e+00	7.226275e-01	9.623630e+14	1.213651e+15	1.532560e+14	1.278374e+04	7.554194e+03	4.390911e+03	0	1.159393e-03
8.300000e+08	6.491928e+13	0.000000e+00	7.226275e-01	9.544287e+14	1.209991e+15	1.525418e+14	1.276277e+04	7.550073e+03	4.388516e+03	0	1.154263e-03
8.400000e+08	6.406315e+13	0.000000e+00	7.226275e-01	9.466106e+14	1.206154e+15	1.518325e+14	1.274197e+04	7.545743e+03	4.385999e+03	0	1.149167e-03
8.500000e+08	6.322000e+13	0.000000e+00	7.226275e-01	9.389064e+14	1.202153e+15	1.511281e+14	1.272135e+04	7.541216e+03	4.383367e+03	0	1.144103e-03
8.600000e+08	6.238953e+13	0.000000e+00	7.226275e-01	9.313135e+14	1.197998e+15	1.504286e+14	1.270089e+04	7.536505e+03	4.380629e+03	0	1.139071e-03
8.700000e+08	6.157148e+13	0.000000e+00	7.226275e-01	9.238295e+14	1.193701e+15	1.497339e+14	1.268059e+04	7.531620e+03	4.377789e+03	0	1.134071e-03
8.800000e+08	6.076555e+13	0.000000e+00	7.226275e-01	9.164520e+14	1.189273e+15	1.490440e+14	1.266046e+04	7.526572e+03	4.374855e+03	0	1.129101e-03
8.900000e+08	5.997149e+13	0.000000e+00	7.226275e-01	9.091788e+14	1.184724e+15	1.483588e+14	1.264048e+04	7.521371e+03	4.371833e+03	0	1.124161e-03
9.000000e+08	5.918905e+13	0.000000e+00	7.226275e-01	9.020075e+14	1.180062e+15	1.476783e+14	1.262067e+04	7.516028e+03	4.368727e+03	0	1.119251e-03
9.100000e+08	5.841796e+13	0.000000e+00	7.226275e-01	8.949361e+14	1.175298e+15	1.470025e+14	1.260101e+04	7.510551e+03	4.365543e+03	0	1.114369e-03
9.200000e+08	5.765798e+13	0.000000e+00	7.226275e-01	8.879624e+14	1.170439e+15	1.463313e+14	1.258151e+04	7.504948e+03	4.362287e+03	0	1.109516e-03
9.300000e+08	5.690887e+13	0.000000e+00	7.226275e-01	8.810844e+14	1.165494e+15	1.456647e+14	1.256215e+04	7.499229e+03	4.358962e+03	0	1.104690e-03
9.400000e+08	5.617041e+13	0.000000e+00	7.226275e-01	8.743000e+14	1.160470e+15	1.450026e+14	1.254295e+04	7.493400e+03	4.355574e+03	0	1.099891e-03
9.500000e+08	5.544236e+13	0.000000e+00	7.226275e-01	8.676073e+14	1.155375e+15	1.443451e+14	1.252389e+04	7.487470e+03	4.352127e+03	0	1.095118e-03
9.600000e+08	5.472452e+13	0.000000e+00	7.226275e-01	8.610045e+14	1.150214e+15	1.436921e+14	1.250498e+04	7.481445e+03	4.348625e+03	0	1.090371e-03
9.700000e+08	5.401666e+13	0.000000e+00	7.226275e-01	8.544897e+14	1.144996e+15	1.430435e+14	1.248622e+04	7.475331e+03	4.345072e+03	0	1.085649e-03
9.800000e+08	5.331858e+13	0.000000e+00	7.226275e-01	8.480610e+14	1.139725e+15	1.423993e+14	1.246759e+04	7.469136e+03	4.341471e+03	0	1.080952e-03
9.900000e+08	5.263007e+13	0.000000e+00	7.226275e-01	8.417169e+14	1.134408e+15	1.417595e+14	1.244910e+04	7.462865e+03	4.337826e+03	0	1.076279e-03
1.000000e+09	5.195096e+13	0.000000e+00	7.226275e-01	8.354555e+14	1.129049e+15	1.411240e+14	1.243076e+04	7.456524e+03	4.334140e+03	0	1.071630e-03
1.010000e+09	5.128103e+13	0.000000e+00	7.226275e-01	8.292752e+14	1.123655e+15	1.404929e+14	1.241254e+04	7.450119e+03	4.330417e+03	0	1.067004e-03
1.020000e+09	5.062012e+13	0.000000e+00	7.226275e-01	8.231745e+14	1.118229e+15	1.398660e+14	1.239447e+04	7.443653e+03	4.326658e+03	0	1.062400e-03
1.030000e+09	4.996803e+13	0.000000e+00	7.226275e-01	8.171518e+14	1.112777e+15	1.392434e+14	1.237652e+04	7.437132e+03	4.322868e+03	0	1.057818e-03
1.040000e+09	4.932461e+13	0.000000e+00	7.226275e-01	8.112056e+14	1.107302e+15	1.386249e+14	1.235871e+04	7.430562e+03	4.319049e+03	0	1.053258e-03
1.050000e+09	4.868966e+13	0.000000e+00	7.226275e-01	8.053343e+14	1.101808e+15	1.380107e+14	1.234102e+04	7.423945e+03	4.315203e+03	0	1.048719e-03
1.060000e+09	4.806304e+13	0.000000e+00	7.226275e-01	7.995367e+14	1.096300e+15	1.374006e+14	1.232347e+04	7.417286e+03	4.311333e+03	0	1.044201e-03
1.070000e+09	4.744458e+13	0.000000e+00	7.226275e-01	7.938112e+14	1.090780e+15	1.367946e+14	1.230604e+04	7.410589e+03	4.307440e+03	0	1.039703e-03
1.080000e+09	4.683412e+13	0.000000e+00	7.226275e-01	7.881565e+14	1.085252e+15	1.361926e+14	1.228873e+04	7.403858e+03	4.303527e+03	0	1.035224e-03
1.090000e+09	4.623151e+13	0.000000e+00	7.226275e-01	7.825714e+14	1.079720e+15	1.355948e+14	1.227155e+04	7.397096e+03	4.299597e+03	0	1.030765e-03
1.100000e+09	4.563661e+13	0.000000e+00	7.226275e-01	7.770545e+14	1.074186e+15	1.350009e+14	1.225448e+04	7.390306e+03	4.295650e+03	0	1.026325e-03
1.110000e+09	4.504926e+13	0.000000e+00	7.226275e-01	7.716045e+14	1.068652e+15	1.344110e+14	1.223754e+04	7.383492e+03	4.291689e+03	0	1.021903e-03
1.120000e+09	4.446934e+13	0.000000e+00	7.226275e-01	7.662203e+14	1.063122e+15	1.338251e+14	1.222072e+04	7.376656e+03	4.287716e+03	0	1.017499e-03
1.130000e+09	4.389670e+13	0.000000e+00	7.226275e-01	7.609007e+14	1.057598e+15	1.332431e+14	1.220401e+04	7.369801e+03	4.283732e+03	0	1.013112e-03
1.140000e+09	4.333120e+13	0.000000e+00	7.226275e-01	7.556445e+14	1.052081e+15	1.326650e+14	1.218742e+04	7.362930e+03	4.279738e+03	0	1.008743e-03
1.150000e+09	4.277273e+13	0.000000e+00	7.226275e-01	7.504506e+14	1.046575e+15	1.320907e+14	1.217095e+04	7.356045e+03	4.275736e+03	0	1.004391e-03
1.160000e+09	4.222115e+13	0.000000e+00	7.226275e-01	7.453178e+14	1.041080e+15	1.315203e+14	1.215458e+04	7.349149e+03	4.271728e+03	0	1.000054e-03
1.170000e+09	4.167633e+13	0.000000e+00	7.226275e-01	7.402452e+14	1.035599e+15	1.309537e+14	1.213833e+04	7.342244e+03	4.267714e+03	0	9.957343e-04
1.180000e+09	4.113817e+13	0.000000e+00	7.226275e-01	7.352316e+14	1.030134e+15	1.303909e+14	1.212219e+04	7.335332e+03	4.263696e+03	0	9.914298e-04
1.190000e+09	4.060654e+13	0.000000e+00	7.226275e-01	7.302761e+14	1.024686e+15	1.298317e+14	1.210616e+04	7.328415e+03	4.259676e+03	0	9.871405e-04
1.200000e+09	4.008133e+13	0.000000e+00	7.226275e-01	7.253776e+14	1.019257e+15	1.292763e+14	1.209023e+04	7.321495e+03	4.255653e+03	0	9.828660e-04
1.210000e+09	3.956242e+13	0.000000e+00	7.226275e-01	7.205352e+14	1.013847e+15	1.287246e+14	1.207441e+04	7.314573e+03	4.251630e+03	0	9.786061e-04
1.220000e+09	3.904971e+13	0.000000e+00	7.226275e-01	7.157480e+14	1.008458e+15	1.281766e+14	1.205870e+04	7.307652e+03	4.247607e+03	0	9.743603e-04
1.230000e+09	3.854310e+13	0.000000e+00	7.226275e-01	7.110149e+14	1.003092e+15	1.276321e+14	1.204309e+04	7.300732e+03	4.243585e+03	0	9.701282e-04
1.240000e+09	3.804247e+13	0.000000e+00	7.226275e-01	7.063352e+14	9.977498e+14	1.270913e+14	1.202759e+04	7.293816e+03	4.239565e+03	0	9.659096e-04
1.250000e+09	3.754772e+13	0.000000e+00	7.226275e-01	7.017078e+14	9.924314e+14	1.265540e+14	1.201218e+04	7.286904e+03	4.235548e+03	0	9.617041e-04
1.260000e+09	3.705877e+13	0.000000e+00	7.226275e-01	6.971321e+14	9.871383e+14	1.260203e+14	1.199688e+04	7.279999e+03	4.231534e+03	0	9.575114e-04
1.270000e+09	3.657550e+13	0.000000e+00	7.226275e-01	6.926070e+14	9.818718e+14	1.254901e+14	1.198168e+04	7.273101e+03	4.227524e+03	0	9.533310e-04
1.280000e+09	3.609783e+13	0.000000e+00	7.226275e-01	6.881319e+14	9.766318e+14	1.249634e+14	1.196657e+04	7.266211e+03	4.223520e+03	0	9.491627e-04
1.290000e+09	3.562567e+13	0.000000e+00	7.226275e-01	6.837058e+14	9.714201e+14	1.244401e+14	1.195157e+04	7.259332e+03	4.219521e+03	0	9.450062e-04
1.300000e+09	3.515892e+13	0.000000e+00	7.226275e-01	6.793281e+14	9.662364e+14	1.239203e+14	1.193665e+04	7.252462e+03	4.215528e+03	0	9.408610e-04
1.310000e+09	3.469750e+13	0.000000e+00	7.226275e-01	6.749979e+14	9.610817e+14	1.234039e+14	1.192184e+04	7.245605e+03	4.211542e+03	0	9.367270e-04
1.320000e+09	3.424132e+13	0.000000e+00	7.226275e-01	6.707145e+14	9.559566e+14	1.228909e+14	1.190712e+04	7.238760e+03	4.207563e+03	0	9.326037e-04
1.330000e+09	3.379030e+13	0.000000e+00	7.226275e-01	6.664771e+14	9.508616e+14	1.223812e+14	1.189249e+04	7.231928e+03	4.203592e+03	0	9.284909e-04
1.340000e+09	3.334435e+13	0.000000e+00	7.226275e-01	6.622851e+14	9.457967e+14	1.218748e+14	1.187795e+04	7.225111e+03	4.199630e+03	0	9.243882e-04
1.350000e+09	3.290340e+13	0.000000e+00	7.226275e-01	6.581377e+14	9.407628e+14	1.213718e+14	1.186351e+04	7.218309e+03	4.195676e+03	0	9.202953e-04
1.360000e+09	3.246736e+13	0.000000e+00	7.226275e-01	6.540343e+14	9.357601e+14	1.208720e+14	1.184915e+04	7.211522e+03	4.191731e+03	0	9.162119e-04
