#t		Qconv[W]	Ri[Rp]		R*[Rp]		Qc[W]		Qm[W]		Qr[W]		Tcmb[K]		Tl[K]		Tup[K]		RiFlag		Bs[T]
0.000000e+00	1.096903e+14	0.000000e+00	7.279410e-01	1.431451e+15	5.965230e+13	2.374088e+14	1.476686e+04	4.633326e+03	2.765828e+03	0	1.369402e-03
1.000000e+07	1.099247e+14	0.000000e+00	7.279410e-01	1.432327e+15	6.618478e+13	2.360934e+14	1.473803e+04	4.699906e+03	2.805572e+03	0	1.370377e-03
2.000000e+07	1.101141e+14	0.000000e+00	7.279410e-01	1.432833e+15	7.322533e+13	2.347878e+14	1.470917e+04	4.766186e+03	2.845138e+03	0	1.371163e-03
3.000000e+07	1.102581e+14	0.000000e+00	7.279410e-01	1.432968e+15	8.079159e+13	2.334920e+14	1.468030e+04	4.832131e+03	2.884503e+03	0	1.371761e-03
4.000000e+07	1.103565e+14	0.000000e+00	7.279410e-01	1.432729e+15	8.889969e+13	2.322058e+14	1.465144e+04	4.897702e+03	2.923645e+03	0	1.372169e-03
5.000000e+07	1.104091e+14	0.000000e+00	7.279410e-01	1.432116e+15	9.756404e+13	2.309292e+14	1.462257e+04	4.962863e+03	2.962542e+03	0	1.372387e-03
6.000000e+07	1.104160e+14	0.000000e+00	7.279410e-01	1.431129e+15	1.067972e+14	2.296622e+14	1.459372e+04	5.027574e+03	3.001171e+03	0	1.372415e-03
7.000000e+07	1.103770e+14	0.000000e+00	7.279410e-01	1.429768e+15	1.166095e+14	2.284046e+14	1.456489e+04	5.091797e+03	3.039508e+03	0	1.372254e-03
8.000000e+07	1.102925e+14	0.000000e+00	7.279410e-01	1.428034e+15	1.270091e+14	2.271563e+14	1.453608e+04	5.155493e+03	3.077531e+03	0	1.371903e-03
9.000000e+07	1.101626e+14	0.000000e+00	7.279410e-01	1.425931e+15	1.380016e+14	2.259174e+14	1.450732e+04	5.218621e+03	3.115215e+03	0	1.371364e-03
1.000000e+08	1.099876e+14	0.000000e+00	7.279410e-01	1.423461e+15	1.495900e+14	2.246876e+14	1.447859e+04	5.281143e+03	3.152537e+03	0	1.370638e-03
1.100000e+08	1.097681e+14	0.000000e+00	7.279410e-01	1.420628e+15	1.617746e+14	2.234670e+14	1.444991e+04	5.343019e+03	3.189473e+03	0	1.369725e-03
1.200000e+08	1.095046e+14	0.000000e+00	7.279410e-01	1.417437e+15	1.745526e+14	2.222554e+14	1.442129e+04	5.404209e+03	3.226000e+03	0	1.368628e-03
1.300000e+08	1.091976e+14	0.000000e+00	7.279410e-01	1.413893e+15	1.879185e+14	2.210527e+14	1.439274e+04	5.464675e+03	3.262095e+03	0	1.367349e-03
1.400000e+08	1.088481e+14	0.000000e+00	7.279410e-01	1.410003e+15	2.018634e+14	2.198590e+14	1.436425e+04	5.524377e+03	3.297734e+03	0	1.365888e-03
1.500000e+08	1.084568e+14	0.000000e+00	7.279410e-01	1.405774e+15	2.163756e+14	2.186741e+14	1.433584e+04	5.583279e+03	3.332895e+03	0	1.364249e-03
1.600000e+08	1.080247e+14	0.000000e+00	7.279410e-01	1.401214e+15	2.314402e+14	2.174979e+14	1.430752e+04	5.641343e+03	3.367555e+03	0	1.362435e-03
1.700000e+08	1.075528e+14	0.000000e+00	7.279410e-01	1.396332e+15	2.470392e+14	2.163305e+14	1.427929e+04	5.698533e+03	3.401695e+03	0	1.360448e-03
1.800000e+08	1.070422e+14	0.000000e+00	7.279410e-01	1.391138e+15	2.631517e+14	2.151716e+14	1.425116e+04	5.754815e+03	3.435292e+03	0	1.358292e-03
1.900000e+08	1.064942e+14	0.000000e+00	7.279410e-01	1.385640e+15	2.797538e+14	2.140213e+14	1.422313e+04	5.810155e+03	3.468327e+03	0	1.355970e-03
2.000000e+08	1.059101e+14	0.000000e+00	7.279410e-01	1.379851e+15	2.968187e+14	2.128794e+14	1.419522e+04	5.864522e+03	3.500780e+03	0	1.353487e-03
2.100000e+08	1.052912e+14	0.000000e+00	7.279410e-01	1.373782e+15	3.143172e+14	2.117460e+14	1.416742e+04	5.917884e+03	3.532635e+03	0	1.350845e-03
2.200000e+08	1.046389e+14	0.000000e+00	7.279410e-01	1.367444e+15	3.322173e+14	2.106208e+14	1.413974e+04	5.970214e+03	3.563872e+03	0	1.348050e-03
2.300000e+08	1.039547e+14	0.000000e+00	7.279410e-01	1.360850e+15	3.504851e+14	2.095039e+14	1.411219e+04	6.021484e+03	3.594478e+03	0	1.345105e-03
2.400000e+08	1.032402e+14	0.000000e+00	7.279410e-01	1.354012e+15	3.690843e+14	2.083952e+14	1.408477e+04	6.071670e+03	3.624436e+03	0	1.342016e-03
2.500000e+08	1.024969e+14	0.000000e+00	7.279410e-01	1.346943e+15	3.879770e+14	2.072946e+14	1.405749e+04	6.120748e+03	3.653733e+03	0	1.338788e-03
2.600000e+08	1.017265e+14	0.000000e+00	7.279410e-01	1.339658e+15	4.071238e+14	2.062021e+14	1.403035e+04	6.168700e+03	3.682357e+03	0	1.335425e-03
2.700000e+08	1.009305e+14	0.000000e+00	7.279410e-01	1.332169e+15	4.264841e+14	2.051176e+14	1.400336e+04	6.215505e+03	3.710297e+03	0	1.331933e-03
2.800000e+08	1.001105e+14	0.000000e+00	7.279410e-01	1.324489e+15	4.460159e+14	2.040410e+14	1.397652e+04	6.261148e+03	3.737543e+03	0	1.328316e-03
2.900000e+08	9.926839e+13	0.000000e+00	7.279410e-01	1.316633e+15	4.656772e+14	2.029722e+14	1.394983e+04	6.305616e+03	3.764088e+03	0	1.324581e-03
3.000000e+08	9.840565e+13	0.000000e+00	7.279410e-01	1.308615e+15	4.854252e+14	2.019113e+14	1.392330e+04	6.348896e+03	3.789924e+03	0	1.320732e-03
3.100000e+08	9.752397e+13	0.000000e+00	7.279410e-01	1.300447e+15	5.052170e+14	2.008580e+14	1.389693e+04	6.390980e+03	3.815045e+03	0	1.316776e-03
3.200000e+08	9.662499e+13	0.000000e+00	7.279410e-01	1.292144e+15	5.250101e+14	1.998124e+14	1.387073e+04	6.431860e+03	3.839448e+03	0	1.312718e-03
3.300000e+08	9.571032e+13	0.000000e+00	7.279410e-01	1.283718e+15	5.447624e+14	1.987745e+14	1.384469e+04	6.471532e+03	3.863131e+03	0	1.308562e-03
3.400000e+08	9.478155e+13	0.000000e+00	7.279410e-01	1.275183e+15	5.644327e+14	1.977440e+14	1.381883e+04	6.509995e+03	3.886091e+03	0	1.304316e-03
3.500000e+08	9.384024e+13	0.000000e+00	7.279410e-01	1.266552e+15	5.839805e+14	1.967211e+14	1.379313e+04	6.547248e+03	3.908328e+03	0	1.299984e-03
3.600000e+08	9.288789e+13	0.000000e+00	7.279410e-01	1.257837e+15	6.033667e+14	1.957055e+14	1.376761e+04	6.583293e+03	3.929845e+03	0	1.295571e-03
3.700000e+08	9.192598e+13	0.000000e+00	7.279410e-01	1.249050e+15	6.225538e+14	1.946974e+14	1.374226e+04	6.618134e+03	3.950643e+03	0	1.291083e-03
3.800000e+08	9.095593e+13	0.000000e+00	7.279410e-01	1.240202e+15	6.415054e+14	1.936965e+14	1.371709e+04	6.651779e+03	3.970727e+03	0	1.286526e-03
3.900000e+08	8.997912e+13	0.000000e+00	7.279410e-01	1.231306e+15	6.601876e+14	1.927028e+14	1.369210e+04	6.684234e+03	3.990101e+03	0	1.281904e-03
4.000000e+08	8.899685e+13	0.000000e+00	7.279410e-01	1.222371e+15	6.785678e+14	1.917163e+14	1.366728e+04	6.715511e+03	4.008772e+03	0	1.277222e-03
4.100000e+08	8.801038e+13	0.000000e+00	7.279410e-01	1.213409e+15	6.966160e+14	1.907370e+14	1.364265e+04	6.745621e+03	4.026746e+03	0	1.272485e-03
4.200000e+08	8.702093e+13	0.000000e+00	7.279410e-01	1.204428e+15	7.143040e+14	1.897647e+14	1.361820e+04	6.774578e+03	4.044031e+03	0	1.267699e-03
4.300000e+08	8.602961e+13	0.000000e+00	7.279410e-01	1.195439e+15	7.316058e+14	1.887994e+14	1.359392e+04	6.802397e+03	4.060637e+03	0	1.262867e-03
4.400000e+08	8.503752e+13	0.000000e+00	7.279410e-01	1.186451e+15	7.484978e+14	1.878410e+14	1.356983e+04	6.829093e+03	4.076574e+03	0	1.257993e-03
4.500000e+08	8.404566e+13	0.000000e+00	7.279410e-01	1.177470e+15	7.649587e+14	1.868895e+14	1.354592e+04	6.854686e+03	4.091851e+03	0	1.253083e-03
4.600000e+08	8.305500e+13	0.000000e+00	7.279410e-01	1.168506e+15	7.809696e+14	1.859449e+14	1.352219e+04	6.879193e+03	4.106480e+03	0	1.248140e-03
4.700000e+08	8.206641e+13	0.000000e+00	7.279410e-01	1.159566e+15	7.965134e+14	1.850070e+14	1.349864e+04	6.902635e+03	4.120474e+03	0	1.243168e-03
4.800000e+08	8.108072e+13	0.000000e+00	7.279410e-01	1.150655e+15	8.115758e+14	1.840759e+14	1.347527e+04	6.925033e+03	4.133844e+03	0	1.238171e-03
4.900000e+08	8.009872e+13	0.000000e+00	7.279410e-01	1.141781e+15	8.261444e+14	1.831514e+14	1.345208e+04	6.946408e+03	4.146604e+03	0	1.233152e-03
5.000000e+08	7.912111e+13	0.000000e+00	7.279410e-01	1.132950e+15	8.402093e+14	1.822335e+14	1.342906e+04	6.966784e+03	4.158767e+03	0	1.228115e-03
5.100000e+08	7.814855e+13	0.000000e+00	7.279410e-01	1.124167e+15	8.537619e+14	1.813222e+14	1.340623e+04	6.986182e+03	4.170347e+03	0	1.223062e-03
5.200000e+08	7.718163e+13	0.000000e+00	7.279410e-01	1.115436e+15	8.667966e+14	1.804174e+14	1.338357e+04	7.004627e+03	4.181357e+03	0	1.217997e-03
5.300000e+08	7.622090e+13	0.000000e+00	7.279410e-01	1.106761e+15	8.793089e+14	1.795190e+14	1.336109e+04	7.022143e+03	4.191813e+03	0	1.212922e-03
5.400000e+08	7.526687e+13	0.000000e+00	7.279410e-01	1.098149e+15	8.912966e+14	1.786271e+14	1.333878e+04	7.038753e+03	4.201729e+03	0	1.207840e-03
5.500000e+08	7.431997e+13	0.000000e+00	7.279410e-01	1.089600e+15	9.027588e+14	1.777415e+14	1.331664e+04	7.054484e+03	4.211119e+03	0	1.202754e-03
5.600000e+08	7.338061e+13	0.000000e+00	7.279410e-01	1.081120e+15	9.136966e+14	1.768622e+14	1.329468e+04	7.069359e+03	4.219998e+03	0	1.197665e-03
5.700000e+08	7.244915e+13	0.000000e+00	7.279410e-01	1.072710e+15	9.241120e+14	1.759891e+14	1.327288e+04	7.083403e+03	4.228382e+03	0	1.192576e-03
5.800000e+08	7.152590e+13	0.000000e+00	7.279410e-01	1.064374e+15	9.340087e+14	1.751222e+14	1.325126e+04	7.096641e+03	4.236284e+03	0	1.187488e-03
5.900000e+08	7.061114e+13	0.000000e+00	7.279410e-01	1.056113e+15	9.433919e+14	1.742615e+14	1.322980e+04	7.109097e+03	4.243720e+03	0	1.182404e-03
6.000000e+08	6.970512e+13	0.000000e+00	7.279410e-01	1.047930e+15	9.522675e+14	1.734069e+14	1.320851e+04	7.120797e+03	4.250704e+03	0	1.177325e-03
6.100000e+08	6.880804e+13	0.000000e+00	7.279410e-01	1.039826e+15	9.606430e+14	1.725583e+14	1.318739e+04	7.131764e+03	4.257251e+03	0	1.172253e-03
6.200000e+08	6.792008e+13	0.000000e+00	7.279410e-01	1.031802e+15	9.685261e+14	1.717157e+14	1.316642e+04	7.142023e+03	4.263375e+03	0	1.167188e-03
6.300000e+08	6.704138e+13	0.000000e+00	7.279410e-01	1.023860e+15	9.759257e+14	1.708790e+14	1.314562e+04	7.151598e+03	4.269090e+03	0	1.162133e-03
6.400000e+08	6.617206e+13	0.000000e+00	7.279410e-01	1.016001e+15	9.828515e+14	1.700483e+14	1.312498e+04	7.160511e+03	4.274411e+03	0	1.157088e-03
6.500000e+08	6.531221e+13	0.000000e+00	7.279410e-01	1.008224e+15	9.893139e+14	1.692234e+14	1.310450e+04	7.168787e+03	4.279351e+03	0	1.152054e-03
6.600000e+08	6.446191e+13	0.000000e+00	7.279410e-01	1.000532e+15	9.953233e+14	1.684043e+14	1.308417e+04	7.176447e+03	4.283924e+03	0	1.147033e-03
6.700000e+08	6.362120e+13	0.000000e+00	7.279410e-01	9.929235e+14	1.000891e+15	1.675910e+14	1.306400e+04	7.183515e+03	4.288143e+03	0	1.142025e-03
6.800000e+08	6.279011e+13	0.000000e+00	7.279410e-01	9.853993e+14	1.006029e+15	1.667833e+14	1.304398e+04	7.190011e+03	4.292021e+03	0	1.137030e-03
6.900000e+08	6.196866e+13	0.000000e+00	7.279410e-01	9.779594e+14	1.010749e+15	1.659814e+14	1.302411e+04	7.195958e+03	4.295570e+03	0	1.132050e-03
7.000000e+08	6.115683e+13	0.000000e+00	7.279410e-01	9.706037e+14	1.015064e+15	1.651850e+14	1.300439e+04	7.201375e+03	4.298804e+03	0	1.127084e-03
7.100000e+08	6.035461e+13	0.000000e+00	7.279410e-01	9.633320e+14	1.018984e+15	1.643943e+14	1.298482e+04	7.206284e+03	4.301735e+03	0	1.122135e-03
7.200000e+08	5.956196e+13	0.000000e+00	7.279410e-01	9.561439e+14	1.022524e+15	1.636091e+14	1.296540e+04	7.210704e+03	4.304373e+03	0	1.117201e-03
7.300000e+08	5.877884e+13	0.000000e+00	7.279410e-01	9.490390e+14	1.025695e+15	1.628293e+14	1.294612e+04	7.214654e+03	4.306731e+03	0	1.112283e-03
7.400000e+08	5.800519e+13	0.000000e+00	7.279410e-01	9.420167e+14	1.028510e+15	1.620550e+14	1.292698e+04	7.218153e+03	4.308820e+03	0	1.107381e-03
7.500000e+08	5.724095e+13	0.000000e+00	7.279410e-01	9.350766e+14	1.030981e+15	1.612861e+14	1.290799e+04	7.221219e+03	4.310650e+03	0	1.102496e-03
7.600000e+08	5.648604e+13	0.000000e+00	7.279410e-01	9.282178e+14	1.033121e+15	1.605226e+14	1.288913e+04	7.223870e+03	4.312233e+03	0	1.097628e-03
7.700000e+08	5.574039e+13	0.000000e+00	7.279410e-01	9.214398e+14	1.034942e+15	1.597644e+14	1.287042e+04	7.226123e+03	4.313578e+03	0	1.092777e-03
7.800000e+08	5.500389e+13	0.000000e+00	7.279410e-01	9.147416e+14	1.036457e+15	1.590114e+14	1.285184e+04	7.227995e+03	4.314695e+03	0	1.087943e-03
7.900000e+08	5.427647e+13	0.000000e+00	7.279410e-01	9.081226e+14	1.037677e+15	1.582637e+14	1.283339e+04	7.229500e+03	4.315594e+03	0	1.083125e-03
8.000000e+08	5.355802e+13	0.000000e+00	7.279410e-01	9.015817e+14	1.038614e+15	1.575211e+14	1.281508e+04	7.230656e+03	4.316283e+03	0	1.078325e-03
8.100000e+08	5.284844e+13	0.000000e+00	7.279410e-01	8.951182e+14	1.039280e+15	1.567837e+14	1.279689e+04	7.231477e+03	4.316773e+03	0	1.073542e-03
8.200000e+08	5.214762e+13	0.000000e+00	7.279410e-01	8.887311e+14	1.039685e+15	1.560514e+14	1.277884e+04	7.231976e+03	4.317072e+03	0	1.068775e-03
8.300000e+08	5.145546e+13	0.000000e+00	7.279410e-01	8.824195e+14	1.039842e+15	1.553242e+14	1.276092e+04	7.232169e+03	4.317187e+03	0	1.064025e-03
8.400000e+08	5.077184e+13	0.000000e+00	7.279410e-01	8.761824e+14	1.039760e+15	1.546020e+14	1.274312e+04	7.232069e+03	4.317127e+03	0	1.059292e-03
8.500000e+08	5.009664e+13	0.000000e+00	7.279410e-01	8.700188e+14	1.039451e+15	1.538847e+14	1.272545e+04	7.231688e+03	4.316900e+03	0	1.054576e-03
8.600000e+08	4.942977e+13	0.000000e+00	7.279410e-01	8.639276e+14	1.038925e+15	1.531725e+14	1.270791e+04	7.231039e+03	4.316512e+03	0	1.049875e-03
8.700000e+08	4.877109e+13	0.000000e+00	7.279410e-01	8.579080e+14	1.038191e+15	1.524651e+14	1.269048e+04	7.230135e+03	4.315972e+03	0	1.045191e-03
8.800000e+08	4.812049e+13	0.000000e+00	7.279410e-01	8.519590e+14	1.037260e+15	1.517626e+14	1.267318e+04	7.228986e+03	4.315286e+03	0	1.040523e-03
8.900000e+08	4.747786e+13	0.000000e+00	7.279410e-01	8.460794e+14	1.036140e+15	1.510649e+14	1.265600e+04	7.227603e+03	4.314461e+03	0	1.035870e-03
9.000000e+08	4.684307e+13	0.000000e+00	7.279410e-01	8.402683e+14	1.034842e+15	1.503720e+14	1.263893e+04	7.225999e+03	4.313503e+03	0	1.031233e-03
9.100000e+08	4.621602e+13	0.000000e+00	7.279410e-01	8.345247e+14	1.033373e+15	1.496838e+14	1.262198e+04	7.224182e+03	4.312419e+03	0	1.026610e-03
9.200000e+08	4.559658e+13	0.000000e+00	7.279410e-01	8.288475e+14	1.031742e+15	1.490004e+14	1.260515e+04	7.222163e+03	4.311213e+03	0	1.022003e-03
9.300000e+08	4.498464e+13	0.000000e+00	7.279410e-01	8.232359e+14	1.029958e+15	1.483216e+14	1.258843e+04	7.219950e+03	4.309893e+03	0	1.017411e-03
9.400000e+08	4.438008e+13	0.000000e+00	7.279410e-01	8.176888e+14	1.028028e+15	1.476475e+14	1.257183e+04	7.217554e+03	4.308463e+03	0	1.012832e-03
9.500000e+08	4.378280e+13	0.000000e+00	7.279410e-01	8.122052e+14	1.025960e+15	1.469780e+14	1.255534e+04	7.214983e+03	4.306928e+03	0	1.008268e-03
9.600000e+08	4.319266e+13	0.000000e+00	7.279410e-01	8.067841e+14	1.023761e+15	1.463130e+14	1.253895e+04	7.212246e+03	4.305294e+03	0	1.003717e-03
9.700000e+08	4.260958e+13	0.000000e+00	7.279410e-01	8.014246e+14	1.021439e+15	1.456526e+14	1.252268e+04	7.209350e+03	4.303565e+03	0	9.991804e-04
9.800000e+08	4.203342e+13	0.000000e+00	7.279410e-01	7.961257e+14	1.018999e+15	1.449967e+14	1.250651e+04	7.206303e+03	4.301746e+03	0	9.946564e-04
9.900000e+08	4.146409e+13	0.000000e+00	7.279410e-01	7.908866e+14	1.016450e+15	1.443452e+14	1.249045e+04	7.203113e+03	4.299842e+03	0	9.901452e-04
1.000000e+09	4.090148e+13	0.000000e+00	7.279410e-01	7.857062e+14	1.013797e+15	1.436981e+14	1.247450e+04	7.199786e+03	4.297856e+03	0	9.856464e-04
1.010000e+09	4.034548e+13	0.000000e+00	7.279410e-01	7.805836e+14	1.011045e+15	1.430555e+14	1.245865e+04	7.196330e+03	4.295793e+03	0	9.811598e-04
1.020000e+09	3.979598e+13	0.000000e+00	7.279410e-01	7.755180e+14	1.008202e+15	1.424172e+14	1.244290e+04	7.192751e+03	4.293656e+03	0	9.766850e-04
1.030000e+09	3.925288e+13	0.000000e+00	7.279410e-01	7.705085e+14	1.005272e+15	1.417832e+14	1.242726e+04	7.189055e+03	4.291450e+03	0	9.722217e-04
1.040000e+09	3.871608e+13	0.000000e+00	7.279410e-01	7.655542e+14	1.002261e+15	1.411535e+14	1.241172e+04	7.185248e+03	4.289178e+03	0	9.677696e-04
1.050000e+09	3.818549e+13	0.000000e+00	7.279410e-01	7.606542e+14	9.991730e+14	1.405280e+14	1.239627e+04	7.181337e+03	4.286843e+03	0	9.633282e-04
1.060000e+09	3.766099e+13	0.000000e+00	7.279410e-01	7.558078e+14	9.960141e+14	1.399068e+14	1.238093e+04	7.177325e+03	4.284448e+03	0	9.588973e-04
1.070000e+09	3.714251e+13	0.000000e+00	7.279410e-01	7.510139e+14	9.927885e+14	1.392897e+14	1.236568e+04	7.173220e+03	4.281998e+03	0	9.544765e-04
1.080000e+09	3.662993e+13	0.000000e+00	7.279410e-01	7.462720e+14	9.895007e+14	1.386768e+14	1.235053e+04	7.169025e+03	4.279494e+03	0	9.500654e-04
1.090000e+09	3.612317e+13	0.000000e+00	7.279410e-01	7.415811e+14	9.861550e+14	1.380680e+14	1.233547e+04	7.164746e+03	4.276939e+03	0	9.456638e-04
1.100000e+09	3.562214e+13	0.000000e+00	7.279410e-01	7.369405e+14	9.827552e+14	1.374634e+14	1.232051e+04	7.160387e+03	4.274337e+03	0	9.412713e-04
1.110000e+09	3.512674e+13	0.000000e+00	7.279410e-01	7.323494e+14	9.793054e+14	1.368627e+14	1.230564e+04	7.155953e+03	4.271690e+03	0	9.368875e-04
1.120000e+09	3.463690e+13	0.000000e+00	7.279410e-01	7.278070e+14	9.758093e+14	1.362661e+14	1.229087e+04	7.151447e+03	4.269000e+03	0	9.325121e-04
1.130000e+09	3.415251e+13	0.000000e+00	7.279410e-01	7.233126e+14	9.722704e+14	1.356735e+14	1.227618e+04	7.146875e+03	4.266271e+03	0	9.281447e-04
1.140000e+09	3.367350e+13	0.000000e+00	7.279410e-01	7.188655e+14	9.686922e+14	1.350848e+14	1.226159e+04	7.142239e+03	4.263503e+03	0	9.237850e-04
1.150000e+09	3.319979e+13	0.000000e+00	7.279410e-01	7.144649e+14	9.650777e+14	1.345001e+14	1.224709e+04	7.137543e+03	4.260700e+03	0	9.194326e-04
1.160000e+09	3.273128e+13	0.000000e+00	7.279410e-01	7.101102e+14	9.614301e+14	1.339193e+14	1.223267e+04	7.132791e+03	4.257864e+03	0	9.150872e-04
1.170000e+09	3.226791e+13	0.000000e+00	7.279410e-01	7.058006e+14	9.577523e+14	1.333423e+14	1.221834e+04	7.127987e+03	4.254996e+03	0	9.107484e-04
1.180000e+09	3.180959e+13	0.000000e+00	7.279410e-01	7.015355e+14	9.540472e+14	1.327692e+14	1.220410e+04	7.123133e+03	4.252098e+03	0	9.064159e-04
1.190000e+09	3.135625e+13	0.000000e+00	7.279410e-01	6.973143e+14	9.503172e+14	1.321999e+14	1.218995e+04	7.118232e+03	4.249173e+03	0	9.020893e-04
1.200000e+09	3.090781e+13	0.000000e+00	7.279410e-01	6.931362e+14	9.465648e+14	1.316344e+14	1.217588e+04	7.113289e+03	4.246222e+03	0	8.977682e-04
1.210000e+09	3.046420e+13	0.000000e+00	7.279410e-01	6.890007e+14	9.427927e+14	1.310726e+14	1.216189e+04	7.108304e+03	4.243247e+03	0	8.934523e-04
1.220000e+09	3.002533e+13	0.000000e+00	7.279410e-01	6.849070e+14	9.390028e+14	1.305145e+14	1.214799e+04	7.103282e+03	4.240249e+03	0	8.891413e-04
1.230000e+09	2.959116e+13	0.000000e+00	7.279410e-01	6.808547e+14	9.351981e+14	1.299602e+14	1.213417e+04	7.098224e+03	4.237229e+03	0	8.848347e-04
1.240000e+09	2.916159e+13	0.000000e+00	7.279410e-01	6.768430e+14	9.313793e+14	1.294095e+14	1.212043e+04	7.093134e+03	4.234191e+03	0	8.805321e-04
1.250000e+09	2.873657e+13	0.000000e+00	7.279410e-01	6.728715e+14	9.275497e+14	1.288624e+14	1.210677e+04	7.088013e+03	4.231134e+03	0	8.762333e-04
1.260000e+09	2.831602e+13	0.000000e+00	7.279410e-01	6.689395e+14	9.237102e+14	1.283189e+14	1.209319e+04	7.082863e+03	4.228060e+03	0	8.719379e-04
1.270000e+09	2.789989e+13	0.000000e+00	7.279410e-01	6.650464e+14	9.198631e+14	1.277791e+14	1.207969e+04	7.077688e+03	4.224970e+03	0	8.676455e-04
1.280000e+09	2.748810e+13	0.000000e+00	7.279410e-01	6.611917e+14	9.160099e+14	1.272427e+14	1.206627e+04	7.072488e+03	4.221866e+03	0	8.633556e-04
1.290000e+09	2.708059e+13	0.000000e+00	7.279410e-01	6.573749e+14	9.121523e+14	1.267099e+14	1.205293e+04	7.067266e+03	4.218749e+03	0	8.590680e-04
1.300000e+09	2.667731e+13	0.000000e+00	7.279410e-01	6.535954e+14	9.082916e+14	1.261806e+14	1.203966e+04	7.062024e+03	4.215620e+03	0	8.547823e-04
1.310000e+09	2.627819e+13	0.000000e+00	7.279410e-01	6.498527e+14	9.044291e+14	1.256548e+14	1.202647e+04	7.056764e+03	4.212480e+03	0	8.504980e-04
1.320000e+09	2.588316e+13	0.000000e+00	7.279410e-01	6.461463e+14	9.005665e+14	1.251324e+14	1.201336e+04	7.051487e+03	4.209330e+03	0	8.462147e-04
1.330000e+09	2.549218e+13	0.000000e+00	7.279410e-01	6.424756e+14	8.967050e+14	1.246134e+14	1.200032e+04	7.046194e+03	4.206170e+03	0	8.419322e-04
1.340000e+09	2.510518e+13	0.000000e+00	7.279410e-01	6.388402e+14	8.928459e+14	1.240978e+14	1.198735e+04	7.040888e+03	4.203003e+03	0	8.376500e-04
1.350000e+09	2.472211e+13	0.000000e+00	7.279410e-01	6.352396e+14	8.889902e+14	1.235856e+14	1.197446e+04	7.035570e+03	4.199828e+03	0	8.333677e-04
1.360000e+09	2.434291e+13	0.000000e+00	7.279410e-01	6.316733e+14	8.851387e+14	1.230767e+14	1.196164e+04	7.030241e+03	4.196647e+03	0	8.290848e-04
