#t		Qconv[W]	Ri[Rp]		R*[Rp]		Qc[W]		Qm[W]		Qr[W]		Tcmb[K]		Tl[K]		Tup[K]		RiFlag		Bs[T]
0.000000e+00	2.065833e+14	0.000000e+00	7.333331e-01	2.410864e+15	5.594088e+13	2.565955e+14	1.703249e+04	4.909010e+03	2.814300e+03	0	1.678595e-03
1.000000e+07	2.072961e+14	0.000000e+00	7.333331e-01	2.414524e+15	6.508039e+13	2.551738e+14	1.699175e+04	5.010609e+03	2.872546e+03	0	1.680524e-03
2.000000e+07	2.078857e+14	0.000000e+00	7.333331e-01	2.417219e+15	7.530902e+13	2.537627e+14	1.695094e+04	5.111917e+03	2.930625e+03	0	1.682115e-03
3.000000e+07	2.083503e+14	0.000000e+00	7.333331e-01	2.418935e+15	8.669714e+13	2.523621e+14	1.691009e+04	5.212855e+03	2.988492e+03	0	1.683367e-03
4.000000e+07	2.086884e+14	0.000000e+00	7.333331e-01	2.419662e+15	9.931208e+13	2.509720e+14	1.686922e+04	5.313337e+03	3.046098e+03	0	1.684277e-03
5.000000e+07	2.088990e+14	0.000000e+00	7.333331e-01	2.419393e+15	1.132170e+14	2.495923e+14	1.682833e+04	5.413278e+03	3.103393e+03	0	1.684844e-03
6.000000e+07	2.089813e+14	0.000000e+00	7.333331e-01	2.418123e+15	1.284699e+14	2.482229e+14	1.678744e+04	5.512586e+03	3.160325e+03	0	1.685065e-03
7.000000e+07	2.089352e+14	0.000000e+00	7.333331e-01	2.415850e+15	1.451224e+14	2.468636e+14	1.674658e+04	5.611169e+03	3.216843e+03	0	1.684941e-03
8.000000e+07	2.087608e+14	0.000000e+00	7.333331e-01	2.412576e+15	1.632185e+14	2.455145e+14	1.670575e+04	5.708935e+03	3.272891e+03	0	1.684472e-03
9.000000e+07	2.084587e+14	0.000000e+00	7.333331e-01	2.408308e+15	1.827939e+14	2.441754e+14	1.666498e+04	5.805786e+03	3.328415e+03	0	1.683659e-03
1.000000e+08	2.080299e+14	0.000000e+00	7.333331e-01	2.403054e+15	2.038748e+14	2.428462e+14	1.662429e+04	5.901626e+03	3.383359e+03	0	1.682504e-03
1.100000e+08	2.074760e+14	0.000000e+00	7.333331e-01	2.396826e+15	2.264768e+14	2.415269e+14	1.658368e+04	5.996358e+03	3.437669e+03	0	1.681010e-03
1.200000e+08	2.067990e+14	0.000000e+00	7.333331e-01	2.389643e+15	2.506046e+14	2.402174e+14	1.654317e+04	6.089886e+03	3.491288e+03	0	1.679179e-03
1.300000e+08	2.060014e+14	0.000000e+00	7.333331e-01	2.381522e+15	2.762508e+14	2.389176e+14	1.650279e+04	6.182113e+03	3.544161e+03	0	1.677018e-03
1.400000e+08	2.050861e+14	0.000000e+00	7.333331e-01	2.372489e+15	3.033959e+14	2.376274e+14	1.646254e+04	6.272944e+03	3.596233e+03	0	1.674530e-03
1.500000e+08	2.040564e+14	0.000000e+00	7.333331e-01	2.362570e+15	3.320078e+14	2.363467e+14	1.642245e+04	6.362286e+03	3.647452e+03	0	1.671723e-03
1.600000e+08	2.029162e+14	0.000000e+00	7.333331e-01	2.351795e+15	3.620417e+14	2.350755e+14	1.638252e+04	6.450048e+03	3.697766e+03	0	1.668603e-03
1.700000e+08	2.016697e+14	0.000000e+00	7.333331e-01	2.340199e+15	3.934402e+14	2.338137e+14	1.634278e+04	6.536143e+03	3.747123e+03	0	1.665180e-03
1.800000e+08	2.003214e+14	0.000000e+00	7.333331e-01	2.327817e+15	4.261339e+14	2.325612e+14	1.630323e+04	6.620488e+03	3.795478e+03	0	1.661461e-03
1.900000e+08	1.988764e+14	0.000000e+00	7.333331e-01	2.314688e+15	4.600412e+14	2.313179e+14	1.626388e+04	6.703003e+03	3.842783e+03	0	1.657456e-03
2.000000e+08	1.973397e+14	0.000000e+00	7.333331e-01	2.300855e+15	4.950698e+14	2.300837e+14	1.622477e+04	6.783615e+03	3.888997e+03	0	1.653176e-03
2.100000e+08	1.957168e+14	0.000000e+00	7.333331e-01	2.286359e+15	5.311174e+14	2.288587e+14	1.618588e+04	6.862253e+03	3.934080e+03	0	1.648632e-03
2.200000e+08	1.940135e+14	0.000000e+00	7.333331e-01	2.271246e+15	5.680727e+14	2.276426e+14	1.614724e+04	6.938856e+03	3.977996e+03	0	1.643835e-03
2.300000e+08	1.922355e+14	0.000000e+00	7.333331e-01	2.255563e+15	6.058163e+14	2.264354e+14	1.610885e+04	7.013366e+03	4.020712e+03	0	1.638798e-03
2.400000e+08	1.903889e+14	0.000000e+00	7.333331e-01	2.239355e+15	6.442227e+14	2.252371e+14	1.607073e+04	7.085734e+03	4.062200e+03	0	1.633534e-03
2.500000e+08	1.884795e+14	0.000000e+00	7.333331e-01	2.222670e+15	6.831613e+14	2.240476e+14	1.603288e+04	7.155915e+03	4.102434e+03	0	1.628054e-03
2.600000e+08	1.865135e+14	0.000000e+00	7.333331e-01	2.205556e+15	7.224976e+14	2.228668e+14	1.599531e+04	7.223873e+03	4.141394e+03	0	1.622374e-03
2.700000e+08	1.844969e+14	0.000000e+00	7.333331e-01	2.188060e+15	7.620957e+14	2.216946e+14	1.595803e+04	7.289580e+03	4.179063e+03	0	1.616506e-03
2.800000e+08	1.824355e+14	0.000000e+00	7.333331e-01	2.170228e+15	8.018189e+14	2.205310e+14	1.592105e+04	7.353013e+03	4.215429e+03	0	1.610463e-03
2.900000e+08	1.803353e+14	0.000000e+00	7.333331e-01	2.152107e+15	8.415314e+14	2.193759e+14	1.588436e+04	7.414157e+03	4.250482e+03	0	1.604259e-03
3.000000e+08	1.782019e+14	0.000000e+00	7.333331e-01	2.133741e+15	8.810998e+14	2.182291e+14	1.584798e+04	7.473004e+03	4.284219e+03	0	1.597908e-03
3.100000e+08	1.760408e+14	0.000000e+00	7.333331e-01	2.115173e+15	9.203941e+14	2.170908e+14	1.581192e+04	7.529553e+03	4.316638e+03	0	1.591422e-03
3.200000e+08	1.738572e+14	0.000000e+00	7.333331e-01	2.096445e+15	9.592899e+14	2.159607e+14	1.577616e+04	7.583810e+03	4.347743e+03	0	1.584814e-03
3.300000e+08	1.716563e+14	0.000000e+00	7.333331e-01	2.077595e+15	9.976682e+14	2.148389e+14	1.574072e+04	7.635786e+03	4.377541e+03	0	1.578098e-03
3.400000e+08	1.694427e+14	0.000000e+00	7.333331e-01	2.058663e+15	1.035416e+15	2.137252e+14	1.570560e+04	7.685500e+03	4.406041e+03	0	1.571286e-03
3.500000e+08	1.672212e+14	0.000000e+00	7.333331e-01	2.039682e+15	1.072430e+15	2.126195e+14	1.567080e+04	7.732975e+03	4.433259e+03	0	1.564389e-03
3.600000e+08	1.649958e+14	0.000000e+00	7.333331e-01	2.020686e+15	1.108613e+15	2.115219e+14	1.563631e+04	7.778241e+03	4.459209e+03	0	1.557418e-03
3.700000e+08	1.627705e+14	0.000000e+00	7.333331e-01	2.001706e+15	1.143877e+15	2.104322e+14	1.560215e+04	7.821331e+03	4.483912e+03	0	1.550385e-03
3.800000e+08	1.605490e+14	0.000000e+00	7.333331e-01	1.982771e+15	1.178144e+15	2.093505e+14	1.556831e+04	7.862283e+03	4.507389e+03	0	1.543299e-03
3.900000e+08	1.583346e+14	0.000000e+00	7.333331e-01	1.963906e+15	1.211345e+15	2.082765e+14	1.553479e+04	7.901139e+03	4.529666e+03	0	1.536171e-03
4.000000e+08	1.561304e+14	0.000000e+00	7.333331e-01	1.945136e+15	1.243418e+15	2.072103e+14	1.550158e+04	7.937947e+03	4.550767e+03	0	1.529009e-03
4.100000e+08	1.539392e+14	0.000000e+00	7.333331e-01	1.926482e+15	1.274314e+15	2.061518e+14	1.546870e+04	7.972753e+03	4.570722e+03	0	1.521822e-03
4.200000e+08	1.517635e+14	0.000000e+00	7.333331e-01	1.907964e+15	1.303988e+15	2.051009e+14	1.543612e+04	8.005611e+03	4.589559e+03	0	1.514619e-03
4.300000e+08	1.496054e+14	0.000000e+00	7.333331e-01	1.889598e+15	1.332408e+15	2.040576e+14	1.540386e+04	8.036574e+03	4.607309e+03	0	1.507405e-03
4.400000e+08	1.474671e+14	0.000000e+00	7.333331e-01	1.871401e+15	1.359548e+15	2.030218e+14	1.537191e+04	8.065697e+03	4.624006e+03	0	1.500189e-03
4.500000e+08	1.453502e+14	0.000000e+00	7.333331e-01	1.853386e+15	1.385392e+15	2.019934e+14	1.534027e+04	8.093038e+03	4.639680e+03	0	1.492976e-03
4.600000e+08	1.432562e+14	0.000000e+00	7.333331e-01	1.835563e+15	1.409927e+15	2.009724e+14	1.530893e+04	8.118655e+03	4.654366e+03	0	1.485771e-03
4.700000e+08	1.411864e+14	0.000000e+00	7.333331e-01	1.817944e+15	1.433151e+15	1.999588e+14	1.527789e+04	8.142607e+03	4.668097e+03	0	1.478581e-03
4.800000e+08	1.391419e+14	0.000000e+00	7.333331e-01	1.800537e+15	1.455068e+15	1.989524e+14	1.524715e+04	8.164952e+03	4.680908e+03	0	1.471409e-03
4.900000e+08	1.371236e+14	0.000000e+00	7.333331e-01	1.783347e+15	1.475685e+15	1.979532e+14	1.521670e+04	8.185751e+03	4.692832e+03	0	1.464260e-03
5.000000e+08	1.351322e+14	0.000000e+00	7.333331e-01	1.766382e+15	1.495017e+15	1.969611e+14	1.518654e+04	8.205063e+03	4.703903e+03	0	1.457137e-03
5.100000e+08	1.331684e+14	0.000000e+00	7.333331e-01	1.749645e+15	1.513081e+15	1.959762e+14	1.515666e+04	8.222946e+03	4.714155e+03	0	1.450044e-03
5.200000e+08	1.312324e+14	0.000000e+00	7.333331e-01	1.733139e+15	1.529902e+15	1.949982e+14	1.512707e+04	8.239458e+03	4.723621e+03	0	1.442983e-03
5.300000e+08	1.293248e+14	0.000000e+00	7.333331e-01	1.716867e+15	1.545504e+15	1.940273e+14	1.509776e+04	8.254657e+03	4.732335e+03	0	1.435957e-03
5.400000e+08	1.274456e+14	0.000000e+00	7.333331e-01	1.700830e+15	1.559916e+15	1.930632e+14	1.506873e+04	8.268599e+03	4.740328e+03	0	1.428968e-03
5.500000e+08	1.255949e+14	0.000000e+00	7.333331e-01	1.685029e+15	1.573172e+15	1.921060e+14	1.503996e+04	8.281339e+03	4.747632e+03	0	1.422017e-03
5.600000e+08	1.237727e+14	0.000000e+00	7.333331e-01	1.669463e+15	1.585303e+15	1.911557e+14	1.501146e+04	8.292932e+03	4.754277e+03	0	1.415107e-03
5.700000e+08	1.219790e+14	0.000000e+00	7.333331e-01	1.654131e+15	1.596347e+15	1.902120e+14	1.498322e+04	8.303429e+03	4.760295e+03	0	1.408237e-03
5.800000e+08	1.202135e+14	0.000000e+00	7.333331e-01	1.639032e+15	1.606340e+15	1.892751e+14	1.495524e+04	8.312882e+03	4.765715e+03	0	1.401410e-03
5.900000e+08	1.184762e+14	0.000000e+00	7.333331e-01	1.624165e+15	1.615319e+15	1.883448e+14	1.492752e+04	8.321340e+03	4.770564e+03	0	1.394626e-03
6.000000e+08	1.167666e+14	0.000000e+00	7.333331e-01	1.609526e+15	1.623324e+15	1.874211e+14	1.490004e+04	8.328851e+03	4.774870e+03	0	1.387886e-03
6.100000e+08	1.150845e+14	0.000000e+00	7.333331e-01	1.595114e+15	1.630394e+15	1.865039e+14	1.487282e+04	8.335463e+03	4.778660e+03	0	1.381189e-03
6.200000e+08	1.134295e+14	0.000000e+00	7.333331e-01	1.580924e+15	1.636566e+15	1.855932e+14	1.484583e+04	8.341219e+03	4.781960e+03	0	1.374536e-03
6.300000e+08	1.118013e+14	0.000000e+00	7.333331e-01	1.566955e+15	1.641881e+15	1.846890e+14	1.481909e+04	8.346162e+03	4.784794e+03	0	1.367928e-03
6.400000e+08	1.101994e+14	0.000000e+00	7.333331e-01	1.553202e+15	1.646378e+15	1.837911e+14	1.479258e+04	8.350335e+03	4.787187e+03	0	1.361363e-03
6.500000e+08	1.086234e+14	0.000000e+00	7.333331e-01	1.539663e+15	1.650093e+15	1.828995e+14	1.476631e+04	8.353777e+03	4.789160e+03	0	1.354842e-03
6.600000e+08	1.070728e+14	0.000000e+00	7.333331e-01	1.526333e+15	1.653065e+15	1.820142e+14	1.474026e+04	8.356526e+03	4.790736e+03	0	1.348364e-03
6.700000e+08	1.055472e+14	0.000000e+00	7.333331e-01	1.513208e+15	1.655330e+15	1.811352e+14	1.471444e+04	8.358620e+03	4.791936e+03	0	1.341930e-03
6.800000e+08	1.040461e+14	0.000000e+00	7.333331e-01	1.500286e+15	1.656925e+15	1.802623e+14	1.468883e+04	8.360092e+03	4.792780e+03	0	1.335538e-03
6.900000e+08	1.025690e+14	0.000000e+00	7.333331e-01	1.487561e+15	1.657884e+15	1.793955e+14	1.466345e+04	8.360977e+03	4.793287e+03	0	1.329188e-03
7.000000e+08	1.011155e+14	0.000000e+00	7.333331e-01	1.475030e+15	1.658241e+15	1.785348e+14	1.463828e+04	8.361307e+03	4.793476e+03	0	1.322879e-03
7.100000e+08	9.968503e+13	0.000000e+00	7.333331e-01	1.462689e+15	1.658030e+15	1.776802e+14	1.461333e+04	8.361112e+03	4.793365e+03	0	1.316611e-03
7.200000e+08	9.827713e+13	0.000000e+00	7.333331e-01	1.450534e+15	1.657282e+15	1.768315e+14	1.458858e+04	8.360421e+03	4.792969e+03	0	1.310383e-03
7.300000e+08	9.689133e+13	0.000000e+00	7.333331e-01	1.438561e+15	1.656027e+15	1.759887e+14	1.456403e+04	8.359263e+03	4.792305e+03	0	1.304195e-03
7.400000e+08	9.552714e+13	0.000000e+00	7.333331e-01	1.426767e+15	1.654296e+15	1.751519e+14	1.453969e+04	8.357664e+03	4.791388e+03	0	1.298045e-03
7.500000e+08	9.418411e+13	0.000000e+00	7.333331e-01	1.415147e+15	1.652116e+15	1.743208e+14	1.451555e+04	8.355649e+03	4.790233e+03	0	1.291933e-03
7.600000e+08	9.286176e+13	0.000000e+00	7.333331e-01	1.403698e+15	1.649515e+15	1.734956e+14	1.449160e+04	8.353241e+03	4.788853e+03	0	1.285858e-03
7.700000e+08	9.155964e+13	0.000000e+00	7.333331e-01	1.392415e+15	1.646517e+15	1.726761e+14	1.446785e+04	8.350465e+03	4.787261e+03	0	1.279820e-03
7.800000e+08	9.027730e+13	0.000000e+00	7.333331e-01	1.381297e+15	1.643151e+15	1.718622e+14	1.444429e+04	8.347341e+03	4.785470e+03	0	1.273817e-03
7.900000e+08	8.901431e+13	0.000000e+00	7.333331e-01	1.370338e+15	1.639436e+15	1.710541e+14	1.442091e+04	8.343890e+03	4.783491e+03	0	1.267849e-03
8.000000e+08	8.777024e+13	0.000000e+00	7.333331e-01	1.359535e+15	1.635399e+15	1.702515e+14	1.439772e+04	8.340131e+03	4.781337e+03	0	1.261915e-03
8.100000e+08	8.654466e+13	0.000000e+00	7.333331e-01	1.348886e+15	1.631059e+15	1.694545e+14	1.437471e+04	8.336084e+03	4.779016e+03	0	1.256013e-03
8.200000e+08	8.533717e+13	0.000000e+00	7.333331e-01	1.338386e+15	1.626437e+15	1.686630e+14	1.435189e+04	8.331765e+03	4.776541e+03	0	1.250145e-03
8.300000e+08	8.414737e+13	0.000000e+00	7.333331e-01	1.328033e+15	1.621553e+15	1.678770e+14	1.432924e+04	8.327192e+03	4.773919e+03	0	1.244308e-03
8.400000e+08	8.297486e+13	0.000000e+00	7.333331e-01	1.317823e+15	1.616426e+15	1.670965e+14	1.430676e+04	8.322379e+03	4.771160e+03	0	1.238501e-03
8.500000e+08	8.181927e+13	0.000000e+00	7.333331e-01	1.307753e+15	1.611072e+15	1.663213e+14	1.428446e+04	8.317343e+03	4.768272e+03	0	1.232725e-03
8.600000e+08	8.068023e+13	0.000000e+00	7.333331e-01	1.297821e+15	1.605508e+15	1.655514e+14	1.426232e+04	8.312097e+03	4.765265e+03	0	1.226977e-03
8.700000e+08	7.955738e+13	0.000000e+00	7.333331e-01	1.288022e+15	1.599751e+15	1.647869e+14	1.424036e+04	8.306654e+03	4.762144e+03	0	1.221259e-03
8.800000e+08	7.845036e+13	0.000000e+00	7.333331e-01	1.278355e+15	1.593816e+15	1.640276e+14	1.421856e+04	8.301028e+03	4.758919e+03	0	1.215568e-03
8.900000e+08	7.735885e+13	0.000000e+00	7.333331e-01	1.268817e+15	1.587716e+15	1.632735e+14	1.419692e+04	8.295230e+03	4.755595e+03	0	1.209904e-03
9.000000e+08	7.628250e+13	0.000000e+00	7.333331e-01	1.259405e+15	1.581465e+15	1.625246e+14	1.417544e+04	8.289271e+03	4.752179e+03	0	1.204266e-03
9.100000e+08	7.522099e+13	0.000000e+00	7.333331e-01	1.250116e+15	1.575076e+15	1.617808e+14	1.415413e+04	8.283163e+03	4.748677e+03	0	1.198654e-03
9.200000e+08	7.417402e+13	0.000000e+00	7.333331e-01	1.240948e+15	1.568560e+15	1.610422e+14	1.413297e+04	8.276915e+03	4.745095e+03	0	1.193067e-03
9.300000e+08	7.314128e+13	0.000000e+00	7.333331e-01	1.231899e+15	1.561929e+15	1.603086e+14	1.411196e+04	8.270538e+03	4.741439e+03	0	1.187504e-03
9.400000e+08	7.212248e+13	0.000000e+00	7.333331e-01	1.222965e+15	1.555193e+15	1.595800e+14	1.409111e+04	8.264040e+03	4.737714e+03	0	1.181964e-03
9.500000e+08	7.111732e+13	0.000000e+00	7.333331e-01	1.214145e+15	1.548362e+15	1.588563e+14	1.407041e+04	8.257430e+03	4.733925e+03	0	1.176448e-03
9.600000e+08	7.012554e+13	0.000000e+00	7.333331e-01	1.205437e+15	1.541447e+15	1.581376e+14	1.404985e+04	8.250716e+03	4.730075e+03	0	1.170953e-03
9.700000e+08	6.914686e+13	0.000000e+00	7.333331e-01	1.196838e+15	1.534455e+15	1.574238e+14	1.402945e+04	8.243905e+03	4.726171e+03	0	1.165481e-03
9.800000e+08	6.818101e+13	0.000000e+00	7.333331e-01	1.188346e+15	1.527395e+15	1.567149e+14	1.400919e+04	8.237006e+03	4.722216e+03	0	1.160029e-03
9.900000e+08	6.722775e+13	0.000000e+00	7.333331e-01	1.179958e+15	1.520275e+15	1.560108e+14	1.398907e+04	8.230024e+03	4.718213e+03	0	1.154597e-03
1.000000e+09	6.628682e+13	0.000000e+00	7.333331e-01	1.171674e+15	1.513102e+15	1.553114e+14	1.396909e+04	8.222966e+03	4.714167e+03	0	1.149185e-03
1.010000e+09	6.535799e+13	0.000000e+00	7.333331e-01	1.163491e+15	1.505884e+15	1.546168e+14	1.394926e+04	8.215839e+03	4.710081e+03	0	1.143792e-03
1.020000e+09	6.444102e+13	0.000000e+00	7.333331e-01	1.155407e+15	1.498626e+15	1.539269e+14	1.392956e+04	8.208649e+03	4.705959e+03	0	1.138418e-03
1.030000e+09	6.353568e+13	0.000000e+00	7.333331e-01	1.147420e+15	1.491335e+15	1.532417e+14	1.391000e+04	8.201399e+03	4.701803e+03	0	1.133061e-03
1.040000e+09	6.264175e+13	0.000000e+00	7.333331e-01	1.139529e+15	1.484017e+15	1.525611e+14	1.389057e+04	8.194097e+03	4.697616e+03	0	1.127722e-03
1.050000e+09	6.175902e+13	0.000000e+00	7.333331e-01	1.131731e+15	1.476677e+15	1.518851e+14	1.387128e+04	8.186746e+03	4.693402e+03	0	1.122400e-03
1.060000e+09	6.088727e+13	0.000000e+00	7.333331e-01	1.124025e+15	1.469319e+15	1.512136e+14	1.385212e+04	8.179352e+03	4.689163e+03	0	1.117094e-03
1.070000e+09	6.002632e+13	0.000000e+00	7.333331e-01	1.116410e+15	1.461949e+15	1.505467e+14	1.383309e+04	8.171918e+03	4.684901e+03	0	1.111804e-03
1.080000e+09	5.917594e+13	0.000000e+00	7.333331e-01	1.108883e+15	1.454571e+15	1.498843e+14	1.381418e+04	8.164448e+03	4.680619e+03	0	1.106528e-03
1.090000e+09	5.833596e+13	0.000000e+00	7.333331e-01	1.101443e+15	1.447189e+15	1.492263e+14	1.379541e+04	8.156948e+03	4.676319e+03	0	1.101268e-03
1.100000e+09	5.750618e+13	0.000000e+00	7.333331e-01	1.094089e+15	1.439807e+15	1.485728e+14	1.377676e+04	8.149419e+03	4.672003e+03	0	1.096021e-03
1.110000e+09	5.668643e+13	0.000000e+00	7.333331e-01	1.086820e+15	1.432429e+15	1.479236e+14	1.375823e+04	8.141866e+03	4.667673e+03	0	1.090789e-03
1.120000e+09	5.587652e+13	0.000000e+00	7.333331e-01	1.079632e+15	1.425058e+15	1.472787e+14	1.373983e+04	8.134292e+03	4.663330e+03	0	1.085569e-03
1.130000e+09	5.507628e+13	0.000000e+00	7.333331e-01	1.072526e+15	1.417697e+15	1.466382e+14	1.372155e+04	8.126700e+03	4.658978e+03	0	1.080361e-03
1.140000e+09	5.428555e+13	0.000000e+00	7.333331e-01	1.065500e+15	1.410348e+15	1.460020e+14	1.370339e+04	8.119092e+03	4.654617e+03	0	1.075166e-03
1.150000e+09	5.350415e+13	0.000000e+00	7.333331e-01	1.058552e+15	1.403016e+15	1.453700e+14	1.368535e+04	8.111473e+03	4.650248e+03	0	1.069983e-03
1.160000e+09	5.273193e+13	0.000000e+00	7.333331e-01	1.051682e+15	1.395702e+15	1.447423e+14	1.366742e+04	8.103843e+03	4.645874e+03	0	1.064810e-03
1.170000e+09	5.196873e+13	0.000000e+00	7.333331e-01	1.044887e+15	1.388408e+15	1.441187e+14	1.364961e+04	8.096206e+03	4.641496e+03	0	1.059648e-03
1.180000e+09	5.121440e+13	0.000000e+00	7.333331e-01	1.038167e+15	1.381137e+15	1.434992e+14	1.363192e+04	8.088563e+03	4.637114e+03	0	1.054496e-03
1.190000e+09	5.046878e+13	0.000000e+00	7.333331e-01	1.031520e+15	1.373891e+15	1.428839e+14	1.361434e+04	8.080918e+03	4.632731e+03	0	1.049354e-03
1.200000e+09	4.973174e+13	0.000000e+00	7.333331e-01	1.024946e+15	1.366672e+15	1.422727e+14	1.359687e+04	8.073271e+03	4.628348e+03	0	1.044220e-03
1.210000e+09	4.900314e+13	0.000000e+00	7.333331e-01	1.018443e+15	1.359481e+15	1.416655e+14	1.357951e+04	8.065625e+03	4.623964e+03	0	1.039096e-03
1.220000e+09	4.828282e+13	0.000000e+00	7.333331e-01	1.012009e+15	1.352320e+15	1.410623e+14	1.356226e+04	8.057982e+03	4.619583e+03	0	1.033979e-03
1.230000e+09	4.757067e+13	0.000000e+00	7.333331e-01	1.005645e+15	1.345190e+15	1.404632e+14	1.354513e+04	8.050343e+03	4.615203e+03	0	1.028870e-03
1.240000e+09	4.686654e+13	0.000000e+00	7.333331e-01	9.993479e+14	1.338093e+15	1.398680e+14	1.352810e+04	8.042710e+03	4.610827e+03	0	1.023769e-03
1.250000e+09	4.617031e+13	0.000000e+00	7.333331e-01	9.931177e+14	1.331031e+15	1.392767e+14	1.351117e+04	8.035085e+03	4.606456e+03	0	1.018674e-03
1.260000e+09	4.548185e+13	0.000000e+00	7.333331e-01	9.869531e+14	1.324003e+15	1.386893e+14	1.349435e+04	8.027468e+03	4.602089e+03	0	1.013585e-03
1.270000e+09	4.480103e+13	0.000000e+00	7.333331e-01	9.808532e+14	1.317013e+15	1.381058e+14	1.347764e+04	8.019861e+03	4.597728e+03	0	1.008502e-03
1.280000e+09	4.412775e+13	0.000000e+00	7.333331e-01	9.748168e+14	1.310059e+15	1.375261e+14	1.346102e+04	8.012266e+03	4.593374e+03	0	1.003425e-03
1.290000e+09	4.346187e+13	0.000000e+00	7.333331e-01	9.688431e+14	1.303143e+15	1.369503e+14	1.344451e+04	8.004683e+03	4.589027e+03	0	9.983520e-04
1.300000e+09	4.280329e+13	0.000000e+00	7.333331e-01	9.629311e+14	1.296266e+15	1.363782e+14	1.342810e+04	7.997114e+03	4.584687e+03	0	9.932836e-04
1.310000e+09	4.215190e+13	0.000000e+00	7.333331e-01	9.570799e+14	1.289429e+15	1.358099e+14	1.341179e+04	7.989559e+03	4.580356e+03	0	9.882191e-04
1.320000e+09	4.150757e+13	0.000000e+00	7.333331e-01	9.512886e+14	1.282632e+15	1.352452e+14	1.339558e+04	7.982020e+03	4.576034e+03	0	9.831580e-04
1.330000e+09	4.087021e+13	0.000000e+00	7.333331e-01	9.455562e+14	1.275876e+15	1.346843e+14	1.337947e+04	7.974497e+03	4.571721e+03	0	9.780998e-04
1.340000e+09	4.023971e+13	0.000000e+00	7.333331e-01	9.398819e+14	1.269161e+15	1.341271e+14	1.336346e+04	7.966992e+03	4.567419e+03	0	9.730440e-04
1.350000e+09	3.961596e+13	0.000000e+00	7.333331e-01	9.342649e+14	1.262488e+15	1.335735e+14	1.334754e+04	7.959504e+03	4.563126e+03	0	9.679901e-04
1.360000e+09	3.899887e+13	0.000000e+00	7.333331e-01	9.287043e+14	1.255858e+15	1.330235e+14	1.333171e+04	7.952036e+03	4.558844e+03	0	9.629377e-04
