#t		Qconv[W]	Ri[Rp]		R*[Rp]		Qc[W]		Qm[W]		Qr[W]		Tcmb[K]		Tl[K]		Tup[K]		RiFlag		Bs[T]
0.000000e+00	2.065489e+15	0.000000e+00	7.205880e-01	1.726053e+16	5.012513e+13	2.963166e+14	2.810840e+04	6.134465e+03	2.867832e+03	0	3.640716e-03
1.000000e+07	2.049132e+15	0.000000e+00	7.205880e-01	1.712177e+16	1.042057e+14	2.946748e+14	2.784944e+04	6.777711e+03	3.168546e+03	0	3.631080e-03
2.000000e+07	2.023361e+15	0.000000e+00	7.205880e-01	1.691177e+16	1.936900e+14	2.930453e+14	2.759251e+04	7.413184e+03	3.465627e+03	0	3.615794e-03
3.000000e+07	1.988693e+15	0.000000e+00	7.205880e-01	1.663453e+16	3.292627e+14	2.914279e+14	2.733870e+04	8.036764e+03	3.757148e+03	0	3.595024e-03
4.000000e+07	1.945890e+15	0.000000e+00	7.205880e-01	1.629587e+16	5.203063e+14	2.898227e+14	2.708900e+04	8.644106e+03	4.041077e+03	0	3.569044e-03
5.000000e+07	1.895941e+15	0.000000e+00	7.205880e-01	1.590335e+16	7.735252e+14	2.882294e+14	2.684433e+04	9.230775e+03	4.315342e+03	0	3.538241e-03
6.000000e+07	1.840027e+15	0.000000e+00	7.205880e-01	1.546595e+16	1.091826e+15	2.866479e+14	2.660551e+04	9.792439e+03	4.577917e+03	0	3.503111e-03
7.000000e+07	1.779463e+15	0.000000e+00	7.205880e-01	1.499369e+16	1.473649e+15	2.850783e+14	2.637320e+04	1.032507e+04	4.826919e+03	0	3.464247e-03
8.000000e+07	1.715636e+15	0.000000e+00	7.205880e-01	1.449710e+16	1.912884e+15	2.835203e+14	2.614794e+04	1.082514e+04	5.060701e+03	0	3.422322e-03
9.000000e+07	1.649921e+15	0.000000e+00	7.205880e-01	1.398663e+16	2.399368e+15	2.819739e+14	2.593008e+04	1.128983e+04	5.277940e+03	0	3.378057e-03
1.000000e+08	1.583615e+15	0.000000e+00	7.205880e-01	1.347212e+16	2.919895e+15	2.804390e+14	2.571984e+04	1.171712e+04	5.477696e+03	0	3.332185e-03
1.100000e+08	1.517872e+15	0.000000e+00	7.205880e-01	1.296230e+16	3.459515e+15	2.789155e+14	2.551729e+04	1.210588e+04	5.659438e+03	0	3.285420e-03
1.200000e+08	1.453662e+15	0.000000e+00	7.205880e-01	1.246455e+16	4.002938e+15	2.774032e+14	2.532236e+04	1.245586e+04	5.823052e+03	0	3.238423e-03
1.300000e+08	1.391749e+15	0.000000e+00	7.205880e-01	1.198463e+16	4.535772e+15	2.759022e+14	2.513487e+04	1.276763e+04	5.968803e+03	0	3.191779e-03
1.400000e+08	1.332689e+15	0.000000e+00	7.205880e-01	1.152674e+16	5.045510e+15	2.744123e+14	2.495455e+04	1.304247e+04	6.097292e+03	0	3.145976e-03
1.500000e+08	1.276844e+15	0.000000e+00	7.205880e-01	1.109360e+16	5.522114e+15	2.729334e+14	2.478109e+04	1.328224e+04	6.209384e+03	0	3.101404e-03
1.600000e+08	1.224403e+15	0.000000e+00	7.205880e-01	1.068664e+16	5.958287e+15	2.714654e+14	2.461411e+04	1.348921e+04	6.306140e+03	0	3.058351e-03
1.700000e+08	1.175419e+15	0.000000e+00	7.205880e-01	1.030621e+16	6.349385e+15	2.700082e+14	2.445322e+04	1.366592e+04	6.388749e+03	0	3.017010e-03
1.800000e+08	1.129834e+15	0.000000e+00	7.205880e-01	9.951878e+15	6.693179e+15	2.685618e+14	2.429802e+04	1.381505e+04	6.458466e+03	0	2.977493e-03
1.900000e+08	1.087514e+15	0.000000e+00	7.205880e-01	9.622589e+15	6.989442e+15	2.671261e+14	2.414814e+04	1.393931e+04	6.516556e+03	0	2.939843e-03
2.000000e+08	1.048272e+15	0.000000e+00	7.205880e-01	9.316912e+15	7.239495e+15	2.657009e+14	2.400318e+04	1.404135e+04	6.564260e+03	0	2.904049e-03
2.100000e+08	1.011893e+15	0.000000e+00	7.205880e-01	9.033186e+15	7.445806e+15	2.642861e+14	2.386280e+04	1.412370e+04	6.602758e+03	0	2.870058e-03
2.200000e+08	9.781449e+14	0.000000e+00	7.205880e-01	8.769647e+15	7.611575e+15	2.628818e+14	2.372668e+04	1.418871e+04	6.633153e+03	0	2.837790e-03
2.300000e+08	9.467973e+14	0.000000e+00	7.205880e-01	8.524524e+15	7.740417e+15	2.614878e+14	2.359450e+04	1.423857e+04	6.656461e+03	0	2.807145e-03
2.400000e+08	9.176255e+14	0.000000e+00	7.205880e-01	8.296101e+15	7.836131e+15	2.601040e+14	2.346600e+04	1.427523e+04	6.673600e+03	0	2.778013e-03
2.500000e+08	8.904177e+14	0.000000e+00	7.205880e-01	8.082757e+15	7.902478e+15	2.587303e+14	2.334092e+04	1.430046e+04	6.685395e+03	0	2.750281e-03
2.600000e+08	8.649780e+14	0.000000e+00	7.205880e-01	7.882995e+15	7.943087e+15	2.573667e+14	2.321904e+04	1.431583e+04	6.692580e+03	0	2.723835e-03
2.700000e+08	8.411275e+14	0.000000e+00	7.205880e-01	7.695449e+15	7.961341e+15	2.560131e+14	2.310016e+04	1.432272e+04	6.695803e+03	0	2.698566e-03
2.800000e+08	8.187050e+14	0.000000e+00	7.205880e-01	7.518885e+15	7.960364e+15	2.546693e+14	2.298409e+04	1.432235e+04	6.695629e+03	0	2.674371e-03
2.900000e+08	7.975663e+14	0.000000e+00	7.205880e-01	7.352201e+15	7.942952e+15	2.533354e+14	2.287066e+04	1.431578e+04	6.692556e+03	0	2.651153e-03
3.000000e+08	7.775832e+14	0.000000e+00	7.205880e-01	7.194418e+15	7.911617e+15	2.520112e+14	2.275974e+04	1.430393e+04	6.687015e+03	0	2.628824e-03
3.100000e+08	7.586422e+14	0.000000e+00	7.205880e-01	7.044667e+15	7.868580e+15	2.506966e+14	2.265118e+04	1.428759e+04	6.679377e+03	0	2.607303e-03
3.200000e+08	7.406432e+14	0.000000e+00	7.205880e-01	6.902185e+15	7.815775e+15	2.493916e+14	2.254487e+04	1.426746e+04	6.669967e+03	0	2.586518e-03
3.300000e+08	7.234982e+14	0.000000e+00	7.205880e-01	6.766296e+15	7.754897e+15	2.480961e+14	2.244070e+04	1.424414e+04	6.659063e+03	0	2.566404e-03
3.400000e+08	7.071296e+14	0.000000e+00	7.205880e-01	6.636408e+15	7.687405e+15	2.468100e+14	2.233856e+04	1.421813e+04	6.646904e+03	0	2.546902e-03
3.500000e+08	6.914693e+14	0.000000e+00	7.205880e-01	6.511999e+15	7.614558e+15	2.455332e+14	2.223838e+04	1.418987e+04	6.633696e+03	0	2.527960e-03
3.600000e+08	6.764574e+14	0.000000e+00	7.205880e-01	6.392610e+15	7.537435e+15	2.442657e+14	2.214006e+04	1.415976e+04	6.619617e+03	0	2.509532e-03
3.700000e+08	6.620410e+14	0.000000e+00	7.205880e-01	6.277837e+15	7.456962e+15	2.430073e+14	2.204353e+04	1.412810e+04	6.604819e+03	0	2.491576e-03
3.800000e+08	6.481736e+14	0.000000e+00	7.205880e-01	6.167322e+15	7.373927e+15	2.417581e+14	2.194873e+04	1.409519e+04	6.589431e+03	0	2.474056e-03
3.900000e+08	6.348139e+14	0.000000e+00	7.205880e-01	6.060751e+15	7.288991e+15	2.405179e+14	2.185558e+04	1.406125e+04	6.573566e+03	0	2.456940e-03
4.000000e+08	6.219255e+14	0.000000e+00	7.205880e-01	5.957842e+15	7.202724e+15	2.392866e+14	2.176404e+04	1.402650e+04	6.557318e+03	0	2.440199e-03
4.100000e+08	6.094759e+14	0.000000e+00	7.205880e-01	5.858348e+15	7.115602e+15	2.380642e+14	2.167404e+04	1.399110e+04	6.540771e+03	0	2.423807e-03
4.200000e+08	5.974363e+14	0.000000e+00	7.205880e-01	5.762047e+15	7.028025e+15	2.368507e+14	2.158554e+04	1.395521e+04	6.523994e+03	0	2.407741e-03
4.300000e+08	5.857809e+14	0.000000e+00	7.205880e-01	5.668739e+15	6.940328e+15	2.356459e+14	2.149848e+04	1.391896e+04	6.507047e+03	0	2.391980e-03
4.400000e+08	5.744866e+14	0.000000e+00	7.205880e-01	5.578247e+15	6.852795e+15	2.344497e+14	2.141283e+04	1.388246e+04	6.489982e+03	0	2.376507e-03
4.500000e+08	5.635323e+14	0.000000e+00	7.205880e-01	5.490411e+15	6.765659e+15	2.332621e+14	2.132853e+04	1.384580e+04	6.472841e+03	0	2.361305e-03
4.600000e+08	5.528995e+14	0.000000e+00	7.205880e-01	5.405086e+15	6.679109e+15	2.320831e+14	2.124555e+04	1.380905e+04	6.455663e+03	0	2.346360e-03
4.700000e+08	5.425710e+14	0.000000e+00	7.205880e-01	5.322141e+15	6.593317e+15	2.309125e+14	2.116386e+04	1.377229e+04	6.438479e+03	0	2.331657e-03
4.800000e+08	5.325313e+14	0.000000e+00	7.205880e-01	5.241456e+15	6.508403e+15	2.297503e+14	2.108341e+04	1.373558e+04	6.421316e+03	0	2.317186e-03
4.900000e+08	5.227663e+14	0.000000e+00	7.205880e-01	5.162921e+15	6.424471e+15	2.285965e+14	2.100418e+04	1.369896e+04	6.404197e+03	0	2.302935e-03
5.000000e+08	5.132630e+14	0.000000e+00	7.205880e-01	5.086438e+15	6.341612e+15	2.274508e+14	2.092612e+04	1.366248e+04	6.387142e+03	0	2.288895e-03
5.100000e+08	5.040095e+14	0.000000e+00	7.205880e-01	5.011914e+15	6.259886e+15	2.263134e+14	2.084922e+04	1.362617e+04	6.370167e+03	0	2.275056e-03
5.200000e+08	4.949949e+14	0.000000e+00	7.205880e-01	4.939263e+15	6.179349e+15	2.251841e+14	2.077344e+04	1.359006e+04	6.353286e+03	0	2.261410e-03
5.300000e+08	4.862089e+14	0.000000e+00	7.205880e-01	4.868409e+15	6.100041e+15	2.240628e+14	2.069875e+04	1.355417e+04	6.336510e+03	0	2.247951e-03
5.400000e+08	4.776423e+14	0.000000e+00	7.205880e-01	4.799278e+15	6.021988e+15	2.229496e+14	2.062512e+04	1.351854e+04	6.319849e+03	0	2.234670e-03
5.500000e+08	4.692863e+14	0.000000e+00	7.205880e-01	4.731801e+15	5.945208e+15	2.218442e+14	2.055253e+04	1.348316e+04	6.303312e+03	0	2.221562e-03
5.600000e+08	4.611326e+14	0.000000e+00	7.205880e-01	4.665916e+15	5.869713e+15	2.207467e+14	2.048096e+04	1.344807e+04	6.286905e+03	0	2.208621e-03
5.700000e+08	4.531736e+14	0.000000e+00	7.205880e-01	4.601564e+15	5.795507e+15	2.196570e+14	2.041039e+04	1.341326e+04	6.270632e+03	0	2.195840e-03
5.800000e+08	4.454022e+14	0.000000e+00	7.205880e-01	4.538689e+15	5.722593e+15	2.185750e+14	2.034078e+04	1.337875e+04	6.254499e+03	0	2.183216e-03
5.900000e+08	4.378117e+14	0.000000e+00	7.205880e-01	4.477238e+15	5.650965e+15	2.175007e+14	2.027211e+04	1.334455e+04	6.238509e+03	0	2.170742e-03
6.000000e+08	4.303956e+14	0.000000e+00	7.205880e-01	4.417162e+15	5.580610e+15	2.164340e+14	2.020437e+04	1.331065e+04	6.222665e+03	0	2.158416e-03
6.100000e+08	4.231481e+14	0.000000e+00	7.205880e-01	4.358415e+15	5.511522e+15	2.153749e+14	2.013754e+04	1.327708e+04	6.206968e+03	0	2.146232e-03
6.200000e+08	4.160633e+14	0.000000e+00	7.205880e-01	4.300953e+15	5.443684e+15	2.143232e+14	2.007159e+04	1.324382e+04	6.191419e+03	0	2.134186e-03
6.300000e+08	4.091361e+14	0.000000e+00	7.205880e-01	4.244733e+15	5.377081e+15	2.132790e+14	2.000650e+04	1.321088e+04	6.176020e+03	0	2.122275e-03
6.400000e+08	4.023612e+14	0.000000e+00	7.205880e-01	4.189717e+15	5.311696e+15	2.122421e+14	1.994226e+04	1.317826e+04	6.160772e+03	0	2.110496e-03
6.500000e+08	3.957338e+14	0.000000e+00	7.205880e-01	4.135865e+15	5.247506e+15	2.112125e+14	1.987885e+04	1.314596e+04	6.145673e+03	0	2.098844e-03
6.600000e+08	3.892493e+14	0.000000e+00	7.205880e-01	4.083144e+15	5.184496e+15	2.101902e+14	1.981625e+04	1.311399e+04	6.130724e+03	0	2.087317e-03
6.700000e+08	3.829033e+14	0.000000e+00	7.205880e-01	4.031517e+15	5.122643e+15	2.091750e+14	1.975444e+04	1.308233e+04	6.115925e+03	0	2.075912e-03
6.800000e+08	3.766916e+14	0.000000e+00	7.205880e-01	3.980952e+15	5.061923e+15	2.081670e+14	1.969341e+04	1.305099e+04	6.101274e+03	0	2.064625e-03
6.900000e+08	3.706102e+14	0.000000e+00	7.205880e-01	3.931418e+15	5.002321e+15	2.071661e+14	1.963315e+04	1.301997e+04	6.086771e+03	0	2.053454e-03
7.000000e+08	3.646553e+14	0.000000e+00	7.205880e-01	3.882886e+15	4.943808e+15	2.061722e+14	1.957363e+04	1.298926e+04	6.072414e+03	0	2.042396e-03
7.100000e+08	3.588231e+14	0.000000e+00	7.205880e-01	3.835325e+15	4.886364e+15	2.051852e+14	1.951484e+04	1.295886e+04	6.058203e+03	0	2.031449e-03
7.200000e+08	3.531101e+14	0.000000e+00	7.205880e-01	3.788709e+15	4.829968e+15	2.042051e+14	1.945677e+04	1.292877e+04	6.044135e+03	0	2.020610e-03
7.300000e+08	3.475130e+14	0.000000e+00	7.205880e-01	3.743011e+15	4.774597e+15	2.032319e+14	1.939940e+04	1.289898e+04	6.030210e+03	0	2.009877e-03
7.400000e+08	3.420285e+14	0.000000e+00	7.205880e-01	3.698206e+15	4.720234e+15	2.022655e+14	1.934271e+04	1.286950e+04	6.016426e+03	0	1.999248e-03
7.500000e+08	3.366534e+14	0.000000e+00	7.205880e-01	3.654268e+15	4.666848e+15	2.013058e+14	1.928671e+04	1.284031e+04	6.002781e+03	0	1.988719e-03
7.600000e+08	3.313848e+14	0.000000e+00	7.205880e-01	3.611176e+15	4.614425e+15	2.003528e+14	1.923136e+04	1.281142e+04	5.989273e+03	0	1.978290e-03
7.700000e+08	3.262197e+14	0.000000e+00	7.205880e-01	3.568905e+15	4.562938e+15	1.994064e+14	1.917667e+04	1.278281e+04	5.975902e+03	0	1.967958e-03
7.800000e+08	3.211555e+14	0.000000e+00	7.205880e-01	3.527435e+15	4.512374e+15	1.984666e+14	1.912261e+04	1.275450e+04	5.962665e+03	0	1.957722e-03
7.900000e+08	3.161893e+14	0.000000e+00	7.205880e-01	3.486743e+15	4.462704e+15	1.975334e+14	1.906918e+04	1.272647e+04	5.949560e+03	0	1.947578e-03
8.000000e+08	3.113185e+14	0.000000e+00	7.205880e-01	3.446811e+15	4.413915e+15	1.966066e+14	1.901636e+04	1.269871e+04	5.936587e+03	0	1.937526e-03
8.100000e+08	3.065408e+14	0.000000e+00	7.205880e-01	3.407617e+15	4.365984e+15	1.956862e+14	1.896415e+04	1.267124e+04	5.923742e+03	0	1.927563e-03
8.200000e+08	3.018537e+14	0.000000e+00	7.205880e-01	3.369144e+15	4.318892e+15	1.947722e+14	1.891252e+04	1.264404e+04	5.911024e+03	0	1.917688e-03
8.300000e+08	2.972547e+14	0.000000e+00	7.205880e-01	3.331372e+15	4.272618e+15	1.938645e+14	1.886148e+04	1.261710e+04	5.898432e+03	0	1.907899e-03
8.400000e+08	2.927418e+14	0.000000e+00	7.205880e-01	3.294285e+15	4.227147e+15	1.929631e+14	1.881100e+04	1.259043e+04	5.885963e+03	0	1.898195e-03
8.500000e+08	2.883127e+14	0.000000e+00	7.205880e-01	3.257865e+15	4.182460e+15	1.920679e+14	1.876109e+04	1.256402e+04	5.873617e+03	0	1.888573e-03
8.600000e+08	2.839653e+14	0.000000e+00	7.205880e-01	3.222095e+15	4.138539e+15	1.911789e+14	1.871172e+04	1.253786e+04	5.861390e+03	0	1.879032e-03
8.700000e+08	2.796976e+14	0.000000e+00	7.205880e-01	3.186961e+15	4.095367e+15	1.902960e+14	1.866289e+04	1.251196e+04	5.849282e+03	0	1.869571e-03
8.800000e+08	2.755075e+14	0.000000e+00	7.205880e-01	3.152445e+15	4.052926e+15	1.894192e+14	1.861460e+04	1.248631e+04	5.837291e+03	0	1.860189e-03
8.900000e+08	2.713933e+14	0.000000e+00	7.205880e-01	3.118533e+15	4.011201e+15	1.885484e+14	1.856682e+04	1.246091e+04	5.825414e+03	0	1.850883e-03
9.000000e+08	2.673530e+14	0.000000e+00	7.205880e-01	3.085211e+15	3.970176e+15	1.876835e+14	1.851956e+04	1.243575e+04	5.813651e+03	0	1.841652e-03
9.100000e+08	2.633848e+14	0.000000e+00	7.205880e-01	3.052465e+15	3.929836e+15	1.868246e+14	1.847280e+04	1.241083e+04	5.802000e+03	0	1.832495e-03
9.200000e+08	2.594871e+14	0.000000e+00	7.205880e-01	3.020281e+15	3.890163e+15	1.859716e+14	1.842653e+04	1.238614e+04	5.790459e+03	0	1.823410e-03
9.300000e+08	2.556581e+14	0.000000e+00	7.205880e-01	2.988645e+15	3.851146e+15	1.851244e+14	1.838075e+04	1.236168e+04	5.779026e+03	0	1.814397e-03
9.400000e+08	2.518962e+14	0.000000e+00	7.205880e-01	2.957545e+15	3.812767e+15	1.842831e+14	1.833545e+04	1.233746e+04	5.767700e+03	0	1.805454e-03
9.500000e+08	2.481998e+14	0.000000e+00	7.205880e-01	2.926969e+15	3.775015e+15	1.834474e+14	1.829061e+04	1.231346e+04	5.756480e+03	0	1.796579e-03
9.600000e+08	2.445675e+14	0.000000e+00	7.205880e-01	2.896904e+15	3.737875e+15	1.826175e+14	1.824624e+04	1.228968e+04	5.745363e+03	0	1.787772e-03
9.700000e+08	2.409976e+14	0.000000e+00	7.205880e-01	2.867338e+15	3.701333e+15	1.817932e+14	1.820232e+04	1.226612e+04	5.734349e+03	0	1.779031e-03
9.800000e+08	2.374889e+14	0.000000e+00	7.205880e-01	2.838262e+15	3.665376e+15	1.809745e+14	1.815885e+04	1.224277e+04	5.723435e+03	0	1.770355e-03
9.900000e+08	2.340397e+14	0.000000e+00	7.205880e-01	2.809662e+15	3.629993e+15	1.801613e+14	1.811582e+04	1.221964e+04	5.712621e+03	0	1.761742e-03
1.000000e+09	2.306489e+14	0.000000e+00	7.205880e-01	2.781529e+15	3.595170e+15	1.793537e+14	1.807321e+04	1.219671e+04	5.701904e+03	0	1.753193e-03
1.010000e+09	2.273151e+14	0.000000e+00	7.205880e-01	2.753852e+15	3.560896e+15	1.785516e+14	1.803104e+04	1.217400e+04	5.691284e+03	0	1.744705e-03
1.020000e+09	2.240370e+14	0.000000e+00	7.205880e-01	2.726621e+15	3.527158e+15	1.777549e+14	1.798928e+04	1.215148e+04	5.680759e+03	0	1.736277e-03
1.030000e+09	2.208133e+14	0.000000e+00	7.205880e-01	2.699826e+15	3.493948e+15	1.769636e+14	1.794793e+04	1.212917e+04	5.670327e+03	0	1.727909e-03
1.040000e+09	2.176429e+14	0.000000e+00	7.205880e-01	2.673458e+15	3.461249e+15	1.761777e+14	1.790699e+04	1.210705e+04	5.659988e+03	0	1.719600e-03
1.050000e+09	2.145245e+14	0.000000e+00	7.205880e-01	2.647507e+15	3.429055e+15	1.753970e+14	1.786644e+04	1.208513e+04	5.649740e+03	0	1.711347e-03
1.060000e+09	2.114571e+14	0.000000e+00	7.205880e-01	2.621965e+15	3.397354e+15	1.746216e+14	1.782629e+04	1.206340e+04	5.639582e+03	0	1.703151e-03
1.070000e+09	2.084395e+14	0.000000e+00	7.205880e-01	2.596822e+15	3.366135e+15	1.738515e+14	1.778653e+04	1.204186e+04	5.629512e+03	0	1.695011e-03
1.080000e+09	2.054706e+14	0.000000e+00	7.205880e-01	2.572070e+15	3.335390e+15	1.730865e+14	1.774714e+04	1.202051e+04	5.619529e+03	0	1.686925e-03
1.090000e+09	2.025494e+14	0.000000e+00	7.205880e-01	2.547701e+15	3.305108e+15	1.723267e+14	1.770813e+04	1.199934e+04	5.609633e+03	0	1.678892e-03
1.100000e+09	1.996748e+14	0.000000e+00	7.205880e-01	2.523707e+15	3.275279e+15	1.715719e+14	1.766948e+04	1.197835e+04	5.599821e+03	0	1.670912e-03
1.110000e+09	1.968459e+14	0.000000e+00	7.205880e-01	2.500079e+15	3.245892e+15	1.708223e+14	1.763120e+04	1.195754e+04	5.590092e+03	0	1.662984e-03
1.120000e+09	1.940617e+14	0.000000e+00	7.205880e-01	2.476810e+15	3.216942e+15	1.700776e+14	1.759328e+04	1.193691e+04	5.580446e+03	0	1.655106e-03
1.130000e+09	1.913213e+14	0.000000e+00	7.205880e-01	2.453893e+15	3.188419e+15	1.693379e+14	1.755570e+04	1.191645e+04	5.570881e+03	0	1.647278e-03
1.140000e+09	1.886236e+14	0.000000e+00	7.205880e-01	2.431320e+15	3.160313e+15	1.686032e+14	1.751848e+04	1.189616e+04	5.561397e+03	0	1.639499e-03
1.150000e+09	1.859679e+14	0.000000e+00	7.205880e-01	2.409085e+15	3.132616e+15	1.678734e+14	1.748159e+04	1.187604e+04	5.551991e+03	0	1.631768e-03
1.160000e+09	1.833533e+14	0.000000e+00	7.205880e-01	2.387180e+15	3.105320e+15	1.671485e+14	1.744504e+04	1.185609e+04	5.542663e+03	0	1.624085e-03
1.170000e+09	1.807788e+14	0.000000e+00	7.205880e-01	2.365599e+15	3.078418e+15	1.664283e+14	1.740882e+04	1.183630e+04	5.533413e+03	0	1.616448e-03
1.180000e+09	1.782438e+14	0.000000e+00	7.205880e-01	2.344334e+15	3.051899e+15	1.657130e+14	1.737293e+04	1.181668e+04	5.524238e+03	0	1.608856e-03
1.190000e+09	1.757473e+14	0.000000e+00	7.205880e-01	2.323381e+15	3.025760e+15	1.650024e+14	1.733736e+04	1.179721e+04	5.515137e+03	0	1.601310e-03
1.200000e+09	1.732886e+14	0.000000e+00	7.205880e-01	2.302732e+15	2.999991e+15	1.642966e+14	1.730211e+04	1.177790e+04	5.506111e+03	0	1.593808e-03
1.210000e+09	1.708670e+14	0.000000e+00	7.205880e-01	2.282382e+15	2.974586e+15	1.635954e+14	1.726716e+04	1.175875e+04	5.497157e+03	0	1.586348e-03
1.220000e+09	1.684817e+14	0.000000e+00	7.205880e-01	2.262324e+15	2.949536e+15	1.628989e+14	1.723253e+04	1.173975e+04	5.488276e+03	0	1.578932e-03
1.230000e+09	1.661319e+14	0.000000e+00	7.205880e-01	2.242553e+15	2.924836e+15	1.622070e+14	1.719820e+04	1.172090e+04	5.479465e+03	0	1.571557e-03
1.240000e+09	1.638170e+14	0.000000e+00	7.205880e-01	2.223064e+15	2.900478e+15	1.615196e+14	1.716417e+04	1.170221e+04	5.470724e+03	0	1.564223e-03
1.250000e+09	1.615362e+14	0.000000e+00	7.205880e-01	2.203850e+15	2.876457e+15	1.608368e+14	1.713043e+04	1.168366e+04	5.462052e+03	0	1.556930e-03
1.260000e+09	1.592889e+14	0.000000e+00	7.205880e-01	2.184907e+15	2.852765e+15	1.601585e+14	1.709698e+04	1.166525e+04	5.453448e+03	0	1.549676e-03
1.270000e+09	1.570745e+14	0.000000e+00	7.205880e-01	2.166228e+15	2.829397e+15	1.594847e+14	1.706382e+04	1.164699e+04	5.444912e+03	0	1.542462e-03
1.280000e+09	1.548923e+14	0.000000e+00	7.205880e-01	2.147810e+15	2.806346e+15	1.588153e+14	1.703095e+04	1.162887e+04	5.436442e+03	0	1.535285e-03
1.290000e+09	1.527416e+14	0.000000e+00	7.205880e-01	2.129648e+15	2.783607e+15	1.581503e+14	1.699835e+04	1.161090e+04	5.428037e+03	0	1.528146e-03
1.300000e+09	1.506219e+14	0.000000e+00	7.205880e-01	2.111735e+15	2.761173e+15	1.574896e+14	1.696602e+04	1.159306e+04	5.419697e+03	0	1.521044e-03
1.310000e+09	1.485326e+14	0.000000e+00	7.205880e-01	2.094068e+15	2.739039e+15	1.568333e+14	1.693397e+04	1.157535e+04	5.411421e+03	0	1.513979e-03
1.320000e+09	1.464730e+14	0.000000e+00	7.205880e-01	2.076642e+15	2.717200e+15	1.561813e+14	1.690218e+04	1.155779e+04	5.403208e+03	0	1.506948e-03
1.330000e+09	1.444427e+14	0.000000e+00	7.205880e-01	2.059453e+15	2.695650e+15	1.555336e+14	1.687066e+04	1.154035e+04	5.395057e+03	0	1.499953e-03
1.340000e+09	1.424411e+14	0.000000e+00	7.205880e-01	2.042496e+15	2.674384e+15	1.548900e+14	1.683940e+04	1.152305e+04	5.386967e+03	0	1.492992e-03
1.350000e+09	1.404675e+14	0.000000e+00	7.205880e-01	2.025767e+15	2.653397e+15	1.542507e+14	1.680839e+04	1.150587e+04	5.378938e+03	0	1.486065e-03
1.360000e+09	1.385216e+14	0.000000e+00	7.205880e-01	2.009261e+15	2.632683e+15	1.536156e+14	1.677764e+04	1.148883e+04	5.370970e+03	0	1.479171e-03
