#t		Qconv[W]	Ri[Rp]		R*[Rp]		Qc[W]		Qm[W]		Qr[W]		Tcmb[K]		Tl[K]		Tup[K]		RiFlag		Bs[T]
0.000000e+00	2.809546e+14	0.000000e+00	7.185185e-01	4.271348e+15	3.968833e+13	3.800737e+14	2.223834e+04	5.670187e+03	3.003051e+03	0	1.866900e-03
1.000000e+07	2.841090e+14	0.000000e+00	7.185185e-01	4.288951e+15	4.720001e+13	3.779678e+14	2.219412e+04	5.795677e+03	3.069513e+03	0	1.873860e-03
2.000000e+07	2.870728e+14	0.000000e+00	7.185185e-01	4.305195e+15	5.580555e+13	3.758777e+14	2.214972e+04	5.921369e+03	3.136082e+03	0	1.880354e-03
3.000000e+07	2.898401e+14	0.000000e+00	7.185185e-01	4.320040e+15	6.561065e+13	3.738032e+14	2.210515e+04	6.047197e+03	3.202724e+03	0	1.886377e-03
4.000000e+07	2.924049e+14	0.000000e+00	7.185185e-01	4.333447e+15	7.672383e+13	3.717441e+14	2.206042e+04	6.173088e+03	3.269398e+03	0	1.891925e-03
5.000000e+07	2.947619e+14	0.000000e+00	7.185185e-01	4.345379e+15	8.925563e+13	3.697005e+14	2.201556e+04	6.298967e+03	3.336066e+03	0	1.896994e-03
6.000000e+07	2.969060e+14	0.000000e+00	7.185185e-01	4.355801e+15	1.033175e+14	3.676720e+14	2.197058e+04	6.424753e+03	3.402685e+03	0	1.901583e-03
7.000000e+07	2.988324e+14	0.000000e+00	7.185185e-01	4.364683e+15	1.190207e+14	3.656587e+14	2.192548e+04	6.550363e+03	3.469211e+03	0	1.905687e-03
8.000000e+07	3.005370e+14	0.000000e+00	7.185185e-01	4.371996e+15	1.364750e+14	3.636603e+14	2.188030e+04	6.675709e+03	3.535597e+03	0	1.909303e-03
9.000000e+07	3.020160e+14	0.000000e+00	7.185185e-01	4.377716e+15	1.557877e+14	3.616768e+14	2.183504e+04	6.800700e+03	3.601795e+03	0	1.912430e-03
1.000000e+08	3.032663e+14	0.000000e+00	7.185185e-01	4.381823e+15	1.770616e+14	3.597080e+14	2.178972e+04	6.925240e+03	3.667754e+03	0	1.915066e-03
1.100000e+08	3.042854e+14	0.000000e+00	7.185185e-01	4.384300e+15	2.003941e+14	3.577539e+14	2.174435e+04	7.049231e+03	3.733422e+03	0	1.917208e-03
1.200000e+08	3.050713e+14	0.000000e+00	7.185185e-01	4.385136e+15	2.258753e+14	3.558142e+14	2.169897e+04	7.172572e+03	3.798746e+03	0	1.918857e-03
1.300000e+08	3.056228e+14	0.000000e+00	7.185185e-01	4.384323e+15	2.535868e+14	3.538889e+14	2.165357e+04	7.295159e+03	3.863670e+03	0	1.920013e-03
1.400000e+08	3.059394e+14	0.000000e+00	7.185185e-01	4.381861e+15	2.836000e+14	3.519778e+14	2.160818e+04	7.416885e+03	3.928139e+03	0	1.920676e-03
1.500000e+08	3.060214e+14	0.000000e+00	7.185185e-01	4.377752e+15	3.159748e+14	3.500809e+14	2.156282e+04	7.537643e+03	3.992095e+03	0	1.920847e-03
1.600000e+08	3.058697e+14	0.000000e+00	7.185185e-01	4.372005e+15	3.507577e+14	3.481979e+14	2.151750e+04	7.657323e+03	4.055480e+03	0	1.920530e-03
1.700000e+08	3.054862e+14	0.000000e+00	7.185185e-01	4.364636e+15	3.879814e+14	3.463289e+14	2.147224e+04	7.775815e+03	4.118236e+03	0	1.919727e-03
1.800000e+08	3.048736e+14	0.000000e+00	7.185185e-01	4.355663e+15	4.276626e+14	3.444737e+14	2.142706e+04	7.893008e+03	4.180304e+03	0	1.918443e-03
1.900000e+08	3.040351e+14	0.000000e+00	7.185185e-01	4.345113e+15	4.698021e+14	3.426321e+14	2.138197e+04	8.008792e+03	4.241626e+03	0	1.916682e-03
2.000000e+08	3.029750e+14	0.000000e+00	7.185185e-01	4.333017e+15	5.143831e+14	3.408040e+14	2.133698e+04	8.123057e+03	4.302143e+03	0	1.914452e-03
2.100000e+08	3.016984e+14	0.000000e+00	7.185185e-01	4.319412e+15	5.613709e+14	3.389894e+14	2.129213e+04	8.235697e+03	4.361799e+03	0	1.911760e-03
2.200000e+08	3.002109e+14	0.000000e+00	7.185185e-01	4.304340e+15	6.107130e+14	3.371882e+14	2.124741e+04	8.346604e+03	4.420538e+03	0	1.908612e-03
2.300000e+08	2.985190e+14	0.000000e+00	7.185185e-01	4.287847e+15	6.623386e+14	3.354001e+14	2.120285e+04	8.455677e+03	4.478305e+03	0	1.905020e-03
2.400000e+08	2.966299e+14	0.000000e+00	7.185185e-01	4.269985e+15	7.161585e+14	3.336252e+14	2.115846e+04	8.562815e+03	4.535048e+03	0	1.900993e-03
2.500000e+08	2.945513e+14	0.000000e+00	7.185185e-01	4.250811e+15	7.720665e+14	3.318632e+14	2.111425e+04	8.667925e+03	4.590717e+03	0	1.896542e-03
2.600000e+08	2.922916e+14	0.000000e+00	7.185185e-01	4.230385e+15	8.299388e+14	3.301142e+14	2.107024e+04	8.770914e+03	4.645262e+03	0	1.891680e-03
2.700000e+08	2.898597e+14	0.000000e+00	7.185185e-01	4.208770e+15	8.896365e+14	3.283779e+14	2.102645e+04	8.871698e+03	4.698639e+03	0	1.886419e-03
2.800000e+08	2.872648e+14	0.000000e+00	7.185185e-01	4.186033e+15	9.510053e+14	3.266543e+14	2.098288e+04	8.970197e+03	4.750807e+03	0	1.880773e-03
2.900000e+08	2.845167e+14	0.000000e+00	7.185185e-01	4.162243e+15	1.013878e+15	3.249433e+14	2.093954e+04	9.066338e+03	4.801725e+03	0	1.874756e-03
3.000000e+08	2.816254e+14	0.000000e+00	7.185185e-01	4.137472e+15	1.078077e+15	3.232448e+14	2.089644e+04	9.160053e+03	4.851358e+03	0	1.868384e-03
3.100000e+08	2.786010e+14	0.000000e+00	7.185185e-01	4.111792e+15	1.143412e+15	3.215587e+14	2.085361e+04	9.251283e+03	4.899675e+03	0	1.861672e-03
3.200000e+08	2.754539e+14	0.000000e+00	7.185185e-01	4.085277e+15	1.209688e+15	3.198848e+14	2.081104e+04	9.339975e+03	4.946648e+03	0	1.854636e-03
3.300000e+08	2.721945e+14	0.000000e+00	7.185185e-01	4.058001e+15	1.276702e+15	3.182231e+14	2.076874e+04	9.426083e+03	4.992253e+03	0	1.847291e-03
3.400000e+08	2.688333e+14	0.000000e+00	7.185185e-01	4.030039e+15	1.344249e+15	3.165734e+14	2.072673e+04	9.509570e+03	5.036470e+03	0	1.839656e-03
3.500000e+08	2.653806e+14	0.000000e+00	7.185185e-01	4.001463e+15	1.412120e+15	3.149357e+14	2.068500e+04	9.590406e+03	5.079282e+03	0	1.831746e-03
3.600000e+08	2.618465e+14	0.000000e+00	7.185185e-01	3.972347e+15	1.480108e+15	3.133099e+14	2.064357e+04	9.668569e+03	5.120679e+03	0	1.823579e-03
3.700000e+08	2.582411e+14	0.000000e+00	7.185185e-01	3.942760e+15	1.548008e+15	3.116959e+14	2.060244e+04	9.744043e+03	5.160652e+03	0	1.815170e-03
3.800000e+08	2.545740e+14	0.000000e+00	7.185185e-01	3.912771e+15	1.615620e+15	3.100936e+14	2.056161e+04	9.816822e+03	5.199197e+03	0	1.806537e-03
3.900000e+08	2.508548e+14	0.000000e+00	7.185185e-01	3.882448e+15	1.682746e+15	3.085028e+14	2.052110e+04	9.886905e+03	5.236314e+03	0	1.797697e-03
4.000000e+08	2.470924e+14	0.000000e+00	7.185185e-01	3.851853e+15	1.749201e+15	3.069235e+14	2.048090e+04	9.954299e+03	5.272007e+03	0	1.788664e-03
4.100000e+08	2.432955e+14	0.000000e+00	7.185185e-01	3.821049e+15	1.814803e+15	3.053556e+14	2.044101e+04	1.001902e+04	5.306284e+03	0	1.779455e-03
4.200000e+08	2.394724e+14	0.000000e+00	7.185185e-01	3.790093e+15	1.879385e+15	3.037990e+14	2.040145e+04	1.008108e+04	5.339154e+03	0	1.770085e-03
4.300000e+08	2.356308e+14	0.000000e+00	7.185185e-01	3.759041e+15	1.942788e+15	3.022537e+14	2.036220e+04	1.014052e+04	5.370633e+03	0	1.760568e-03
4.400000e+08	2.317780e+14	0.000000e+00	7.185185e-01	3.727943e+15	2.004865e+15	3.007194e+14	2.032328e+04	1.019736e+04	5.400735e+03	0	1.750920e-03
4.500000e+08	2.279209e+14	0.000000e+00	7.185185e-01	3.696848e+15	2.065485e+15	2.991962e+14	2.028467e+04	1.025163e+04	5.429482e+03	0	1.741153e-03
4.600000e+08	2.240658e+14	0.000000e+00	7.185185e-01	3.665800e+15	2.124524e+15	2.976839e+14	2.024639e+04	1.030339e+04	5.456895e+03	0	1.731281e-03
4.700000e+08	2.202186e+14	0.000000e+00	7.185185e-01	3.634841e+15	2.181875e+15	2.961824e+14	2.020843e+04	1.035268e+04	5.482999e+03	0	1.721315e-03
4.800000e+08	2.163847e+14	0.000000e+00	7.185185e-01	3.604008e+15	2.237444e+15	2.946917e+14	2.017078e+04	1.039955e+04	5.507820e+03	0	1.711267e-03
4.900000e+08	2.125689e+14	0.000000e+00	7.185185e-01	3.573336e+15	2.291150e+15	2.932117e+14	2.013346e+04	1.044404e+04	5.531387e+03	0	1.701148e-03
5.000000e+08	2.087758e+14	0.000000e+00	7.185185e-01	3.542855e+15	2.342923e+15	2.917422e+14	2.009645e+04	1.048623e+04	5.553729e+03	0	1.690969e-03
5.100000e+08	2.050093e+14	0.000000e+00	7.185185e-01	3.512594e+15	2.392709e+15	2.902833e+14	2.005976e+04	1.052616e+04	5.574877e+03	0	1.680738e-03
5.200000e+08	2.012730e+14	0.000000e+00	7.185185e-01	3.482578e+15	2.440461e+15	2.888348e+14	2.002338e+04	1.056390e+04	5.594864e+03	0	1.670465e-03
5.300000e+08	1.975700e+14	0.000000e+00	7.185185e-01	3.452828e+15	2.486151e+15	2.873966e+14	1.998732e+04	1.059951e+04	5.613724e+03	0	1.660157e-03
5.400000e+08	1.939032e+14	0.000000e+00	7.185185e-01	3.423364e+15	2.529752e+15	2.859686e+14	1.995155e+04	1.063305e+04	5.631489e+03	0	1.649823e-03
5.500000e+08	1.902750e+14	0.000000e+00	7.185185e-01	3.394203e+15	2.571257e+15	2.845508e+14	1.991610e+04	1.066460e+04	5.648196e+03	0	1.639467e-03
5.600000e+08	1.866873e+14	0.000000e+00	7.185185e-01	3.365358e+15	2.610663e+15	2.831431e+14	1.988094e+04	1.069420e+04	5.663877e+03	0	1.629098e-03
5.700000e+08	1.831421e+14	0.000000e+00	7.185185e-01	3.336841e+15	2.647977e+15	2.817454e+14	1.984609e+04	1.072194e+04	5.678569e+03	0	1.618720e-03
5.800000e+08	1.796407e+14	0.000000e+00	7.185185e-01	3.308663e+15	2.683213e+15	2.803576e+14	1.981152e+04	1.074788e+04	5.692305e+03	0	1.608337e-03
5.900000e+08	1.761843e+14	0.000000e+00	7.185185e-01	3.280832e+15	2.716395e+15	2.789796e+14	1.977725e+04	1.077208e+04	5.705122e+03	0	1.597955e-03
6.000000e+08	1.727738e+14	0.000000e+00	7.185185e-01	3.253353e+15	2.747549e+15	2.776114e+14	1.974327e+04	1.079461e+04	5.717054e+03	0	1.587577e-03
6.100000e+08	1.694101e+14	0.000000e+00	7.185185e-01	3.226232e+15	2.776713e+15	2.762529e+14	1.970957e+04	1.081553e+04	5.728134e+03	0	1.577207e-03
6.200000e+08	1.660935e+14	0.000000e+00	7.185185e-01	3.199471e+15	2.803924e+15	2.749039e+14	1.967615e+04	1.083491e+04	5.738397e+03	0	1.566846e-03
6.300000e+08	1.628244e+14	0.000000e+00	7.185185e-01	3.173073e+15	2.829227e+15	2.735645e+14	1.964301e+04	1.085281e+04	5.747876e+03	0	1.556499e-03
6.400000e+08	1.596029e+14	0.000000e+00	7.185185e-01	3.147037e+15	2.852668e+15	2.722346e+14	1.961014e+04	1.086929e+04	5.756604e+03	0	1.546165e-03
6.500000e+08	1.564291e+14	0.000000e+00	7.185185e-01	3.121365e+15	2.874300e+15	2.709140e+14	1.957754e+04	1.088440e+04	5.764611e+03	0	1.535848e-03
6.600000e+08	1.533028e+14	0.000000e+00	7.185185e-01	3.096053e+15	2.894173e+15	2.696027e+14	1.954520e+04	1.089822e+04	5.771930e+03	0	1.525547e-03
6.700000e+08	1.502238e+14	0.000000e+00	7.185185e-01	3.071101e+15	2.912347e+15	2.683006e+14	1.951313e+04	1.091080e+04	5.778590e+03	0	1.515265e-03
6.800000e+08	1.471918e+14	0.000000e+00	7.185185e-01	3.046506e+15	2.928875e+15	2.670076e+14	1.948131e+04	1.092219e+04	5.784622e+03	0	1.505001e-03
6.900000e+08	1.442063e+14	0.000000e+00	7.185185e-01	3.022264e+15	2.943814e+15	2.657238e+14	1.944975e+04	1.093244e+04	5.790053e+03	0	1.494756e-03
7.000000e+08	1.412667e+14	0.000000e+00	7.185185e-01	2.998371e+15	2.957226e+15	2.644489e+14	1.941844e+04	1.094162e+04	5.794911e+03	0	1.484530e-03
7.100000e+08	1.383726e+14	0.000000e+00	7.185185e-01	2.974822e+15	2.969168e+15	2.631830e+14	1.938738e+04	1.094976e+04	5.799224e+03	0	1.474322e-03
7.200000e+08	1.355233e+14	0.000000e+00	7.185185e-01	2.951614e+15	2.979699e+15	2.619259e+14	1.935656e+04	1.095692e+04	5.803017e+03	0	1.464132e-03
7.300000e+08	1.327181e+14	0.000000e+00	7.185185e-01	2.928741e+15	2.988877e+15	2.606776e+14	1.932598e+04	1.096315e+04	5.806315e+03	0	1.453960e-03
7.400000e+08	1.299564e+14	0.000000e+00	7.185185e-01	2.906197e+15	2.996761e+15	2.594380e+14	1.929564e+04	1.096848e+04	5.809141e+03	0	1.443804e-03
7.500000e+08	1.272373e+14	0.000000e+00	7.185185e-01	2.883977e+15	3.003407e+15	2.582070e+14	1.926552e+04	1.097298e+04	5.811521e+03	0	1.433663e-03
7.600000e+08	1.245601e+14	0.000000e+00	7.185185e-01	2.862076e+15	3.008873e+15	2.569846e+14	1.923564e+04	1.097666e+04	5.813474e+03	0	1.423537e-03
7.700000e+08	1.219241e+14	0.000000e+00	7.185185e-01	2.840487e+15	3.013213e+15	2.557708e+14	1.920599e+04	1.097959e+04	5.815023e+03	0	1.413423e-03
7.800000e+08	1.193285e+14	0.000000e+00	7.185185e-01	2.819205e+15	3.016481e+15	2.545653e+14	1.917656e+04	1.098179e+04	5.816189e+03	0	1.403321e-03
7.900000e+08	1.167724e+14	0.000000e+00	7.185185e-01	2.798224e+15	3.018730e+15	2.533683e+14	1.914735e+04	1.098330e+04	5.816990e+03	0	1.393229e-03
8.000000e+08	1.142551e+14	0.000000e+00	7.185185e-01	2.777537e+15	3.020010e+15	2.521795e+14	1.911835e+04	1.098417e+04	5.817446e+03	0	1.383144e-03
8.100000e+08	1.117757e+14	0.000000e+00	7.185185e-01	2.757140e+15	3.020370e+15	2.509990e+14	1.908957e+04	1.098441e+04	5.817575e+03	0	1.373066e-03
8.200000e+08	1.093336e+14	0.000000e+00	7.185185e-01	2.737025e+15	3.019862e+15	2.498266e+14	1.906100e+04	1.098407e+04	5.817394e+03	0	1.362992e-03
8.300000e+08	1.069277e+14	0.000000e+00	7.185185e-01	2.717188e+15	3.018529e+15	2.486624e+14	1.903264e+04	1.098317e+04	5.816919e+03	0	1.352921e-03
8.400000e+08	1.045575e+14	0.000000e+00	7.185185e-01	2.697621e+15	3.016416e+15	2.475062e+14	1.900448e+04	1.098175e+04	5.816166e+03	0	1.342850e-03
8.500000e+08	1.022221e+14	0.000000e+00	7.185185e-01	2.678321e+15	3.013568e+15	2.463580e+14	1.897653e+04	1.097983e+04	5.815150e+03	0	1.332776e-03
8.600000e+08	9.992081e+13	0.000000e+00	7.185185e-01	2.659281e+15	3.010024e+15	2.452177e+14	1.894877e+04	1.097744e+04	5.813885e+03	0	1.322699e-03
8.700000e+08	9.765281e+13	0.000000e+00	7.185185e-01	2.640495e+15	3.005825e+15	2.440852e+14	1.892122e+04	1.097461e+04	5.812385e+03	0	1.312614e-03
8.800000e+08	9.541741e+13	0.000000e+00	7.185185e-01	2.621958e+15	3.001010e+15	2.429605e+14	1.889385e+04	1.097136e+04	5.810662e+03	0	1.302521e-03
8.900000e+08	9.321387e+13	0.000000e+00	7.185185e-01	2.603665e+15	2.995613e+15	2.418436e+14	1.886668e+04	1.096771e+04	5.808730e+03	0	1.292416e-03
9.000000e+08	9.104151e+13	0.000000e+00	7.185185e-01	2.585611e+15	2.989672e+15	2.407343e+14	1.883970e+04	1.096369e+04	5.806600e+03	0	1.282297e-03
9.100000e+08	8.889963e+13	0.000000e+00	7.185185e-01	2.567790e+15	2.983220e+15	2.396326e+14	1.881290e+04	1.095931e+04	5.804283e+03	0	1.272162e-03
9.200000e+08	8.678758e+13	0.000000e+00	7.185185e-01	2.550198e+15	2.976286e+15	2.385385e+14	1.878629e+04	1.095460e+04	5.801789e+03	0	1.262006e-03
9.300000e+08	8.470469e+13	0.000000e+00	7.185185e-01	2.532829e+15	2.968904e+15	2.374518e+14	1.875986e+04	1.094958e+04	5.799129e+03	0	1.251828e-03
9.400000e+08	8.265033e+13	0.000000e+00	7.185185e-01	2.515680e+15	2.961101e+15	2.363726e+14	1.873361e+04	1.094426e+04	5.796312e+03	0	1.241625e-03
9.500000e+08	8.062388e+13	0.000000e+00	7.185185e-01	2.498745e+15	2.952906e+15	2.353008e+14	1.870754e+04	1.093866e+04	5.793348e+03	0	1.231393e-03
9.600000e+08	7.862474e+13	0.000000e+00	7.185185e-01	2.482020e+15	2.944345e+15	2.342362e+14	1.868164e+04	1.093281e+04	5.790245e+03	0	1.221130e-03
9.700000e+08	7.665233e+13	0.000000e+00	7.185185e-01	2.465501e+15	2.935442e+15	2.331789e+14	1.865591e+04	1.092670e+04	5.787012e+03	0	1.210832e-03
9.800000e+08	7.470607e+13	0.000000e+00	7.185185e-01	2.449183e+15	2.926223e+15	2.321288e+14	1.863036e+04	1.092036e+04	5.783656e+03	0	1.200496e-03
9.900000e+08	7.278541e+13	0.000000e+00	7.185185e-01	2.433063e+15	2.916708e+15	2.310859e+14	1.860497e+04	1.091381e+04	5.780184e+03	0	1.190119e-03
1.000000e+09	7.088982e+13	0.000000e+00	7.185185e-01	2.417136e+15	2.906919e+15	2.300500e+14	1.857975e+04	1.090705e+04	5.776604e+03	0	1.179696e-03
1.010000e+09	6.901877e+13	0.000000e+00	7.185185e-01	2.401399e+15	2.896878e+15	2.290211e+14	1.855470e+04	1.090010e+04	5.772923e+03	0	1.169225e-03
1.020000e+09	6.717175e+13	0.000000e+00	7.185185e-01	2.385847e+15	2.886601e+15	2.279992e+14	1.852981e+04	1.089297e+04	5.769146e+03	0	1.158700e-03
1.030000e+09	6.534828e+13	0.000000e+00	7.185185e-01	2.370477e+15	2.876112e+15	2.269843e+14	1.850508e+04	1.088567e+04	5.765280e+03	0	1.148119e-03
1.040000e+09	6.354787e+13	0.000000e+00	7.185185e-01	2.355286e+15	2.865422e+15	2.259761e+14	1.848051e+04	1.087821e+04	5.761330e+03	0	1.137477e-03
1.050000e+09	6.177005e+13	0.000000e+00	7.185185e-01	2.340270e+15	2.854551e+15	2.249748e+14	1.845609e+04	1.087061e+04	5.757303e+03	0	1.126769e-03
1.060000e+09	6.001439e+13	0.000000e+00	7.185185e-01	2.325425e+15	2.843515e+15	2.239803e+14	1.843183e+04	1.086286e+04	5.753202e+03	0	1.115991e-03
1.070000e+09	5.828044e+13	0.000000e+00	7.185185e-01	2.310750e+15	2.832325e+15	2.229924e+14	1.840773e+04	1.085499e+04	5.749033e+03	0	1.105138e-03
1.080000e+09	5.656778e+13	0.000000e+00	7.185185e-01	2.296239e+15	2.820999e+15	2.220112e+14	1.838378e+04	1.084700e+04	5.744801e+03	0	1.094205e-03
1.090000e+09	5.487599e+13	0.000000e+00	7.185185e-01	2.281890e+15	2.809547e+15	2.210366e+14	1.835997e+04	1.083890e+04	5.740509e+03	0	1.083186e-03
1.100000e+09	5.320468e+13	0.000000e+00	7.185185e-01	2.267701e+15	2.797983e+15	2.200685e+14	1.833632e+04	1.083069e+04	5.736163e+03	0	1.072076e-03
1.110000e+09	5.155345e+13	0.000000e+00	7.185185e-01	2.253668e+15	2.786318e+15	2.191070e+14	1.831281e+04	1.082239e+04	5.731765e+03	0	1.060868e-03
1.120000e+09	4.992192e+13	0.000000e+00	7.185185e-01	2.239789e+15	2.774564e+15	2.181518e+14	1.828945e+04	1.081399e+04	5.727321e+03	0	1.049557e-03
1.130000e+09	4.830974e+13	0.000000e+00	7.185185e-01	2.226060e+15	2.762729e+15	2.172031e+14	1.826623e+04	1.080552e+04	5.722832e+03	0	1.038135e-03
1.140000e+09	4.671654e+13	0.000000e+00	7.185185e-01	2.212480e+15	2.750825e+15	2.162607e+14	1.824315e+04	1.079697e+04	5.718303e+03	0	1.026595e-03
1.150000e+09	4.514197e+13	0.000000e+00	7.185185e-01	2.199044e+15	2.738861e+15	2.153246e+14	1.822021e+04	1.078835e+04	5.713737e+03	0	1.014929e-03
1.160000e+09	4.358571e+13	0.000000e+00	7.185185e-01	2.185752e+15	2.726846e+15	2.143947e+14	1.819741e+04	1.077966e+04	5.709136e+03	0	1.003129e-03
1.170000e+09	4.204742e+13	0.000000e+00	7.185185e-01	2.172601e+15	2.714787e+15	2.134711e+14	1.817475e+04	1.077091e+04	5.704504e+03	0	9.911865e-04
1.180000e+09	4.052677e+13	0.000000e+00	7.185185e-01	2.159587e+15	2.702691e+15	2.125536e+14	1.815223e+04	1.076211e+04	5.699843e+03	0	9.790907e-04
1.190000e+09	3.902348e+13	0.000000e+00	7.185185e-01	2.146709e+15	2.690566e+15	2.116421e+14	1.812984e+04	1.075326e+04	5.695156e+03	0	9.668318e-04
1.200000e+09	3.753722e+13	0.000000e+00	7.185185e-01	2.133965e+15	2.678421e+15	2.107368e+14	1.810758e+04	1.074437e+04	5.690445e+03	0	9.543982e-04
1.210000e+09	3.606771e+13	0.000000e+00	7.185185e-01	2.121352e+15	2.666258e+15	2.098374e+14	1.808546e+04	1.073543e+04	5.685712e+03	0	9.417778e-04
1.220000e+09	3.461467e+13	0.000000e+00	7.185185e-01	2.108869e+15	2.654087e+15	2.089440e+14	1.806346e+04	1.072646e+04	5.680960e+03	0	9.289571e-04
1.230000e+09	3.317781e+13	0.000000e+00	7.185185e-01	2.096512e+15	2.641912e+15	2.080565e+14	1.804160e+04	1.071745e+04	5.676191e+03	0	9.159213e-04
1.240000e+09	3.175686e+13	0.000000e+00	7.185185e-01	2.084281e+15	2.629738e+15	2.071749e+14	1.801986e+04	1.070842e+04	5.671406e+03	0	9.026543e-04
1.250000e+09	3.035156e+13	0.000000e+00	7.185185e-01	2.072172e+15	2.617570e+15	2.062991e+14	1.799825e+04	1.069936e+04	5.666608e+03	0	8.891382e-04
1.260000e+09	2.896165e+13	0.000000e+00	7.185185e-01	2.060185e+15	2.605414e+15	2.054290e+14	1.797677e+04	1.069028e+04	5.661798e+03	0	8.753533e-04
1.270000e+09	2.758688e+13	0.000000e+00	7.185185e-01	2.048316e+15	2.593274e+15	2.045647e+14	1.795540e+04	1.068118e+04	5.656978e+03	0	8.612776e-04
1.280000e+09	2.622702e+13	0.000000e+00	7.185185e-01	2.036566e+15	2.581151e+15	2.037061e+14	1.793417e+04	1.067206e+04	5.652149e+03	0	8.468865e-04
1.290000e+09	2.488180e+13	0.000000e+00	7.185185e-01	2.024930e+15	2.569052e+15	2.028531e+14	1.791305e+04	1.066293e+04	5.647313e+03	0	8.321524e-04
1.300000e+09	2.355102e+13	0.000000e+00	7.185185e-01	2.013409e+15	2.556981e+15	2.020057e+14	1.789205e+04	1.065379e+04	5.642471e+03	0	8.170441e-04
1.310000e+09	2.223443e+13	0.000000e+00	7.185185e-01	2.002000e+15	2.544939e+15	2.011639e+14	1.787117e+04	1.064464e+04	5.637625e+03	0	8.015260e-04
1.320000e+09	2.093182e+13	0.000000e+00	7.185185e-01	1.990701e+15	2.532931e+15	2.003276e+14	1.785042e+04	1.063548e+04	5.632776e+03	0	7.855574e-04
1.330000e+09	1.964298e+13	0.000000e+00	7.185185e-01	1.979511e+15	2.520958e+15	1.994968e+14	1.782977e+04	1.062632e+04	5.627924e+03	0	7.690915e-04
1.340000e+09	1.836768e+13	0.000000e+00	7.185185e-01	1.968428e+15	2.509025e+15	1.986714e+14	1.780925e+04	1.061716e+04	5.623072e+03	0	7.520736e-04
1.350000e+09	1.710572e+13	0.000000e+00	7.185185e-01	1.957451e+15	2.497132e+15	1.978513e+14	1.778883e+04	1.060800e+04	5.618220e+03	0	7.344396e-04
1.360000e+09	1.585691e+13	0.000000e+00	7.185185e-01	1.946578e+15	2.485283e+15	1.970367e+14	1.776854e+04	1.059884e+04	5.613368e+03	0	7.161134e-04
