#t		Qconv[W]	Ri[Rp]		R*[Rp]		Qc[W]		Qm[W]		Qr[W]		Tcmb[K]		Tl[K]		Tup[K]		RiFlag		Bs[T]
0.000000e+00	3.305720e+14	0.000000e+00	7.142857e-01	1.056160e+16	1.256576e+15	2.623766e+13	2.479179e+04	2.970970e+03	2.298499e+03	0	2.317927e-03
1.000000e+07	2.291665e+14	0.000000e+00	7.142857e-01	7.322809e+15	4.753670e+15	2.609229e+13	2.158245e+04	3.993509e+03	3.089589e+03	0	2.051452e-03
2.000000e+07	1.676305e+14	0.000000e+00	7.142857e-01	5.357324e+15	5.667009e+15	2.594800e+13	1.929032e+04	4.268257e+03	3.302149e+03	0	1.848397e-03
3.000000e+07	1.279085e+14	0.000000e+00	7.142857e-01	4.088534e+15	4.993441e+15	2.580479e+13	1.757732e+04	4.230017e+03	3.272565e+03	0	1.689057e-03
4.000000e+07	1.007615e+14	0.000000e+00	7.142857e-01	3.221371e+15	4.014533e+15	2.566265e+13	1.624843e+04	4.091199e+03	3.165168e+03	0	1.559945e-03
5.000000e+07	8.142467e+13	0.000000e+00	7.142857e-01	2.603663e+15	3.234699e+15	2.552157e+13	1.518751e+04	3.954662e+03	3.059536e+03	0	1.452991e-03
6.000000e+07	6.720486e+13	0.000000e+00	7.142857e-01	2.149396e+15	2.657830e+15	2.538154e+13	1.432067e+04	3.836899e+03	2.968428e+03	0	1.362944e-03
7.000000e+07	5.646273e+13	0.000000e+00	7.142857e-01	1.806210e+15	2.226508e+15	2.524255e+13	1.359854e+04	3.736336e+03	2.890627e+03	0	1.286071e-03
8.000000e+07	4.815765e+13	0.000000e+00	7.142857e-01	1.540870e+15	1.896450e+15	2.510460e+13	1.298706e+04	3.649564e+03	2.823496e+03	0	1.219643e-03
9.000000e+07	4.160689e+13	0.000000e+00	7.142857e-01	1.331568e+15	1.638188e+15	2.496767e+13	1.246199e+04	3.573764e+03	2.764853e+03	0	1.161625e-03
1.000000e+08	3.634915e+13	0.000000e+00	7.142857e-01	1.163571e+15	1.432134e+15	2.483176e+13	1.200569e+04	3.506812e+03	2.713055e+03	0	1.110476e-03
1.100000e+08	3.206447e+13	0.000000e+00	7.142857e-01	1.026659e+15	1.264953e+15	2.469686e+13	1.160501e+04	3.447112e+03	2.666869e+03	0	1.065007e-03
1.200000e+08	2.852566e+13	0.000000e+00	7.142857e-01	9.135741e+14	1.127326e+15	2.456295e+13	1.124997e+04	3.393445e+03	2.625349e+03	0	1.024290e-03
1.300000e+08	2.556796e+13	0.000000e+00	7.142857e-01	8.190542e+14	1.012579e+15	2.443004e+13	1.093285e+04	3.344860e+03	2.587760e+03	0	9.875893e-04
1.400000e+08	2.306966e+13	0.000000e+00	7.142857e-01	7.392114e+14	9.158309e+14	2.429812e+13	1.064760e+04	3.300604e+03	2.553522e+03	0	9.543144e-04
1.500000e+08	2.093934e+13	0.000000e+00	7.142857e-01	6.711249e+14	8.334414e+14	2.416717e+13	1.038939e+04	3.260072e+03	2.522164e+03	0	9.239859e-04
1.600000e+08	1.910722e+13	0.000000e+00	7.142857e-01	6.125663e+14	7.626524e+14	2.403718e+13	1.015434e+04	3.222772e+03	2.493307e+03	0	8.962109e-04
1.700000e+08	1.751938e+13	0.000000e+00	7.142857e-01	5.618126e+14	7.013412e+14	2.390816e+13	9.939287e+03	3.188295e+03	2.466634e+03	0	8.706642e-04
1.800000e+08	1.613358e+13	0.000000e+00	7.142857e-01	5.175144e+14	6.478528e+14	2.378008e+13	9.741627e+03	3.156305e+03	2.441885e+03	0	8.470740e-04
1.900000e+08	1.491637e+13	0.000000e+00	7.142857e-01	4.786031e+14	6.008808e+14	2.365295e+13	9.559195e+03	3.126516e+03	2.418838e+03	0	8.252118e-04
2.000000e+08	1.384097e+13	0.000000e+00	7.142857e-01	4.442234e+14	5.593829e+14	2.352676e+13	9.390178e+03	3.098687e+03	2.397309e+03	0	8.048839e-04
2.100000e+08	1.288576e+13	0.000000e+00	7.142857e-01	4.136843e+14	5.225188e+14	2.340149e+13	9.233045e+03	3.072613e+03	2.377136e+03	0	7.859250e-04
2.200000e+08	1.203310e+13	0.000000e+00	7.142857e-01	3.864225e+14	4.896051e+14	2.327714e+13	9.086495e+03	3.048117e+03	2.358184e+03	0	7.681929e-04
2.300000e+08	1.126851e+13	0.000000e+00	7.142857e-01	3.619749e+14	4.600811e+14	2.315371e+13	8.949413e+03	3.025045e+03	2.340335e+03	0	7.515650e-04
2.400000e+08	1.057998e+13	0.000000e+00	7.142857e-01	3.399583e+14	4.334832e+14	2.303118e+13	8.820840e+03	3.003265e+03	2.323484e+03	0	7.359349e-04
2.500000e+08	9.957517e+12	0.000000e+00	7.142857e-01	3.200529e+14	4.094253e+14	2.290954e+13	8.699944e+03	2.982660e+03	2.307544e+03	0	7.212094e-04
2.600000e+08	9.392713e+12	0.000000e+00	7.142857e-01	3.019905e+14	3.875838e+14	2.278880e+13	8.586002e+03	2.963129e+03	2.292433e+03	0	7.073072e-04
2.700000e+08	8.878482e+12	0.000000e+00	7.142857e-01	2.855445e+14	3.676854e+14	2.266894e+13	8.478380e+03	2.944580e+03	2.278083e+03	0	6.941563e-04
2.800000e+08	8.408801e+12	0.000000e+00	7.142857e-01	2.705223e+14	3.494986e+14	2.254996e+13	8.376522e+03	2.926935e+03	2.264431e+03	0	6.816934e-04
2.900000e+08	7.978526e+12	0.000000e+00	7.142857e-01	2.567598e+14	3.328256e+14	2.243184e+13	8.279937e+03	2.910121e+03	2.251424e+03	0	6.698619e-04
3.000000e+08	7.583247e+12	0.000000e+00	7.142857e-01	2.441159e+14	3.174967e+14	2.231459e+13	8.188189e+03	2.894076e+03	2.239010e+03	0	6.586117e-04
3.100000e+08	7.219157e+12	0.000000e+00	7.142857e-01	2.324689e+14	3.033660e+14	2.219819e+13	8.100890e+03	2.878742e+03	2.227147e+03	0	6.478979e-04
3.200000e+08	6.882963e+12	0.000000e+00	7.142857e-01	2.217137e+14	2.903067e+14	2.208264e+13	8.017695e+03	2.864068e+03	2.215794e+03	0	6.376801e-04
3.300000e+08	6.571799e+12	0.000000e+00	7.142857e-01	2.117587e+14	2.782090e+14	2.196792e+13	7.938295e+03	2.850008e+03	2.204917e+03	0	6.279221e-04
3.400000e+08	6.283163e+12	0.000000e+00	7.142857e-01	2.025239e+14	2.669769e+14	2.185404e+13	7.862409e+03	2.836519e+03	2.194481e+03	0	6.185913e-04
3.500000e+08	6.014862e+12	0.000000e+00	7.142857e-01	1.939391e+14	2.565262e+14	2.174099e+13	7.789789e+03	2.823565e+03	2.184459e+03	0	6.096580e-04
3.600000e+08	5.764968e+12	0.000000e+00	7.142857e-01	1.859429e+14	2.467831e+14	2.162875e+13	7.720205e+03	2.811111e+03	2.174824e+03	0	6.010953e-04
3.700000e+08	5.531779e+12	0.000000e+00	7.142857e-01	1.784808e+14	2.376821e+14	2.151733e+13	7.653454e+03	2.799124e+03	2.165550e+03	0	5.928789e-04
3.800000e+08	5.313789e+12	0.000000e+00	7.142857e-01	1.715046e+14	2.291656e+14	2.140672e+13	7.589348e+03	2.787577e+03	2.156617e+03	0	5.849865e-04
3.900000e+08	5.109660e+12	0.000000e+00	7.142857e-01	1.649717e+14	2.211822e+14	2.129690e+13	7.527717e+03	2.776442e+03	2.148002e+03	0	5.773977e-04
4.000000e+08	4.918200e+12	0.000000e+00	7.142857e-01	1.588438e+14	2.136863e+14	2.118788e+13	7.468406e+03	2.765696e+03	2.139689e+03	0	5.700939e-04
4.100000e+08	4.738344e+12	0.000000e+00	7.142857e-01	1.530870e+14	2.066370e+14	2.107964e+13	7.411272e+03	2.755316e+03	2.131658e+03	0	5.630581e-04
4.200000e+08	4.569140e+12	0.000000e+00	7.142857e-01	1.476708e+14	1.999979e+14	2.097219e+13	7.356184e+03	2.745282e+03	2.123896e+03	0	5.562746e-04
4.300000e+08	4.409733e+12	0.000000e+00	7.142857e-01	1.425679e+14	1.937360e+14	2.086550e+13	7.303024e+03	2.735575e+03	2.116386e+03	0	5.497288e-04
4.400000e+08	4.259352e+12	0.000000e+00	7.142857e-01	1.377536e+14	1.878219e+14	2.075959e+13	7.251681e+03	2.726177e+03	2.109115e+03	0	5.434074e-04
4.500000e+08	4.117303e+12	0.000000e+00	7.142857e-01	1.332059e+14	1.822289e+14	2.065444e+13	7.202053e+03	2.717073e+03	2.102071e+03	0	5.372981e-04
4.600000e+08	3.982959e+12	0.000000e+00	7.142857e-01	1.289045e+14	1.769330e+14	2.055004e+13	7.154046e+03	2.708246e+03	2.095242e+03	0	5.313895e-04
4.700000e+08	3.855750e+12	0.000000e+00	7.142857e-01	1.248314e+14	1.719124e+14	2.044639e+13	7.107574e+03	2.699683e+03	2.088617e+03	0	5.256710e-04
4.800000e+08	3.735162e+12	0.000000e+00	7.142857e-01	1.209699e+14	1.671472e+14	2.034348e+13	7.062555e+03	2.691371e+03	2.082187e+03	0	5.201327e-04
4.900000e+08	3.620723e+12	0.000000e+00	7.142857e-01	1.173053e+14	1.626195e+14	2.024131e+13	7.018914e+03	2.683297e+03	2.075941e+03	0	5.147656e-04
5.000000e+08	3.512007e+12	0.000000e+00	7.142857e-01	1.138236e+14	1.583128e+14	2.013987e+13	6.976584e+03	2.675451e+03	2.069871e+03	0	5.095610e-04
5.100000e+08	3.408623e+12	0.000000e+00	7.142857e-01	1.105125e+14	1.542121e+14	2.003915e+13	6.935497e+03	2.667822e+03	2.063968e+03	0	5.045111e-04
5.200000e+08	3.310213e+12	0.000000e+00	7.142857e-01	1.073605e+14	1.503037e+14	1.993916e+13	6.895595e+03	2.660399e+03	2.058226e+03	0	4.996084e-04
5.300000e+08	3.216451e+12	0.000000e+00	7.142857e-01	1.043572e+14	1.465751e+14	1.983987e+13	6.856820e+03	2.653174e+03	2.052636e+03	0	4.948460e-04
5.400000e+08	3.127036e+12	0.000000e+00	7.142857e-01	1.014930e+14	1.430147e+14	1.974130e+13	6.819120e+03	2.646137e+03	2.047192e+03	0	4.902174e-04
5.500000e+08	3.041693e+12	0.000000e+00	7.142857e-01	9.875906e+13	1.396119e+14	1.964342e+13	6.782445e+03	2.639281e+03	2.041887e+03	0	4.857165e-04
5.600000e+08	2.960168e+12	0.000000e+00	7.142857e-01	9.614724e+13	1.363570e+14	1.954624e+13	6.746750e+03	2.632598e+03	2.036717e+03	0	4.813376e-04
5.700000e+08	2.882226e+12	0.000000e+00	7.142857e-01	9.365007e+13	1.332409e+14	1.944976e+13	6.711991e+03	2.626080e+03	2.031674e+03	0	4.770754e-04
5.800000e+08	2.807652e+12	0.000000e+00	7.142857e-01	9.126066e+13	1.302555e+14	1.935395e+13	6.678127e+03	2.619720e+03	2.026754e+03	0	4.729249e-04
5.900000e+08	2.736246e+12	0.000000e+00	7.142857e-01	8.897262e+13	1.273929e+14	1.925883e+13	6.645120e+03	2.613513e+03	2.021952e+03	0	4.688811e-04
6.000000e+08	2.667823e+12	0.000000e+00	7.142857e-01	8.678004e+13	1.246461e+14	1.916437e+13	6.612934e+03	2.607452e+03	2.017262e+03	0	4.649398e-04
6.100000e+08	2.602213e+12	0.000000e+00	7.142857e-01	8.467744e+13	1.220086e+14	1.907059e+13	6.581535e+03	2.601531e+03	2.012682e+03	0	4.610967e-04
6.200000e+08	2.539256e+12	0.000000e+00	7.142857e-01	8.265976e+13	1.194741e+14	1.897747e+13	6.550890e+03	2.595744e+03	2.008205e+03	0	4.573478e-04
6.300000e+08	2.478805e+12	0.000000e+00	7.142857e-01	8.072227e+13	1.170370e+14	1.888501e+13	6.520970e+03	2.590088e+03	2.003829e+03	0	4.536893e-04
6.400000e+08	2.420723e+12	0.000000e+00	7.142857e-01	7.886058e+13	1.146921e+14	1.879319e+13	6.491746e+03	2.584556e+03	1.999549e+03	0	4.501177e-04
6.500000e+08	2.364882e+12	0.000000e+00	7.142857e-01	7.707062e+13	1.124344e+14	1.870203e+13	6.463191e+03	2.579144e+03	1.995362e+03	0	4.466296e-04
6.600000e+08	2.311163e+12	0.000000e+00	7.142857e-01	7.534857e+13	1.102594e+14	1.861151e+13	6.435279e+03	2.573848e+03	1.991265e+03	0	4.432219e-04
6.700000e+08	2.259454e+12	0.000000e+00	7.142857e-01	7.369087e+13	1.081627e+14	1.852162e+13	6.407986e+03	2.568663e+03	1.987254e+03	0	4.398915e-04
6.800000e+08	2.209653e+12	0.000000e+00	7.142857e-01	7.209423e+13	1.061403e+14	1.843236e+13	6.381289e+03	2.563586e+03	1.983326e+03	0	4.366356e-04
6.900000e+08	2.161663e+12	0.000000e+00	7.142857e-01	7.055552e+13	1.041886e+14	1.834373e+13	6.355167e+03	2.558612e+03	1.979478e+03	0	4.334513e-04
7.000000e+08	2.115391e+12	0.000000e+00	7.142857e-01	6.907186e+13	1.023040e+14	1.825573e+13	6.329598e+03	2.553739e+03	1.975708e+03	0	4.303363e-04
7.100000e+08	2.070755e+12	0.000000e+00	7.142857e-01	6.764052e+13	1.004832e+14	1.816833e+13	6.304564e+03	2.548963e+03	1.972012e+03	0	4.272879e-04
7.200000e+08	2.027673e+12	0.000000e+00	7.142857e-01	6.625894e+13	9.872322e+13	1.808155e+13	6.280044e+03	2.544279e+03	1.968389e+03	0	4.243039e-04
7.300000e+08	1.986071e+12	0.000000e+00	7.142857e-01	6.492475e+13	9.702108e+13	1.799538e+13	6.256022e+03	2.539687e+03	1.964836e+03	0	4.213820e-04
7.400000e+08	1.945879e+12	0.000000e+00	7.142857e-01	6.363569e+13	9.537411e+13	1.790981e+13	6.232481e+03	2.535181e+03	1.961350e+03	0	4.185201e-04
7.500000e+08	1.907031e+12	0.000000e+00	7.142857e-01	6.238966e+13	9.377976e+13	1.782483e+13	6.209404e+03	2.530760e+03	1.957930e+03	0	4.157162e-04
7.600000e+08	1.869464e+12	0.000000e+00	7.142857e-01	6.118466e+13	9.223562e+13	1.774044e+13	6.186775e+03	2.526421e+03	1.954573e+03	0	4.129683e-04
7.700000e+08	1.833121e+12	0.000000e+00	7.142857e-01	6.001882e+13	9.073943e+13	1.765665e+13	6.164581e+03	2.522161e+03	1.951277e+03	0	4.102747e-04
7.800000e+08	1.797946e+12	0.000000e+00	7.142857e-01	5.889038e+13	8.928907e+13	1.757343e+13	6.142808e+03	2.517978e+03	1.948041e+03	0	4.076335e-04
7.900000e+08	1.763887e+12	0.000000e+00	7.142857e-01	5.779768e+13	8.788252e+13	1.749080e+13	6.121441e+03	2.513869e+03	1.944862e+03	0	4.050431e-04
8.000000e+08	1.730895e+12	0.000000e+00	7.142857e-01	5.673915e+13	8.651789e+13	1.740873e+13	6.100468e+03	2.509832e+03	1.941739e+03	0	4.025019e-04
8.100000e+08	1.698924e+12	0.000000e+00	7.142857e-01	5.571331e+13	8.519338e+13	1.732724e+13	6.079877e+03	2.505865e+03	1.938670e+03	0	4.000083e-04
8.200000e+08	1.667930e+12	0.000000e+00	7.142857e-01	5.471876e+13	8.390731e+13	1.724631e+13	6.059656e+03	2.501966e+03	1.935653e+03	0	3.975609e-04
8.300000e+08	1.637872e+12	0.000000e+00	7.142857e-01	5.375418e+13	8.265807e+13	1.716593e+13	6.039794e+03	2.498132e+03	1.932687e+03	0	3.951582e-04
8.400000e+08	1.608710e+12	0.000000e+00	7.142857e-01	5.281831e+13	8.144414e+13	1.708612e+13	6.020280e+03	2.494363e+03	1.929771e+03	0	3.927989e-04
8.500000e+08	1.580408e+12	0.000000e+00	7.142857e-01	5.190996e+13	8.026409e+13	1.700685e+13	6.001104e+03	2.490656e+03	1.926903e+03	0	3.904818e-04
8.600000e+08	1.552930e+12	0.000000e+00	7.142857e-01	5.102802e+13	7.911655e+13	1.692813e+13	5.982255e+03	2.487008e+03	1.924081e+03	0	3.882055e-04
8.700000e+08	1.526243e+12	0.000000e+00	7.142857e-01	5.017141e+13	7.800024e+13	1.684996e+13	5.963725e+03	2.483420e+03	1.921305e+03	0	3.859689e-04
8.800000e+08	1.500316e+12	0.000000e+00	7.142857e-01	4.933912e+13	7.691392e+13	1.677232e+13	5.945505e+03	2.479888e+03	1.918573e+03	0	3.837708e-04
8.900000e+08	1.475118e+12	0.000000e+00	7.142857e-01	4.853020e+13	7.585643e+13	1.669521e+13	5.927585e+03	2.476412e+03	1.915883e+03	0	3.816102e-04
9.000000e+08	1.450621e+12	0.000000e+00	7.142857e-01	4.774373e+13	7.482667e+13	1.661863e+13	5.909957e+03	2.472989e+03	1.913235e+03	0	3.794859e-04
9.100000e+08	1.426798e+12	0.000000e+00	7.142857e-01	4.697885e+13	7.382359e+13	1.654258e+13	5.892613e+03	2.469619e+03	1.910628e+03	0	3.773971e-04
9.200000e+08	1.403623e+12	0.000000e+00	7.142857e-01	4.623473e+13	7.284618e+13	1.646705e+13	5.875546e+03	2.466300e+03	1.908060e+03	0	3.753426e-04
9.300000e+08	1.381072e+12	0.000000e+00	7.142857e-01	4.551059e+13	7.189349e+13	1.639203e+13	5.858747e+03	2.463031e+03	1.905531e+03	0	3.733216e-04
9.400000e+08	1.359121e+12	0.000000e+00	7.142857e-01	4.480568e+13	7.096462e+13	1.631753e+13	5.842211e+03	2.459810e+03	1.903039e+03	0	3.713331e-04
9.500000e+08	1.337748e+12	0.000000e+00	7.142857e-01	4.411929e+13	7.005870e+13	1.624354e+13	5.825929e+03	2.456636e+03	1.900583e+03	0	3.693764e-04
9.600000e+08	1.316932e+12	0.000000e+00	7.142857e-01	4.345074e+13	6.917490e+13	1.617005e+13	5.809895e+03	2.453507e+03	1.898163e+03	0	3.674504e-04
9.700000e+08	1.296652e+12	0.000000e+00	7.142857e-01	4.279939e+13	6.831245e+13	1.609706e+13	5.794103e+03	2.450424e+03	1.895778e+03	0	3.655546e-04
9.800000e+08	1.276890e+12	0.000000e+00	7.142857e-01	4.216462e+13	6.747060e+13	1.602457e+13	5.778547e+03	2.447384e+03	1.893426e+03	0	3.636879e-04
9.900000e+08	1.257627e+12	0.000000e+00	7.142857e-01	4.154584e+13	6.664862e+13	1.595257e+13	5.763220e+03	2.444387e+03	1.891107e+03	0	3.618498e-04
1.000000e+09	1.238846e+12	0.000000e+00	7.142857e-01	4.094249e+13	6.584583e+13	1.588106e+13	5.748117e+03	2.441431e+03	1.888820e+03	0	3.600395e-04
1.010000e+09	1.220530e+12	0.000000e+00	7.142857e-01	4.035403e+13	6.506159e+13	1.581004e+13	5.733232e+03	2.438515e+03	1.886564e+03	0	3.582563e-04
1.020000e+09	1.202662e+12	0.000000e+00	7.142857e-01	3.977996e+13	6.429526e+13	1.573949e+13	5.718560e+03	2.435639e+03	1.884339e+03	0	3.564995e-04
1.030000e+09	1.185228e+12	0.000000e+00	7.142857e-01	3.921977e+13	6.354625e+13	1.566942e+13	5.704096e+03	2.432801e+03	1.882144e+03	0	3.547684e-04
1.040000e+09	1.168212e+12	0.000000e+00	7.142857e-01	3.867301e+13	6.281399e+13	1.559983e+13	5.689834e+03	2.430001e+03	1.879978e+03	0	3.530625e-04
1.050000e+09	1.151602e+12	0.000000e+00	7.142857e-01	3.813922e+13	6.209793e+13	1.553071e+13	5.675771e+03	2.427238e+03	1.877840e+03	0	3.513812e-04
1.060000e+09	1.135382e+12	0.000000e+00	7.142857e-01	3.761797e+13	6.139754e+13	1.546205e+13	5.661901e+03	2.424511e+03	1.875730e+03	0	3.497237e-04
1.070000e+09	1.119541e+12	0.000000e+00	7.142857e-01	3.710886e+13	6.071233e+13	1.539386e+13	5.648219e+03	2.421818e+03	1.873647e+03	0	3.480896e-04
1.080000e+09	1.104067e+12	0.000000e+00	7.142857e-01	3.661148e+13	6.004181e+13	1.532612e+13	5.634722e+03	2.419160e+03	1.871590e+03	0	3.464784e-04
1.090000e+09	1.088947e+12	0.000000e+00	7.142857e-01	3.612546e+13	5.938553e+13	1.525884e+13	5.621405e+03	2.416535e+03	1.869560e+03	0	3.448894e-04
1.100000e+09	1.074169e+12	0.000000e+00	7.142857e-01	3.565044e+13	5.874303e+13	1.519201e+13	5.608263e+03	2.413943e+03	1.867554e+03	0	3.433223e-04
1.110000e+09	1.059724e+12	0.000000e+00	7.142857e-01	3.518607e+13	5.811389e+13	1.512563e+13	5.595294e+03	2.411383e+03	1.865574e+03	0	3.417764e-04
1.120000e+09	1.045601e+12	0.000000e+00	7.142857e-01	3.473201e+13	5.749771e+13	1.505970e+13	5.582493e+03	2.408854e+03	1.863617e+03	0	3.402513e-04
1.130000e+09	1.031790e+12	0.000000e+00	7.142857e-01	3.428795e+13	5.689409e+13	1.499420e+13	5.569857e+03	2.406356e+03	1.861684e+03	0	3.387465e-04
1.140000e+09	1.018281e+12	0.000000e+00	7.142857e-01	3.385358e+13	5.630266e+13	1.492915e+13	5.557381e+03	2.403888e+03	1.859775e+03	0	3.372616e-04
1.150000e+09	1.005064e+12	0.000000e+00	7.142857e-01	3.342860e+13	5.572305e+13	1.486452e+13	5.545063e+03	2.401448e+03	1.857888e+03	0	3.357961e-04
1.160000e+09	9.921321e+11	0.000000e+00	7.142857e-01	3.301272e+13	5.515493e+13	1.480033e+13	5.532898e+03	2.399038e+03	1.856023e+03	0	3.343497e-04
1.170000e+09	9.794754e+11	0.000000e+00	7.142857e-01	3.260568e+13	5.459794e+13	1.473657e+13	5.520885e+03	2.396655e+03	1.854179e+03	0	3.329218e-04
1.180000e+09	9.670860e+11	0.000000e+00	7.142857e-01	3.220722e+13	5.405178e+13	1.467323e+13	5.509019e+03	2.394300e+03	1.852357e+03	0	3.315121e-04
1.190000e+09	9.549561e+11	0.000000e+00	7.142857e-01	3.181707e+13	5.351613e+13	1.461031e+13	5.497297e+03	2.391972e+03	1.850556e+03	0	3.301203e-04
1.200000e+09	9.430781e+11	0.000000e+00	7.142857e-01	3.143500e+13	5.299069e+13	1.454781e+13	5.485717e+03	2.389670e+03	1.848775e+03	0	3.287458e-04
1.210000e+09	9.314446e+11	0.000000e+00	7.142857e-01	3.106077e+13	5.247518e+13	1.448572e+13	5.474275e+03	2.387394e+03	1.847014e+03	0	3.273885e-04
1.220000e+09	9.200486e+11	0.000000e+00	7.142857e-01	3.069415e+13	5.196932e+13	1.442405e+13	5.462969e+03	2.385143e+03	1.845273e+03	0	3.260478e-04
1.230000e+09	9.088834e+11	0.000000e+00	7.142857e-01	3.033494e+13	5.147284e+13	1.436278e+13	5.451796e+03	2.382917e+03	1.843551e+03	0	3.247235e-04
1.240000e+09	8.979424e+11	0.000000e+00	7.142857e-01	2.998292e+13	5.098549e+13	1.430192e+13	5.440753e+03	2.380715e+03	1.841847e+03	0	3.234153e-04
1.250000e+09	8.872193e+11	0.000000e+00	7.142857e-01	2.963789e+13	5.050701e+13	1.424146e+13	5.429838e+03	2.378537e+03	1.840162e+03	0	3.221227e-04
1.260000e+09	8.767080e+11	0.000000e+00	7.142857e-01	2.929965e+13	5.003718e+13	1.418140e+13	5.419048e+03	2.376383e+03	1.838495e+03	0	3.208456e-04
1.270000e+09	8.664027e+11	0.000000e+00	7.142857e-01	2.896802e+13	4.957575e+13	1.412174e+13	5.408380e+03	2.374251e+03	1.836846e+03	0	3.195835e-04
1.280000e+09	8.562977e+11	0.000000e+00	7.142857e-01	2.864281e+13	4.912251e+13	1.406246e+13	5.397833e+03	2.372141e+03	1.835214e+03	0	3.183362e-04
1.290000e+09	8.463876e+11	0.000000e+00	7.142857e-01	2.832386e+13	4.867724e+13	1.400358e+13	5.387404e+03	2.370054e+03	1.833599e+03	0	3.171033e-04
1.300000e+09	8.366672e+11	0.000000e+00	7.142857e-01	2.801098e+13	4.823974e+13	1.394508e+13	5.377090e+03	2.367988e+03	1.832000e+03	0	3.158847e-04
1.310000e+09	8.271313e+11	0.000000e+00	7.142857e-01	2.770403e+13	4.780980e+13	1.388697e+13	5.366890e+03	2.365943e+03	1.830418e+03	0	3.146800e-04
1.320000e+09	8.177750e+11	0.000000e+00	7.142857e-01	2.740284e+13	4.738722e+13	1.382923e+13	5.356801e+03	2.363919e+03	1.828852e+03	0	3.134890e-04
1.330000e+09	8.085937e+11	0.000000e+00	7.142857e-01	2.710727e+13	4.697183e+13	1.377188e+13	5.346822e+03	2.361915e+03	1.827302e+03	0	3.123114e-04
1.340000e+09	7.995827e+11	0.000000e+00	7.142857e-01	2.681715e+13	4.656344e+13	1.371490e+13	5.336950e+03	2.359931e+03	1.825768e+03	0	3.111469e-04
1.350000e+09	7.907375e+11	0.000000e+00	7.142857e-01	2.653237e+13	4.616188e+13	1.365829e+13	5.327183e+03	2.357967e+03	1.824248e+03	0	3.099953e-04
1.360000e+09	7.820541e+11	0.000000e+00	7.142857e-01	2.625276e+13	4.576697e+13	1.360205e+13	5.317519e+03	2.356022e+03	1.822743e+03	0	3.088564e-04
