#t		Qconv[W]	Ri[Rp]		R*[Rp]		Qc[W]		Qm[W]		Qr[W]		Tcmb[K]		Tl[K]		Tup[K]		RiFlag		Bs[T]
0.000000e+00	7.335107e+13	0.000000e+00	7.105263e-01	1.234853e+15	7.329654e+14	7.077935e+13	1.499362e+04	3.182227e+03	2.695323e+03	0	1.336050e-03
1.000000e+07	7.077401e+13	0.000000e+00	7.105263e-01	1.192138e+15	8.183549e+14	7.038718e+13	1.483969e+04	3.244532e+03	2.748094e+03	0	1.320217e-03
2.000000e+07	6.820934e+13	0.000000e+00	7.105263e-01	1.149637e+15	8.856560e+14	6.999794e+13	1.469100e+04	3.292575e+03	2.788786e+03	0	1.304073e-03
3.000000e+07	6.568579e+13	0.000000e+00	7.105263e-01	1.107822e+15	9.351716e+14	6.961162e+13	1.454754e+04	3.328545e+03	2.819252e+03	0	1.287788e-03
4.000000e+07	6.322579e+13	0.000000e+00	7.105263e-01	1.067063e+15	9.686033e+14	6.922817e+13	1.440923e+04	3.354559e+03	2.841286e+03	0	1.271507e-03
5.000000e+07	6.084557e+13	0.000000e+00	7.105263e-01	1.027627e+15	9.883282e+14	6.884759e+13	1.427593e+04	3.372532e+03	2.856509e+03	0	1.255347e-03
6.000000e+07	5.855584e+13	0.000000e+00	7.105263e-01	9.896901e+14	9.968805e+14	6.846984e+13	1.414750e+04	3.384110e+03	2.866316e+03	0	1.239398e-03
7.000000e+07	5.636282e+13	0.000000e+00	7.105263e-01	9.533540e+14	9.966416e+14	6.809491e+13	1.402376e+04	3.390665e+03	2.871867e+03	0	1.223728e-03
8.000000e+07	5.426923e+13	0.000000e+00	7.105263e-01	9.186633e+14	9.896901e+14	6.772276e+13	1.390449e+04	3.393311e+03	2.874109e+03	0	1.208385e-03
9.000000e+07	5.227523e+13	0.000000e+00	7.105263e-01	8.856202e+14	9.777550e+14	6.735339e+13	1.378952e+04	3.392943e+03	2.873797e+03	0	1.193400e-03
1.000000e+08	5.037911e+13	0.000000e+00	7.105263e-01	8.541965e+14	9.622278e+14	6.698675e+13	1.367863e+04	3.390266e+03	2.871530e+03	0	1.178793e-03
1.100000e+08	4.857795e+13	0.000000e+00	7.105263e-01	8.243434e+14	9.442023e+14	6.662283e+13	1.357163e+04	3.385834e+03	2.867776e+03	0	1.164574e-03
1.200000e+08	4.686802e+13	0.000000e+00	7.105263e-01	7.959993e+14	9.245226e+14	6.626162e+13	1.346833e+04	3.380080e+03	2.862902e+03	0	1.150746e-03
1.300000e+08	4.524511e+13	0.000000e+00	7.105263e-01	7.690946e+14	9.038309e+14	6.590308e+13	1.336854e+04	3.373342e+03	2.857195e+03	0	1.137307e-03
1.400000e+08	4.370481e+13	0.000000e+00	7.105263e-01	7.435561e+14	8.826096e+14	6.554719e+13	1.327209e+04	3.365881e+03	2.850876e+03	0	1.124252e-03
1.500000e+08	4.224260e+13	0.000000e+00	7.105263e-01	7.193096e+14	8.612165e+14	6.519393e+13	1.317881e+04	3.357900e+03	2.844116e+03	0	1.111572e-03
1.600000e+08	4.085407e+13	0.000000e+00	7.105263e-01	6.962814e+14	8.399138e+14	6.484328e+13	1.308854e+04	3.349557e+03	2.837049e+03	0	1.099257e-03
1.700000e+08	3.953487e+13	0.000000e+00	7.105263e-01	6.744004e+14	8.188904e+14	6.449522e+13	1.300112e+04	3.340973e+03	2.829779e+03	0	1.087295e-03
1.800000e+08	3.828088e+13	0.000000e+00	7.105263e-01	6.535980e+14	7.982799e+14	6.414972e+13	1.291643e+04	3.332242e+03	2.822384e+03	0	1.075676e-03
1.900000e+08	3.708815e+13	0.000000e+00	7.105263e-01	6.338091e+14	7.781739e+14	6.380677e+13	1.283432e+04	3.323438e+03	2.814927e+03	0	1.064386e-03
2.000000e+08	3.595296e+13	0.000000e+00	7.105263e-01	6.149720e+14	7.586328e+14	6.346634e+13	1.275468e+04	3.314617e+03	2.807455e+03	0	1.053413e-03
2.100000e+08	3.487179e+13	0.000000e+00	7.105263e-01	5.970290e+14	7.396935e+14	6.312842e+13	1.267738e+04	3.305820e+03	2.800005e+03	0	1.042747e-03
2.200000e+08	3.384138e+13	0.000000e+00	7.105263e-01	5.799256e+14	7.213755e+14	6.279298e+13	1.260232e+04	3.297082e+03	2.792604e+03	0	1.032373e-03
2.300000e+08	3.285863e+13	0.000000e+00	7.105263e-01	5.636111e+14	7.036856e+14	6.246000e+13	1.252938e+04	3.288428e+03	2.785274e+03	0	1.022281e-03
2.400000e+08	3.192070e+13	0.000000e+00	7.105263e-01	5.480381e+14	6.866212e+14	6.212946e+13	1.245848e+04	3.279875e+03	2.778029e+03	0	1.012461e-03
2.500000e+08	3.102489e+13	0.000000e+00	7.105263e-01	5.331624e+14	6.701732e+14	6.180134e+13	1.238952e+04	3.271437e+03	2.770883e+03	0	1.002899e-03
2.600000e+08	3.016872e+13	0.000000e+00	7.105263e-01	5.189428e+14	6.543276e+14	6.147562e+13	1.232242e+04	3.263125e+03	2.763843e+03	0	9.935879e-04
2.700000e+08	2.934987e+13	0.000000e+00	7.105263e-01	5.053410e+14	6.390673e+14	6.115229e+13	1.225709e+04	3.254946e+03	2.756915e+03	0	9.845159e-04
2.800000e+08	2.856618e+13	0.000000e+00	7.105263e-01	4.923211e+14	6.243730e+14	6.083131e+13	1.219346e+04	3.246903e+03	2.750103e+03	0	9.756739e-04
2.900000e+08	2.781562e+13	0.000000e+00	7.105263e-01	4.798498e+14	6.102242e+14	6.051268e+13	1.213145e+04	3.239001e+03	2.743409e+03	0	9.670530e-04
3.000000e+08	2.709634e+13	0.000000e+00	7.105263e-01	4.678963e+14	5.965999e+14	6.019637e+13	1.207101e+04	3.231239e+03	2.736835e+03	0	9.586444e-04
3.100000e+08	2.640657e+13	0.000000e+00	7.105263e-01	4.564315e+14	5.834785e+14	5.988237e+13	1.201206e+04	3.223619e+03	2.730381e+03	0	9.504399e-04
3.200000e+08	2.574468e+13	0.000000e+00	7.105263e-01	4.454285e+14	5.708389e+14	5.957065e+13	1.195454e+04	3.216139e+03	2.724045e+03	0	9.424316e-04
3.300000e+08	2.510917e+13	0.000000e+00	7.105263e-01	4.348622e+14	5.586601e+14	5.926120e+13	1.189839e+04	3.208798e+03	2.717828e+03	0	9.346122e-04
3.400000e+08	2.449860e+13	0.000000e+00	7.105263e-01	4.247091e+14	5.469219e+14	5.895399e+13	1.184357e+04	3.201594e+03	2.711726e+03	0	9.269744e-04
3.500000e+08	2.391165e+13	0.000000e+00	7.105263e-01	4.149473e+14	5.356046e+14	5.864901e+13	1.179002e+04	3.194526e+03	2.705740e+03	0	9.195115e-04
3.600000e+08	2.334709e+13	0.000000e+00	7.105263e-01	4.055562e+14	5.246891e+14	5.834625e+13	1.173769e+04	3.187590e+03	2.699865e+03	0	9.122171e-04
3.700000e+08	2.280374e+13	0.000000e+00	7.105263e-01	3.965168e+14	5.141573e+14	5.804567e+13	1.168653e+04	3.180784e+03	2.694100e+03	0	9.050850e-04
3.800000e+08	2.228054e+13	0.000000e+00	7.105263e-01	3.878110e+14	5.039918e+14	5.774728e+13	1.163651e+04	3.174105e+03	2.688443e+03	0	8.981094e-04
3.900000e+08	2.177646e+13	0.000000e+00	7.105263e-01	3.794220e+14	4.941760e+14	5.745103e+13	1.158758e+04	3.167550e+03	2.682891e+03	0	8.912846e-04
4.000000e+08	2.129054e+13	0.000000e+00	7.105263e-01	3.713342e+14	4.846939e+14	5.715693e+13	1.153970e+04	3.161115e+03	2.677441e+03	0	8.846054e-04
4.100000e+08	2.082191e+13	0.000000e+00	7.105263e-01	3.635326e+14	4.755307e+14	5.686495e+13	1.149283e+04	3.154799e+03	2.672091e+03	0	8.780667e-04
4.200000e+08	2.036971e+13	0.000000e+00	7.105263e-01	3.560035e+14	4.666718e+14	5.657508e+13	1.144694e+04	3.148597e+03	2.666838e+03	0	8.716636e-04
4.300000e+08	1.993316e+13	0.000000e+00	7.105263e-01	3.487338e+14	4.581038e+14	5.628729e+13	1.140200e+04	3.142507e+03	2.661680e+03	0	8.653916e-04
4.400000e+08	1.951151e+13	0.000000e+00	7.105263e-01	3.417113e+14	4.498138e+14	5.600157e+13	1.135796e+04	3.136526e+03	2.656614e+03	0	8.592463e-04
4.500000e+08	1.910408e+13	0.000000e+00	7.105263e-01	3.349243e+14	4.417894e+14	5.571790e+13	1.131481e+04	3.130651e+03	2.651638e+03	0	8.532233e-04
4.600000e+08	1.871021e+13	0.000000e+00	7.105263e-01	3.283621e+14	4.340191e+14	5.543627e+13	1.127251e+04	3.124879e+03	2.646749e+03	0	8.473188e-04
4.700000e+08	1.832927e+13	0.000000e+00	7.105263e-01	3.220145e+14	4.264918e+14	5.515667e+13	1.123103e+04	3.119208e+03	2.641945e+03	0	8.415289e-04
4.800000e+08	1.796068e+13	0.000000e+00	7.105263e-01	3.158717e+14	4.191972e+14	5.487906e+13	1.119035e+04	3.113633e+03	2.637224e+03	0	8.358498e-04
4.900000e+08	1.760390e+13	0.000000e+00	7.105263e-01	3.099246e+14	4.121252e+14	5.460344e+13	1.115044e+04	3.108154e+03	2.632583e+03	0	8.302782e-04
5.000000e+08	1.725841e+13	0.000000e+00	7.105263e-01	3.041648e+14	4.052665e+14	5.432980e+13	1.111128e+04	3.102767e+03	2.628020e+03	0	8.248106e-04
5.100000e+08	1.692370e+13	0.000000e+00	7.105263e-01	2.985840e+14	3.986122e+14	5.405810e+13	1.107284e+04	3.097470e+03	2.623534e+03	0	8.194437e-04
5.200000e+08	1.659933e+13	0.000000e+00	7.105263e-01	2.931746e+14	3.921538e+14	5.378835e+13	1.103511e+04	3.092260e+03	2.619121e+03	0	8.141746e-04
5.300000e+08	1.628486e+13	0.000000e+00	7.105263e-01	2.879293e+14	3.858833e+14	5.352052e+13	1.099805e+04	3.087135e+03	2.614780e+03	0	8.090002e-04
5.400000e+08	1.597986e+13	0.000000e+00	7.105263e-01	2.828413e+14	3.797930e+14	5.325460e+13	1.096165e+04	3.082093e+03	2.610510e+03	0	8.039178e-04
5.500000e+08	1.568394e+13	0.000000e+00	7.105263e-01	2.779040e+14	3.738758e+14	5.299057e+13	1.092589e+04	3.077131e+03	2.606307e+03	0	7.989245e-04
5.600000e+08	1.539674e+13	0.000000e+00	7.105263e-01	2.731114e+14	3.681246e+14	5.272842e+13	1.089075e+04	3.072248e+03	2.602171e+03	0	7.940178e-04
5.700000e+08	1.511789e+13	0.000000e+00	7.105263e-01	2.684574e+14	3.625330e+14	5.246813e+13	1.085621e+04	3.067441e+03	2.598099e+03	0	7.891952e-04
5.800000e+08	1.484707e+13	0.000000e+00	7.105263e-01	2.639366e+14	3.570948e+14	5.220968e+13	1.082226e+04	3.062708e+03	2.594091e+03	0	7.844542e-04
5.900000e+08	1.458395e+13	0.000000e+00	7.105263e-01	2.595437e+14	3.518040e+14	5.195307e+13	1.078888e+04	3.058048e+03	2.590144e+03	0	7.797925e-04
6.000000e+08	1.432824e+13	0.000000e+00	7.105263e-01	2.552737e+14	3.466550e+14	5.169828e+13	1.075605e+04	3.053458e+03	2.586256e+03	0	7.752080e-04
6.100000e+08	1.407964e+13	0.000000e+00	7.105263e-01	2.511218e+14	3.416424e+14	5.144528e+13	1.072376e+04	3.048937e+03	2.582427e+03	0	7.706985e-04
6.200000e+08	1.383788e+13	0.000000e+00	7.105263e-01	2.470836e+14	3.367611e+14	5.119408e+13	1.069199e+04	3.044483e+03	2.578654e+03	0	7.662618e-04
6.300000e+08	1.360270e+13	0.000000e+00	7.105263e-01	2.431547e+14	3.320063e+14	5.094464e+13	1.066072e+04	3.040094e+03	2.574937e+03	0	7.618961e-04
6.400000e+08	1.337386e+13	0.000000e+00	7.105263e-01	2.393309e+14	3.273732e+14	5.069697e+13	1.062996e+04	3.035769e+03	2.571273e+03	0	7.575994e-04
6.500000e+08	1.315112e+13	0.000000e+00	7.105263e-01	2.356085e+14	3.228576e+14	5.045104e+13	1.059967e+04	3.031505e+03	2.567662e+03	0	7.533699e-04
6.600000e+08	1.293426e+13	0.000000e+00	7.105263e-01	2.319836e+14	3.184551e+14	5.020685e+13	1.056985e+04	3.027302e+03	2.564102e+03	0	7.492058e-04
6.700000e+08	1.272305e+13	0.000000e+00	7.105263e-01	2.284528e+14	3.141618e+14	4.996436e+13	1.054049e+04	3.023158e+03	2.560592e+03	0	7.451054e-04
6.800000e+08	1.251730e+13	0.000000e+00	7.105263e-01	2.250126e+14	3.099737e+14	4.972359e+13	1.051157e+04	3.019072e+03	2.557131e+03	0	7.410671e-04
6.900000e+08	1.231681e+13	0.000000e+00	7.105263e-01	2.216599e+14	3.058873e+14	4.948450e+13	1.048309e+04	3.015042e+03	2.553718e+03	0	7.370892e-04
7.000000e+08	1.212139e+13	0.000000e+00	7.105263e-01	2.183914e+14	3.018990e+14	4.924708e+13	1.045503e+04	3.011067e+03	2.550351e+03	0	7.331702e-04
7.100000e+08	1.193088e+13	0.000000e+00	7.105263e-01	2.152044e+14	2.980053e+14	4.901133e+13	1.042738e+04	3.007145e+03	2.547029e+03	0	7.293088e-04
7.200000e+08	1.174509e+13	0.000000e+00	7.105263e-01	2.120959e+14	2.942033e+14	4.877723e+13	1.040013e+04	3.003275e+03	2.543751e+03	0	7.255033e-04
7.300000e+08	1.156386e+13	0.000000e+00	7.105263e-01	2.090634e+14	2.904896e+14	4.854477e+13	1.037328e+04	2.999457e+03	2.540517e+03	0	7.217525e-04
7.400000e+08	1.138705e+13	0.000000e+00	7.105263e-01	2.061041e+14	2.868615e+14	4.831392e+13	1.034680e+04	2.995688e+03	2.537325e+03	0	7.180550e-04
7.500000e+08	1.121449e+13	0.000000e+00	7.105263e-01	2.032156e+14	2.833161e+14	4.808469e+13	1.032070e+04	2.991968e+03	2.534175e+03	0	7.144095e-04
7.600000e+08	1.104606e+13	0.000000e+00	7.105263e-01	2.003957e+14	2.798506e+14	4.785705e+13	1.029497e+04	2.988296e+03	2.531064e+03	0	7.108147e-04
7.700000e+08	1.088161e+13	0.000000e+00	7.105263e-01	1.976420e+14	2.764626e+14	4.763100e+13	1.026959e+04	2.984670e+03	2.527993e+03	0	7.072696e-04
7.800000e+08	1.072101e+13	0.000000e+00	7.105263e-01	1.949523e+14	2.731495e+14	4.740652e+13	1.024455e+04	2.981090e+03	2.524961e+03	0	7.037729e-04
7.900000e+08	1.056413e+13	0.000000e+00	7.105263e-01	1.923246e+14	2.699090e+14	4.718359e+13	1.021986e+04	2.977555e+03	2.521966e+03	0	7.003234e-04
8.000000e+08	1.041087e+13	0.000000e+00	7.105263e-01	1.897570e+14	2.667388e+14	4.696221e+13	1.019549e+04	2.974062e+03	2.519008e+03	0	6.969201e-04
8.100000e+08	1.026110e+13	0.000000e+00	7.105263e-01	1.872474e+14	2.636366e+14	4.674237e+13	1.017145e+04	2.970613e+03	2.516087e+03	0	6.935620e-04
8.200000e+08	1.011471e+13	0.000000e+00	7.105263e-01	1.847941e+14	2.606004e+14	4.652405e+13	1.014773e+04	2.967205e+03	2.513200e+03	0	6.902479e-04
8.300000e+08	9.971593e+12	0.000000e+00	7.105263e-01	1.823952e+14	2.576282e+14	4.630724e+13	1.012432e+04	2.963838e+03	2.510348e+03	0	6.869770e-04
8.400000e+08	9.831653e+12	0.000000e+00	7.105263e-01	1.800492e+14	2.547180e+14	4.609192e+13	1.010121e+04	2.960511e+03	2.507530e+03	0	6.837482e-04
8.500000e+08	9.694790e+12	0.000000e+00	7.105263e-01	1.777544e+14	2.518680e+14	4.587809e+13	1.007839e+04	2.957223e+03	2.504745e+03	0	6.805606e-04
8.600000e+08	9.560909e+12	0.000000e+00	7.105263e-01	1.755093e+14	2.490764e+14	4.566574e+13	1.005587e+04	2.953973e+03	2.501993e+03	0	6.774133e-04
8.700000e+08	9.429921e+12	0.000000e+00	7.105263e-01	1.733123e+14	2.463414e+14	4.545485e+13	1.003362e+04	2.950760e+03	2.499272e+03	0	6.743055e-04
8.800000e+08	9.301739e+12	0.000000e+00	7.105263e-01	1.711620e+14	2.436614e+14	4.524540e+13	1.001166e+04	2.947584e+03	2.496582e+03	0	6.712362e-04
8.900000e+08	9.176280e+12	0.000000e+00	7.105263e-01	1.690570e+14	2.410349e+14	4.503740e+13	9.989965e+03	2.944445e+03	2.493922e+03	0	6.682047e-04
9.000000e+08	9.053462e+12	0.000000e+00	7.105263e-01	1.669960e+14	2.384601e+14	4.483082e+13	9.968537e+03	2.941340e+03	2.491293e+03	0	6.652102e-04
9.100000e+08	8.933210e+12	0.000000e+00	7.105263e-01	1.649777e+14	2.359358e+14	4.462566e+13	9.947370e+03	2.938270e+03	2.488692e+03	0	6.622518e-04
9.200000e+08	8.815448e+12	0.000000e+00	7.105263e-01	1.630008e+14	2.334605e+14	4.442191e+13	9.926457e+03	2.935234e+03	2.486121e+03	0	6.593289e-04
9.300000e+08	8.700104e+12	0.000000e+00	7.105263e-01	1.610643e+14	2.310327e+14	4.421955e+13	9.905794e+03	2.932230e+03	2.483577e+03	0	6.564407e-04
9.400000e+08	8.587111e+12	0.000000e+00	7.105263e-01	1.591669e+14	2.286512e+14	4.401857e+13	9.885375e+03	2.929260e+03	2.481061e+03	0	6.535864e-04
9.500000e+08	8.476400e+12	0.000000e+00	7.105263e-01	1.573075e+14	2.263147e+14	4.381896e+13	9.865196e+03	2.926321e+03	2.478572e+03	0	6.507654e-04
9.600000e+08	8.367909e+12	0.000000e+00	7.105263e-01	1.554851e+14	2.240220e+14	4.362072e+13	9.845252e+03	2.923413e+03	2.476109e+03	0	6.479771e-04
9.700000e+08	8.261575e+12	0.000000e+00	7.105263e-01	1.536986e+14	2.217718e+14	4.342382e+13	9.825538e+03	2.920536e+03	2.473672e+03	0	6.452207e-04
9.800000e+08	8.157339e+12	0.000000e+00	7.105263e-01	1.519471e+14	2.195631e+14	4.322827e+13	9.806049e+03	2.917689e+03	2.471261e+03	0	6.424956e-04
9.900000e+08	8.055143e+12	0.000000e+00	7.105263e-01	1.502295e+14	2.173947e+14	4.303404e+13	9.786782e+03	2.914872e+03	2.468875e+03	0	6.398012e-04
1.000000e+09	7.954932e+12	0.000000e+00	7.105263e-01	1.485451e+14	2.152656e+14	4.284113e+13	9.767732e+03	2.912084e+03	2.466513e+03	0	6.371370e-04
1.010000e+09	7.856652e+12	0.000000e+00	7.105263e-01	1.468928e+14	2.131747e+14	4.264953e+13	9.748894e+03	2.909324e+03	2.464175e+03	0	6.345022e-04
1.020000e+09	7.760251e+12	0.000000e+00	7.105263e-01	1.452718e+14	2.111210e+14	4.245923e+13	9.730266e+03	2.906592e+03	2.461861e+03	0	6.318964e-04
1.030000e+09	7.665679e+12	0.000000e+00	7.105263e-01	1.436813e+14	2.091037e+14	4.227022e+13	9.711842e+03	2.903887e+03	2.459570e+03	0	6.293190e-04
1.040000e+09	7.572888e+12	0.000000e+00	7.105263e-01	1.421206e+14	2.071217e+14	4.208248e+13	9.693619e+03	2.901209e+03	2.457302e+03	0	6.267695e-04
1.050000e+09	7.481832e+12	0.000000e+00	7.105263e-01	1.405887e+14	2.051741e+14	4.189601e+13	9.675593e+03	2.898557e+03	2.455056e+03	0	6.242472e-04
1.060000e+09	7.392464e+12	0.000000e+00	7.105263e-01	1.390850e+14	2.032601e+14	4.171080e+13	9.657761e+03	2.895932e+03	2.452832e+03	0	6.217518e-04
1.070000e+09	7.304743e+12	0.000000e+00	7.105263e-01	1.376087e+14	2.013789e+14	4.152684e+13	9.640119e+03	2.893332e+03	2.450630e+03	0	6.192827e-04
1.080000e+09	7.218625e+12	0.000000e+00	7.105263e-01	1.361592e+14	1.995295e+14	4.134411e+13	9.622664e+03	2.890757e+03	2.448449e+03	0	6.168395e-04
1.090000e+09	7.134069e+12	0.000000e+00	7.105263e-01	1.347358e+14	1.977114e+14	4.116262e+13	9.605392e+03	2.888206e+03	2.446289e+03	0	6.144215e-04
1.100000e+09	7.051037e+12	0.000000e+00	7.105263e-01	1.333377e+14	1.959236e+14	4.098234e+13	9.588299e+03	2.885680e+03	2.444149e+03	0	6.120285e-04
1.110000e+09	6.969490e+12	0.000000e+00	7.105263e-01	1.319644e+14	1.941654e+14	4.080327e+13	9.571384e+03	2.883177e+03	2.442029e+03	0	6.096599e-04
1.120000e+09	6.889390e+12	0.000000e+00	7.105263e-01	1.306153e+14	1.924362e+14	4.062540e+13	9.554642e+03	2.880698e+03	2.439929e+03	0	6.073153e-04
1.130000e+09	6.810703e+12	0.000000e+00	7.105263e-01	1.292898e+14	1.907352e+14	4.044872e+13	9.538070e+03	2.878242e+03	2.437849e+03	0	6.049943e-04
1.140000e+09	6.733394e+12	0.000000e+00	7.105263e-01	1.279872e+14	1.890617e+14	4.027322e+13	9.521667e+03	2.875808e+03	2.435787e+03	0	6.026965e-04
1.150000e+09	6.657428e+12	0.000000e+00	7.105263e-01	1.267070e+14	1.874152e+14	4.009890e+13	9.505428e+03	2.873396e+03	2.433745e+03	0	6.004214e-04
1.160000e+09	6.582774e+12	0.000000e+00	7.105263e-01	1.254488e+14	1.857950e+14	3.992573e+13	9.489351e+03	2.871006e+03	2.431721e+03	0	5.981686e-04
1.170000e+09	6.509400e+12	0.000000e+00	7.105263e-01	1.242119e+14	1.842005e+14	3.975372e+13	9.473432e+03	2.868638e+03	2.429715e+03	0	5.959379e-04
1.180000e+09	6.437275e+12	0.000000e+00	7.105263e-01	1.229958e+14	1.826310e+14	3.958286e+13	9.457671e+03	2.866290e+03	2.427726e+03	0	5.937287e-04
1.190000e+09	6.366370e+12	0.000000e+00	7.105263e-01	1.218002e+14	1.810860e+14	3.941313e+13	9.442063e+03	2.863964e+03	2.425756e+03	0	5.915407e-04
1.200000e+09	6.296655e+12	0.000000e+00	7.105263e-01	1.206244e+14	1.795650e+14	3.924452e+13	9.426606e+03	2.861658e+03	2.423802e+03	0	5.893735e-04
1.210000e+09	6.228104e+12	0.000000e+00	7.105263e-01	1.194680e+14	1.780674e+14	3.907704e+13	9.411299e+03	2.859371e+03	2.421866e+03	0	5.872269e-04
1.220000e+09	6.160689e+12	0.000000e+00	7.105263e-01	1.183306e+14	1.765927e+14	3.891067e+13	9.396137e+03	2.857105e+03	2.419946e+03	0	5.851004e-04
1.230000e+09	6.094383e+12	0.000000e+00	7.105263e-01	1.172117e+14	1.751404e+14	3.874539e+13	9.381119e+03	2.854858e+03	2.418043e+03	0	5.829938e-04
1.240000e+09	6.029162e+12	0.000000e+00	7.105263e-01	1.161110e+14	1.737100e+14	3.858121e+13	9.366243e+03	2.852630e+03	2.416156e+03	0	5.809066e-04
1.250000e+09	5.965000e+12	0.000000e+00	7.105263e-01	1.150279e+14	1.723009e+14	3.841811e+13	9.351506e+03	2.850421e+03	2.414285e+03	0	5.788386e-04
1.260000e+09	5.901874e+12	0.000000e+00	7.105263e-01	1.139621e+14	1.709128e+14	3.825609e+13	9.336907e+03	2.848231e+03	2.412430e+03	0	5.767895e-04
1.270000e+09	5.839761e+12	0.000000e+00	7.105263e-01	1.129133e+14	1.695452e+14	3.809513e+13	9.322442e+03	2.846059e+03	2.410590e+03	0	5.747589e-04
1.280000e+09	5.778637e+12	0.000000e+00	7.105263e-01	1.118810e+14	1.681976e+14	3.793524e+13	9.308109e+03	2.843905e+03	2.408766e+03	0	5.727465e-04
1.290000e+09	5.718481e+12	0.000000e+00	7.105263e-01	1.108648e+14	1.668696e+14	3.777639e+13	9.293908e+03	2.841768e+03	2.406956e+03	0	5.707521e-04
1.300000e+09	5.659271e+12	0.000000e+00	7.105263e-01	1.098645e+14	1.655609e+14	3.761859e+13	9.279835e+03	2.839649e+03	2.405161e+03	0	5.687754e-04
1.310000e+09	5.600986e+12	0.000000e+00	7.105263e-01	1.088796e+14	1.642709e+14	3.746182e+13	9.265888e+03	2.837547e+03	2.403381e+03	0	5.668161e-04
1.320000e+09	5.543607e+12	0.000000e+00	7.105263e-01	1.079099e+14	1.629993e+14	3.730608e+13	9.252066e+03	2.835462e+03	2.401615e+03	0	5.648739e-04
1.330000e+09	5.487114e+12	0.000000e+00	7.105263e-01	1.069550e+14	1.617458e+14	3.715135e+13	9.238367e+03	2.833394e+03	2.399864e+03	0	5.629485e-04
1.340000e+09	5.431488e+12	0.000000e+00	7.105263e-01	1.060146e+14	1.605099e+14	3.699764e+13	9.224789e+03	2.831342e+03	2.398126e+03	0	5.610397e-04
1.350000e+09	5.376710e+12	0.000000e+00	7.105263e-01	1.050883e+14	1.592912e+14	3.684493e+13	9.211330e+03	2.829307e+03	2.396401e+03	0	5.591472e-04
1.360000e+09	5.322761e+12	0.000000e+00	7.105263e-01	1.041760e+14	1.580895e+14	3.669322e+13	9.197988e+03	2.827287e+03	2.394691e+03	0	5.572709e-04
