#t		Qconv[W]	Ri[Rp]		R*[Rp]		Qc[W]		Qm[W]		Qr[W]		Tcmb[K]		Tl[K]		Tup[K]		RiFlag		Bs[T]
0.000000e+00	9.903090e+13	0.000000e+00	7.105263e-01	1.535029e+15	7.555747e+14	7.975106e+13	1.638583e+04	3.279549e+03	2.755295e+03	0	1.470434e-03
1.000000e+07	9.579157e+13	0.000000e+00	7.105263e-01	1.485666e+15	8.787752e+14	7.930918e+13	1.621766e+04	3.363559e+03	2.825876e+03	0	1.454223e-03
2.000000e+07	9.251299e+13	0.000000e+00	7.105263e-01	1.435721e+15	9.825395e+14	7.887061e+13	1.605482e+04	3.430137e+03	2.881812e+03	0	1.437439e-03
3.000000e+07	8.923985e+13	0.000000e+00	7.105263e-01	1.385872e+15	1.064454e+15	7.843531e+13	1.589737e+04	3.481450e+03	2.924922e+03	0	1.420283e-03
4.000000e+07	8.601043e+13	0.000000e+00	7.105263e-01	1.336695e+15	1.124827e+15	7.800326e+13	1.574532e+04	3.519844e+03	2.957178e+03	0	1.402940e-03
5.000000e+07	8.285496e+13	0.000000e+00	7.105263e-01	1.288649e+15	1.165695e+15	7.757444e+13	1.559858e+04	3.547592e+03	2.980491e+03	0	1.385569e-03
6.000000e+07	7.979556e+13	0.000000e+00	7.105263e-01	1.242068e+15	1.189936e+15	7.714881e+13	1.545706e+04	3.566751e+03	2.996587e+03	0	1.368301e-03
7.000000e+07	7.684716e+13	0.000000e+00	7.105263e-01	1.197176e+15	1.200624e+15	7.672635e+13	1.532058e+04	3.579089e+03	3.006952e+03	0	1.351236e-03
8.000000e+07	7.401871e+13	0.000000e+00	7.105263e-01	1.154110e+15	1.200654e+15	7.630704e+13	1.518898e+04	3.586076e+03	3.012822e+03	0	1.334450e-03
9.000000e+07	7.131456e+13	0.000000e+00	7.105263e-01	1.112933e+15	1.192549e+15	7.589084e+13	1.506205e+04	3.588907e+03	3.015201e+03	0	1.317998e-03
1.000000e+08	6.873556e+13	0.000000e+00	7.105263e-01	1.073658e+15	1.178406e+15	7.547773e+13	1.493960e+04	3.588537e+03	3.014890e+03	0	1.301914e-03
1.100000e+08	6.628013e+13	0.000000e+00	7.105263e-01	1.036262e+15	1.159912e+15	7.506768e+13	1.482142e+04	3.585719e+03	3.012523e+03	0	1.286223e-03
1.200000e+08	6.394495e+13	0.000000e+00	7.105263e-01	1.000693e+15	1.138390e+15	7.466068e+13	1.470731e+04	3.581044e+03	3.008595e+03	0	1.270937e-03
1.300000e+08	6.172562e+13	0.000000e+00	7.105263e-01	9.668851e+14	1.114863e+15	7.425669e+13	1.459707e+04	3.574973e+03	3.003494e+03	0	1.256060e-03
1.400000e+08	5.961706e+13	0.000000e+00	7.105263e-01	9.347602e+14	1.090105e+15	7.385569e+13	1.449051e+04	3.567863e+03	2.997521e+03	0	1.241592e-03
1.500000e+08	5.761386e+13	0.000000e+00	7.105263e-01	9.042361e+14	1.064697e+15	7.345765e+13	1.438746e+04	3.559990e+03	2.990907e+03	0	1.227527e-03
1.600000e+08	5.571045e+13	0.000000e+00	7.105263e-01	8.752285e+14	1.039073e+15	7.306256e+13	1.428774e+04	3.551571e+03	2.983834e+03	0	1.213857e-03
1.700000e+08	5.390132e+13	0.000000e+00	7.105263e-01	8.476535e+14	1.013547e+15	7.267038e+13	1.419119e+04	3.542771e+03	2.976440e+03	0	1.200573e-03
1.800000e+08	5.218106e+13	0.000000e+00	7.105263e-01	8.214291e+14	9.883473e+14	7.228109e+13	1.409764e+04	3.533719e+03	2.968835e+03	0	1.187662e-03
1.900000e+08	5.054447e+13	0.000000e+00	7.105263e-01	7.964765e+14	9.636345e+14	7.189467e+13	1.400697e+04	3.524513e+03	2.961101e+03	0	1.175114e-03
2.000000e+08	4.898661e+13	0.000000e+00	7.105263e-01	7.727203e+14	9.395192e+14	7.151109e+13	1.391902e+04	3.515231e+03	2.953302e+03	0	1.162914e-03
2.100000e+08	4.750276e+13	0.000000e+00	7.105263e-01	7.500892e+14	9.160742e+14	7.113033e+13	1.383367e+04	3.505930e+03	2.945488e+03	0	1.151052e-03
2.200000e+08	4.608850e+13	0.000000e+00	7.105263e-01	7.285159e+14	8.933442e+14	7.075237e+13	1.375079e+04	3.496656e+03	2.937697e+03	0	1.139513e-03
2.300000e+08	4.473967e+13	0.000000e+00	7.105263e-01	7.079373e+14	8.713529e+14	7.037718e+13	1.367028e+04	3.487444e+03	2.929957e+03	0	1.128287e-03
2.400000e+08	4.345237e+13	0.000000e+00	7.105263e-01	6.882941e+14	8.501090e+14	7.000474e+13	1.359202e+04	3.478318e+03	2.922291e+03	0	1.117360e-03
2.500000e+08	4.222295e+13	0.000000e+00	7.105263e-01	6.695310e+14	8.296097e+14	6.963503e+13	1.351592e+04	3.469300e+03	2.914714e+03	0	1.106721e-03
2.600000e+08	4.104801e+13	0.000000e+00	7.105263e-01	6.515963e+14	8.098445e+14	6.926803e+13	1.344187e+04	3.460402e+03	2.907239e+03	0	1.096359e-03
2.700000e+08	3.992438e+13	0.000000e+00	7.105263e-01	6.344418e+14	7.907971e+14	6.890371e+13	1.336978e+04	3.451636e+03	2.899874e+03	0	1.086262e-03
2.800000e+08	3.884908e+13	0.000000e+00	7.105263e-01	6.180225e+14	7.724473e+14	6.854205e+13	1.329958e+04	3.443009e+03	2.892625e+03	0	1.076421e-03
2.900000e+08	3.781936e+13	0.000000e+00	7.105263e-01	6.022964e+14	7.547724e+14	6.818303e+13	1.323118e+04	3.434525e+03	2.885497e+03	0	1.066825e-03
3.000000e+08	3.683264e+13	0.000000e+00	7.105263e-01	5.872245e+14	7.377482e+14	6.782663e+13	1.316451e+04	3.426186e+03	2.878492e+03	0	1.057466e-03
3.100000e+08	3.588652e+13	0.000000e+00	7.105263e-01	5.727701e+14	7.213497e+14	6.747282e+13	1.309949e+04	3.417996e+03	2.871611e+03	0	1.048332e-03
3.200000e+08	3.497876e+13	0.000000e+00	7.105263e-01	5.588994e+14	7.055517e+14	6.712159e+13	1.303606e+04	3.409953e+03	2.864854e+03	0	1.039418e-03
3.300000e+08	3.410726e+13	0.000000e+00	7.105263e-01	5.455805e+14	6.903289e+14	6.677291e+13	1.297416e+04	3.402057e+03	2.858220e+03	0	1.030713e-03
3.400000e+08	3.327008e+13	0.000000e+00	7.105263e-01	5.327837e+14	6.756566e+14	6.642677e+13	1.291371e+04	3.394306e+03	2.851708e+03	0	1.022209e-03
3.500000e+08	3.246538e+13	0.000000e+00	7.105263e-01	5.204814e+14	6.615108e+14	6.608313e+13	1.285468e+04	3.386699e+03	2.845317e+03	0	1.013901e-03
3.600000e+08	3.169147e+13	0.000000e+00	7.105263e-01	5.086476e+14	6.478681e+14	6.574199e+13	1.279700e+04	3.379233e+03	2.839044e+03	0	1.005779e-03
3.700000e+08	3.094674e+13	0.000000e+00	7.105263e-01	4.972580e+14	6.347060e+14	6.540332e+13	1.274062e+04	3.371905e+03	2.832888e+03	0	9.978385e-04
3.800000e+08	3.022970e+13	0.000000e+00	7.105263e-01	4.862900e+14	6.220029e+14	6.506709e+13	1.268549e+04	3.364713e+03	2.826846e+03	0	9.900715e-04
3.900000e+08	2.953896e+13	0.000000e+00	7.105263e-01	4.757224e+14	6.097382e+14	6.473330e+13	1.263157e+04	3.357654e+03	2.820915e+03	0	9.824724e-04
4.000000e+08	2.887320e+13	0.000000e+00	7.105263e-01	4.655350e+14	5.978921e+14	6.440192e+13	1.257882e+04	3.350724e+03	2.815093e+03	0	9.750351e-04
4.100000e+08	2.823119e+13	0.000000e+00	7.105263e-01	4.557094e+14	5.864458e+14	6.407293e+13	1.252718e+04	3.343921e+03	2.809377e+03	0	9.677540e-04
4.200000e+08	2.761177e+13	0.000000e+00	7.105263e-01	4.462279e+14	5.753814e+14	6.374631e+13	1.247663e+04	3.337240e+03	2.803765e+03	0	9.606238e-04
4.300000e+08	2.701386e+13	0.000000e+00	7.105263e-01	4.370739e+14	5.646819e+14	6.342204e+13	1.242713e+04	3.330680e+03	2.798253e+03	0	9.536393e-04
4.400000e+08	2.643644e+13	0.000000e+00	7.105263e-01	4.282321e+14	5.543311e+14	6.310011e+13	1.237863e+04	3.324237e+03	2.792840e+03	0	9.467957e-04
4.500000e+08	2.587855e+13	0.000000e+00	7.105263e-01	4.196878e+14	5.443137e+14	6.278049e+13	1.233111e+04	3.317908e+03	2.787523e+03	0	9.400882e-04
4.600000e+08	2.533929e+13	0.000000e+00	7.105263e-01	4.114273e+14	5.346150e+14	6.246316e+13	1.228453e+04	3.311690e+03	2.782298e+03	0	9.335124e-04
4.700000e+08	2.481780e+13	0.000000e+00	7.105263e-01	4.034376e+14	5.252214e+14	6.214811e+13	1.223886e+04	3.305579e+03	2.777165e+03	0	9.270640e-04
4.800000e+08	2.431328e+13	0.000000e+00	7.105263e-01	3.957065e+14	5.161195e+14	6.183531e+13	1.219407e+04	3.299574e+03	2.772119e+03	0	9.207389e-04
4.900000e+08	2.382498e+13	0.000000e+00	7.105263e-01	3.882225e+14	5.072971e+14	6.152476e+13	1.215013e+04	3.293670e+03	2.767160e+03	0	9.145332e-04
5.000000e+08	2.335218e+13	0.000000e+00	7.105263e-01	3.809748e+14	4.987422e+14	6.121643e+13	1.210702e+04	3.287866e+03	2.762283e+03	0	9.084431e-04
5.100000e+08	2.289420e+13	0.000000e+00	7.105263e-01	3.739531e+14	4.904437e+14	6.091030e+13	1.206471e+04	3.282159e+03	2.757488e+03	0	9.024652e-04
5.200000e+08	2.245041e+13	0.000000e+00	7.105263e-01	3.671477e+14	4.823910e+14	6.060635e+13	1.202318e+04	3.276546e+03	2.752772e+03	0	8.965958e-04
5.300000e+08	2.202020e+13	0.000000e+00	7.105263e-01	3.605493e+14	4.745738e+14	6.030457e+13	1.198240e+04	3.271024e+03	2.748133e+03	0	8.908318e-04
5.400000e+08	2.160301e+13	0.000000e+00	7.105263e-01	3.541494e+14	4.669827e+14	6.000494e+13	1.194234e+04	3.265591e+03	2.743569e+03	0	8.851700e-04
5.500000e+08	2.119828e+13	0.000000e+00	7.105263e-01	3.479396e+14	4.596086e+14	5.970745e+13	1.190299e+04	3.260246e+03	2.739078e+03	0	8.796073e-04
5.600000e+08	2.080552e+13	0.000000e+00	7.105263e-01	3.419122e+14	4.524427e+14	5.941206e+13	1.186433e+04	3.254984e+03	2.734657e+03	0	8.741409e-04
5.700000e+08	2.042422e+13	0.000000e+00	7.105263e-01	3.360598e+14	4.454768e+14	5.911878e+13	1.182634e+04	3.249805e+03	2.730306e+03	0	8.687680e-04
5.800000e+08	2.005394e+13	0.000000e+00	7.105263e-01	3.303754e+14	4.387032e+14	5.882758e+13	1.178899e+04	3.244706e+03	2.726022e+03	0	8.634858e-04
5.900000e+08	1.969423e+13	0.000000e+00	7.105263e-01	3.248523e+14	4.321144e+14	5.853844e+13	1.175227e+04	3.239685e+03	2.721804e+03	0	8.582917e-04
6.000000e+08	1.934468e+13	0.000000e+00	7.105263e-01	3.194841e+14	4.257032e+14	5.825135e+13	1.171616e+04	3.234739e+03	2.717649e+03	0	8.531835e-04
6.100000e+08	1.900488e+13	0.000000e+00	7.105263e-01	3.142649e+14	4.194630e+14	5.796628e+13	1.168064e+04	3.229868e+03	2.713556e+03	0	8.481585e-04
6.200000e+08	1.867448e+13	0.000000e+00	7.105263e-01	3.091889e+14	4.133873e+14	5.768324e+13	1.164570e+04	3.225069e+03	2.709525e+03	0	8.432146e-04
6.300000e+08	1.835310e+13	0.000000e+00	7.105263e-01	3.042508e+14	4.074700e+14	5.740219e+13	1.161132e+04	3.220340e+03	2.705552e+03	0	8.383495e-04
6.400000e+08	1.804041e+13	0.000000e+00	7.105263e-01	2.994452e+14	4.017054e+14	5.712312e+13	1.157749e+04	3.215680e+03	2.701637e+03	0	8.335611e-04
6.500000e+08	1.773609e+13	0.000000e+00	7.105263e-01	2.947673e+14	3.960877e+14	5.684602e+13	1.154419e+04	3.211087e+03	2.697778e+03	0	8.288474e-04
6.600000e+08	1.743982e+13	0.000000e+00	7.105263e-01	2.902125e+14	3.906117e+14	5.657087e+13	1.151141e+04	3.206559e+03	2.693973e+03	0	8.242063e-04
6.700000e+08	1.715131e+13	0.000000e+00	7.105263e-01	2.857761e+14	3.852724e+14	5.629765e+13	1.147913e+04	3.202094e+03	2.690222e+03	0	8.196361e-04
6.800000e+08	1.687029e+13	0.000000e+00	7.105263e-01	2.814540e+14	3.800649e+14	5.602635e+13	1.144734e+04	3.197692e+03	2.686524e+03	0	8.151348e-04
6.900000e+08	1.659647e+13	0.000000e+00	7.105263e-01	2.772420e+14	3.749846e+14	5.575696e+13	1.141603e+04	3.193350e+03	2.682876e+03	0	8.107007e-04
7.000000e+08	1.632962e+13	0.000000e+00	7.105263e-01	2.731362e+14	3.700270e+14	5.548945e+13	1.138519e+04	3.189067e+03	2.679278e+03	0	8.063321e-04
7.100000e+08	1.606947e+13	0.000000e+00	7.105263e-01	2.691331e+14	3.651881e+14	5.522382e+13	1.135480e+04	3.184842e+03	2.675728e+03	0	8.020273e-04
7.200000e+08	1.581581e+13	0.000000e+00	7.105263e-01	2.652288e+14	3.604636e+14	5.496004e+13	1.132485e+04	3.180674e+03	2.672226e+03	0	7.977847e-04
7.300000e+08	1.556840e+13	0.000000e+00	7.105263e-01	2.614202e+14	3.558499e+14	5.469811e+13	1.129534e+04	3.176560e+03	2.668770e+03	0	7.936029e-04
7.400000e+08	1.532703e+13	0.000000e+00	7.105263e-01	2.577039e+14	3.513431e+14	5.443801e+13	1.126625e+04	3.172500e+03	2.665359e+03	0	7.894803e-04
7.500000e+08	1.509151e+13	0.000000e+00	7.105263e-01	2.540769e+14	3.469397e+14	5.417971e+13	1.123757e+04	3.168493e+03	2.661992e+03	0	7.854155e-04
7.600000e+08	1.486162e+13	0.000000e+00	7.105263e-01	2.505361e+14	3.426364e+14	5.392322e+13	1.120929e+04	3.164537e+03	2.658669e+03	0	7.814071e-04
7.700000e+08	1.463719e+13	0.000000e+00	7.105263e-01	2.470786e+14	3.384300e+14	5.366852e+13	1.118141e+04	3.160631e+03	2.655387e+03	0	7.774537e-04
7.800000e+08	1.441804e+13	0.000000e+00	7.105263e-01	2.437019e+14	3.343172e+14	5.341558e+13	1.115390e+04	3.156775e+03	2.652147e+03	0	7.735542e-04
7.900000e+08	1.420400e+13	0.000000e+00	7.105263e-01	2.404032e+14	3.302951e+14	5.316440e+13	1.112678e+04	3.152966e+03	2.648948e+03	0	7.697071e-04
8.000000e+08	1.399489e+13	0.000000e+00	7.105263e-01	2.371800e+14	3.263609e+14	5.291496e+13	1.110001e+04	3.149204e+03	2.645787e+03	0	7.659113e-04
8.100000e+08	1.379057e+13	0.000000e+00	7.105263e-01	2.340300e+14	3.225118e+14	5.266725e+13	1.107361e+04	3.145489e+03	2.642665e+03	0	7.621657e-04
8.200000e+08	1.359088e+13	0.000000e+00	7.105263e-01	2.309508e+14	3.187452e+14	5.242126e+13	1.104755e+04	3.141818e+03	2.639581e+03	0	7.584690e-04
8.300000e+08	1.339568e+13	0.000000e+00	7.105263e-01	2.279402e+14	3.150585e+14	5.217696e+13	1.102184e+04	3.138191e+03	2.636534e+03	0	7.548202e-04
8.400000e+08	1.320482e+13	0.000000e+00	7.105263e-01	2.249961e+14	3.114493e+14	5.193435e+13	1.099645e+04	3.134607e+03	2.633524e+03	0	7.512182e-04
8.500000e+08	1.301817e+13	0.000000e+00	7.105263e-01	2.221165e+14	3.079153e+14	5.169342e+13	1.097140e+04	3.131066e+03	2.630548e+03	0	7.476620e-04
8.600000e+08	1.283561e+13	0.000000e+00	7.105263e-01	2.192993e+14	3.044542e+14	5.145415e+13	1.094666e+04	3.127565e+03	2.627607e+03	0	7.441505e-04
8.700000e+08	1.265701e+13	0.000000e+00	7.105263e-01	2.165426e+14	3.010639e+14	5.121652e+13	1.092224e+04	3.124105e+03	2.624700e+03	0	7.406829e-04
8.800000e+08	1.248225e+13	0.000000e+00	7.105263e-01	2.138448e+14	2.977422e+14	5.098053e+13	1.089812e+04	3.120685e+03	2.621827e+03	0	7.372580e-04
8.900000e+08	1.231121e+13	0.000000e+00	7.105263e-01	2.112040e+14	2.944873e+14	5.074616e+13	1.087430e+04	3.117303e+03	2.618986e+03	0	7.338751e-04
9.000000e+08	1.214379e+13	0.000000e+00	7.105263e-01	2.086185e+14	2.912971e+14	5.051340e+13	1.085078e+04	3.113960e+03	2.616177e+03	0	7.305333e-04
9.100000e+08	1.197988e+13	0.000000e+00	7.105263e-01	2.060867e+14	2.881698e+14	5.028224e+13	1.082754e+04	3.110653e+03	2.613399e+03	0	7.272316e-04
9.200000e+08	1.181937e+13	0.000000e+00	7.105263e-01	2.036072e+14	2.851037e+14	5.005265e+13	1.080458e+04	3.107383e+03	2.610651e+03	0	7.239692e-04
9.300000e+08	1.166218e+13	0.000000e+00	7.105263e-01	2.011782e+14	2.820969e+14	4.982464e+13	1.078190e+04	3.104149e+03	2.607934e+03	0	7.207454e-04
9.400000e+08	1.150820e+13	0.000000e+00	7.105263e-01	1.987985e+14	2.791479e+14	4.959819e+13	1.075949e+04	3.100950e+03	2.605247e+03	0	7.175592e-04
9.500000e+08	1.135734e+13	0.000000e+00	7.105263e-01	1.964667e+14	2.762551e+14	4.937328e+13	1.073734e+04	3.097785e+03	2.602588e+03	0	7.144100e-04
9.600000e+08	1.120952e+13	0.000000e+00	7.105263e-01	1.941813e+14	2.734168e+14	4.914991e+13	1.071545e+04	3.094654e+03	2.599957e+03	0	7.112970e-04
9.700000e+08	1.106466e+13	0.000000e+00	7.105263e-01	1.919412e+14	2.706317e+14	4.892805e+13	1.069381e+04	3.091556e+03	2.597355e+03	0	7.082195e-04
9.800000e+08	1.092265e+13	0.000000e+00	7.105263e-01	1.897449e+14	2.678983e+14	4.870771e+13	1.067242e+04	3.088491e+03	2.594779e+03	0	7.051768e-04
9.900000e+08	1.078344e+13	0.000000e+00	7.105263e-01	1.875915e+14	2.652152e+14	4.848887e+13	1.065128e+04	3.085457e+03	2.592230e+03	0	7.021681e-04
1.000000e+09	1.064695e+13	0.000000e+00	7.105263e-01	1.854796e+14	2.625810e+14	4.827151e+13	1.063038e+04	3.082455e+03	2.589708e+03	0	6.991929e-04
1.010000e+09	1.051309e+13	0.000000e+00	7.105263e-01	1.834081e+14	2.599946e+14	4.805562e+13	1.060971e+04	3.079483e+03	2.587211e+03	0	6.962504e-04
1.020000e+09	1.038181e+13	0.000000e+00	7.105263e-01	1.813761e+14	2.574546e+14	4.784120e+13	1.058927e+04	3.076541e+03	2.584740e+03	0	6.933400e-04
1.030000e+09	1.025302e+13	0.000000e+00	7.105263e-01	1.793824e+14	2.549598e+14	4.762822e+13	1.056905e+04	3.073629e+03	2.582293e+03	0	6.904611e-04
1.040000e+09	1.012667e+13	0.000000e+00	7.105263e-01	1.774260e+14	2.525090e+14	4.741669e+13	1.054906e+04	3.070746e+03	2.579871e+03	0	6.876131e-04
1.050000e+09	1.000269e+13	0.000000e+00	7.105263e-01	1.755059e+14	2.501012e+14	4.720659e+13	1.052928e+04	3.067891e+03	2.577473e+03	0	6.847955e-04
1.060000e+09	9.881021e+12	0.000000e+00	7.105263e-01	1.736213e+14	2.477353e+14	4.699790e+13	1.050972e+04	3.065065e+03	2.575098e+03	0	6.820076e-04
1.070000e+09	9.761599e+12	0.000000e+00	7.105263e-01	1.717712e+14	2.454102e+14	4.679062e+13	1.049036e+04	3.062266e+03	2.572746e+03	0	6.792489e-04
1.080000e+09	9.644370e+12	0.000000e+00	7.105263e-01	1.699546e+14	2.431248e+14	4.658473e+13	1.047122e+04	3.059494e+03	2.570417e+03	0	6.765188e-04
1.090000e+09	9.529276e+12	0.000000e+00	7.105263e-01	1.681708e+14	2.408783e+14	4.638023e+13	1.045227e+04	3.056748e+03	2.568110e+03	0	6.738169e-04
1.100000e+09	9.416263e+12	0.000000e+00	7.105263e-01	1.664190e+14	2.386696e+14	4.617710e+13	1.043352e+04	3.054028e+03	2.565826e+03	0	6.711426e-04
1.110000e+09	9.305280e+12	0.000000e+00	7.105263e-01	1.646982e+14	2.364978e+14	4.597533e+13	1.041497e+04	3.051334e+03	2.563562e+03	0	6.684954e-04
1.120000e+09	9.196275e+12	0.000000e+00	7.105263e-01	1.630078e+14	2.343620e+14	4.577492e+13	1.039661e+04	3.048666e+03	2.561320e+03	0	6.658748e-04
1.130000e+09	9.089200e+12	0.000000e+00	7.105263e-01	1.613471e+14	2.322615e+14	4.557584e+13	1.037843e+04	3.046022e+03	2.559099e+03	0	6.632804e-04
1.140000e+09	8.984007e+12	0.000000e+00	7.105263e-01	1.597152e+14	2.301952e+14	4.537810e+13	1.036044e+04	3.043402e+03	2.556898e+03	0	6.607117e-04
1.150000e+09	8.880650e+12	0.000000e+00	7.105263e-01	1.581114e+14	2.281624e+14	4.518167e+13	1.034263e+04	3.040806e+03	2.554717e+03	0	6.581681e-04
1.160000e+09	8.779084e+12	0.000000e+00	7.105263e-01	1.565352e+14	2.261624e+14	4.498656e+13	1.032500e+04	3.038234e+03	2.552556e+03	0	6.556494e-04
1.170000e+09	8.679266e+12	0.000000e+00	7.105263e-01	1.549858e+14	2.241944e+14	4.479275e+13	1.030755e+04	3.035685e+03	2.550414e+03	0	6.531550e-04
1.180000e+09	8.581155e+12	0.000000e+00	7.105263e-01	1.534626e+14	2.222575e+14	4.460022e+13	1.029026e+04	3.033159e+03	2.548292e+03	0	6.506846e-04
1.190000e+09	8.484709e+12	0.000000e+00	7.105263e-01	1.519650e+14	2.203512e+14	4.440898e+13	1.027315e+04	3.030655e+03	2.546188e+03	0	6.482377e-04
1.200000e+09	8.389890e+12	0.000000e+00	7.105263e-01	1.504924e+14	2.184746e+14	4.421901e+13	1.025620e+04	3.028173e+03	2.544103e+03	0	6.458139e-04
1.210000e+09	8.296660e+12	0.000000e+00	7.105263e-01	1.490441e+14	2.166272e+14	4.403029e+13	1.023942e+04	3.025713e+03	2.542036e+03	0	6.434128e-04
1.220000e+09	8.204980e+12	0.000000e+00	7.105263e-01	1.476197e+14	2.148083e+14	4.384283e+13	1.022280e+04	3.023274e+03	2.539987e+03	0	6.410341e-04
1.230000e+09	8.114816e+12	0.000000e+00	7.105263e-01	1.462185e+14	2.130172e+14	4.365660e+13	1.020633e+04	3.020856e+03	2.537956e+03	0	6.386773e-04
1.240000e+09	8.026132e+12	0.000000e+00	7.105263e-01	1.448401e+14	2.112534e+14	4.347161e+13	1.019002e+04	3.018459e+03	2.535942e+03	0	6.363422e-04
1.250000e+09	7.938895e+12	0.000000e+00	7.105263e-01	1.434839e+14	2.095161e+14	4.328784e+13	1.017387e+04	3.016082e+03	2.533945e+03	0	6.340283e-04
1.260000e+09	7.853072e+12	0.000000e+00	7.105263e-01	1.421495e+14	2.078049e+14	4.310528e+13	1.015786e+04	3.013725e+03	2.531965e+03	0	6.317353e-04
1.270000e+09	7.768630e+12	0.000000e+00	7.105263e-01	1.408362e+14	2.061191e+14	4.292392e+13	1.014201e+04	3.011388e+03	2.530001e+03	0	6.294628e-04
1.280000e+09	7.685540e+12	0.000000e+00	7.105263e-01	1.395438e+14	2.044583e+14	4.274376e+13	1.012630e+04	3.009070e+03	2.528054e+03	0	6.272106e-04
1.290000e+09	7.603770e+12	0.000000e+00	7.105263e-01	1.382716e+14	2.028219e+14	4.256478e+13	1.011073e+04	3.006771e+03	2.526123e+03	0	6.249783e-04
1.300000e+09	7.523292e+12	0.000000e+00	7.105263e-01	1.370193e+14	2.012093e+14	4.238697e+13	1.009531e+04	3.004492e+03	2.524207e+03	0	6.227656e-04
1.310000e+09	7.444077e+12	0.000000e+00	7.105263e-01	1.357864e+14	1.996201e+14	4.221033e+13	1.008002e+04	3.002230e+03	2.522308e+03	0	6.205721e-04
1.320000e+09	7.366098e+12	0.000000e+00	7.105263e-01	1.345725e+14	1.980537e+14	4.203485e+13	1.006487e+04	2.999987e+03	2.520423e+03	0	6.183976e-04
1.330000e+09	7.289327e+12	0.000000e+00	7.105263e-01	1.333772e+14	1.965097e+14	4.186051e+13	1.004986e+04	2.997762e+03	2.518554e+03	0	6.162417e-04
1.340000e+09	7.213739e+12	0.000000e+00	7.105263e-01	1.322001e+14	1.949877e+14	4.168732e+13	1.003498e+04	2.995555e+03	2.516700e+03	0	6.141042e-04
1.350000e+09	7.139309e+12	0.000000e+00	7.105263e-01	1.310408e+14	1.934871e+14	4.151525e+13	1.002023e+04	2.993365e+03	2.514860e+03	0	6.119848e-04
1.360000e+09	7.066011e+12	0.000000e+00	7.105263e-01	1.298989e+14	1.920076e+14	4.134430e+13	1.000561e+04	2.991193e+03	2.513035e+03	0	6.098833e-04
