#t		Qconv[W]	Ri[Rp]		R*[Rp]		Qc[W]		Qm[W]		Qr[W]		Tcmb[K]		Tl[K]		Tup[K]		RiFlag		Bs[T]
0.000000e+00	1.825873e+15	0.000000e+00	7.066666e-01	2.347221e+16	1.632421e+15	1.060702e+14	3.622623e+04	3.748717e+03	2.880915e+03	0	3.840123e-03
1.000000e+07	1.617071e+15	0.000000e+00	7.066666e-01	2.079767e+16	1.072790e+16	1.054825e+14	3.445822e+04	5.202533e+03	3.998183e+03	0	3.687776e-03
2.000000e+07	1.412457e+15	0.000000e+00	7.066666e-01	1.817742e+16	1.639480e+16	1.048992e+14	3.288240e+04	5.729515e+03	4.403172e+03	0	3.525170e-03
3.000000e+07	1.235058e+15	0.000000e+00	7.066666e-01	1.590560e+16	1.688428e+16	1.043202e+14	3.149790e+04	5.821292e+03	4.473703e+03	0	3.370937e-03
4.000000e+07	1.086611e+15	0.000000e+00	7.066666e-01	1.400431e+16	1.563909e+16	1.037456e+14	3.028084e+04	5.778032e+03	4.440457e+03	0	3.230078e-03
5.000000e+07	9.628316e+14	0.000000e+00	7.066666e-01	1.241871e+16	1.410194e+16	1.031753e+14	2.920484e+04	5.699573e+03	4.380161e+03	0	3.102452e-03
6.000000e+07	8.590660e+14	0.000000e+00	7.066666e-01	1.108926e+16	1.266589e+16	1.026092e+14	2.824715e+04	5.615613e+03	4.315637e+03	0	2.986738e-03
7.000000e+07	7.714027e+14	0.000000e+00	7.066666e-01	9.965908e+15	1.140810e+16	1.020473e+14	2.738916e+04	5.534649e+03	4.253415e+03	0	2.881478e-03
8.000000e+07	6.967427e+14	0.000000e+00	7.066666e-01	9.009014e+15	1.032331e+16	1.014896e+14	2.661580e+04	5.458836e+03	4.195153e+03	0	2.785345e-03
9.000000e+07	6.326624e+14	0.000000e+00	7.066666e-01	8.187566e+15	9.388361e+15	1.009360e+14	2.591481e+04	5.388414e+03	4.141033e+03	0	2.697194e-03
1.000000e+08	5.772630e+14	0.000000e+00	7.066666e-01	7.477265e+15	8.579256e+15	1.003866e+14	2.527618e+04	5.323055e+03	4.090805e+03	0	2.616051e-03
1.100000e+08	5.290465e+14	0.000000e+00	7.066666e-01	6.858943e+15	7.875171e+15	9.984124e+13	2.469166e+04	5.262297e+03	4.044111e+03	0	2.541087e-03
1.200000e+08	4.868212e+14	0.000000e+00	7.066666e-01	6.317348e+15	7.258910e+15	9.929992e+13	2.415439e+04	5.205672e+03	4.000595e+03	0	2.471599e-03
1.300000e+08	4.496310e+14	0.000000e+00	7.066666e-01	5.840242e+15	6.716468e+15	9.876261e+13	2.365863e+04	5.152756e+03	3.959928e+03	0	2.406987e-03
1.400000e+08	4.167019e+14	0.000000e+00	7.066666e-01	5.417719e+15	6.236448e+15	9.822927e+13	2.319953e+04	5.103173e+03	3.921823e+03	0	2.346732e-03
1.500000e+08	3.874028e+14	0.000000e+00	7.066666e-01	5.041700e+15	5.809541e+15	9.769987e+13	2.277297e+04	5.056593e+03	3.886026e+03	0	2.290389e-03
1.600000e+08	3.612149e+14	0.000000e+00	7.066666e-01	4.705542e+15	5.428099e+15	9.717439e+13	2.237544e+04	5.012728e+03	3.852316e+03	0	2.237571e-03
1.700000e+08	3.377085e+14	0.000000e+00	7.066666e-01	4.403747e+15	5.085801e+15	9.665278e+13	2.200392e+04	4.971327e+03	3.820499e+03	0	2.187941e-03
1.800000e+08	3.165260e+14	0.000000e+00	7.066666e-01	4.131733e+15	4.777386e+15	9.613502e+13	2.165579e+04	4.932167e+03	3.790405e+03	0	2.141204e-03
1.900000e+08	2.973671e+14	0.000000e+00	7.066666e-01	3.885656e+15	4.498451e+15	9.562107e+13	2.132878e+04	4.895055e+03	3.761884e+03	0	2.097101e-03
2.000000e+08	2.799789e+14	0.000000e+00	7.066666e-01	3.662275e+15	4.245287e+15	9.511091e+13	2.102092e+04	4.859819e+03	3.734804e+03	0	2.055402e-03
2.100000e+08	2.641465e+14	0.000000e+00	7.066666e-01	3.458841e+15	4.014755e+15	9.460449e+13	2.073046e+04	4.826304e+03	3.709048e+03	0	2.015904e-03
2.200000e+08	2.496870e+14	0.000000e+00	7.066666e-01	3.273010e+15	3.804179e+15	9.410180e+13	2.045587e+04	4.794376e+03	3.684511e+03	0	1.978428e-03
2.300000e+08	2.364437e+14	0.000000e+00	7.066666e-01	3.102773e+15	3.611271e+15	9.360279e+13	2.019581e+04	4.763913e+03	3.661100e+03	0	1.942812e-03
2.400000e+08	2.242815e+14	0.000000e+00	7.066666e-01	2.946402e+15	3.434064e+15	9.310745e+13	1.994907e+04	4.734805e+03	3.638730e+03	0	1.908913e-03
2.500000e+08	2.130839e+14	0.000000e+00	7.066666e-01	2.802402e+15	3.270860e+15	9.261573e+13	1.971457e+04	4.706955e+03	3.617327e+03	0	1.876600e-03
2.600000e+08	2.027496e+14	0.000000e+00	7.066666e-01	2.669477e+15	3.120184e+15	9.212761e+13	1.949138e+04	4.680274e+03	3.596823e+03	0	1.845759e-03
2.700000e+08	1.931903e+14	0.000000e+00	7.066666e-01	2.546495e+15	2.980754e+15	9.164306e+13	1.927862e+04	4.654682e+03	3.577155e+03	0	1.816282e-03
2.800000e+08	1.843289e+14	0.000000e+00	7.066666e-01	2.432468e+15	2.851447e+15	9.116204e+13	1.907553e+04	4.630106e+03	3.558269e+03	0	1.788077e-03
2.900000e+08	1.760978e+14	0.000000e+00	7.066666e-01	2.326528e+15	2.731281e+15	9.068454e+13	1.888141e+04	4.606481e+03	3.540113e+03	0	1.761055e-03
3.000000e+08	1.684371e+14	0.000000e+00	7.066666e-01	2.227910e+15	2.619389e+15	9.021052e+13	1.869563e+04	4.583746e+03	3.522641e+03	0	1.735139e-03
3.100000e+08	1.612942e+14	0.000000e+00	7.066666e-01	2.135938e+15	2.515007e+15	8.973995e+13	1.851763e+04	4.561847e+03	3.505811e+03	0	1.710256e-03
3.200000e+08	1.546225e+14	0.000000e+00	7.066666e-01	2.050014e+15	2.417456e+15	8.927281e+13	1.834689e+04	4.540732e+03	3.489583e+03	0	1.686342e-03
3.300000e+08	1.483803e+14	0.000000e+00	7.066666e-01	1.969605e+15	2.326136e+15	8.880906e+13	1.818293e+04	4.520355e+03	3.473924e+03	0	1.663337e-03
3.400000e+08	1.425308e+14	0.000000e+00	7.066666e-01	1.894238e+15	2.240509e+15	8.834868e+13	1.802533e+04	4.500674e+03	3.458799e+03	0	1.641186e-03
3.500000e+08	1.370407e+14	0.000000e+00	7.066666e-01	1.823488e+15	2.160097e+15	8.789164e+13	1.787368e+04	4.481650e+03	3.444179e+03	0	1.619838e-03
3.600000e+08	1.318806e+14	0.000000e+00	7.066666e-01	1.756975e+15	2.084471e+15	8.743791e+13	1.772764e+04	4.463247e+03	3.430036e+03	0	1.599246e-03
3.700000e+08	1.270239e+14	0.000000e+00	7.066666e-01	1.694359e+15	2.013244e+15	8.698747e+13	1.758687e+04	4.445430e+03	3.416343e+03	0	1.579368e-03
3.800000e+08	1.224465e+14	0.000000e+00	7.066666e-01	1.635331e+15	1.946071e+15	8.654029e+13	1.745105e+04	4.428169e+03	3.403079e+03	0	1.560164e-03
3.900000e+08	1.181269e+14	0.000000e+00	7.066666e-01	1.579616e+15	1.882639e+15	8.609634e+13	1.731992e+04	4.411436e+03	3.390219e+03	0	1.541598e-03
4.000000e+08	1.140455e+14	0.000000e+00	7.066666e-01	1.526962e+15	1.822665e+15	8.565560e+13	1.719321e+04	4.395203e+03	3.377744e+03	0	1.523635e-03
4.100000e+08	1.101847e+14	0.000000e+00	7.066666e-01	1.477143e+15	1.765892e+15	8.521804e+13	1.707068e+04	4.379446e+03	3.365634e+03	0	1.506244e-03
4.200000e+08	1.065284e+14	0.000000e+00	7.066666e-01	1.429953e+15	1.712088e+15	8.478363e+13	1.695210e+04	4.364141e+03	3.353873e+03	0	1.489396e-03
4.300000e+08	1.030620e+14	0.000000e+00	7.066666e-01	1.385203e+15	1.661041e+15	8.435235e+13	1.683728e+04	4.349268e+03	3.342442e+03	0	1.473062e-03
4.400000e+08	9.977220e+13	0.000000e+00	7.066666e-01	1.342724e+15	1.612560e+15	8.392417e+13	1.672602e+04	4.334804e+03	3.331327e+03	0	1.457219e-03
4.500000e+08	9.664681e+13	0.000000e+00	7.066666e-01	1.302359e+15	1.566468e+15	8.349907e+13	1.661813e+04	4.320733e+03	3.320513e+03	0	1.441841e-03
4.600000e+08	9.367473e+13	0.000000e+00	7.066666e-01	1.263965e+15	1.522603e+15	8.307702e+13	1.651346e+04	4.307035e+03	3.309986e+03	0	1.426907e-03
4.700000e+08	9.084581e+13	0.000000e+00	7.066666e-01	1.227413e+15	1.480820e+15	8.265799e+13	1.641185e+04	4.293695e+03	3.299734e+03	0	1.412396e-03
4.800000e+08	8.815071e+13	0.000000e+00	7.066666e-01	1.192582e+15	1.440982e+15	8.224197e+13	1.631314e+04	4.280697e+03	3.289745e+03	0	1.398289e-03
4.900000e+08	8.558085e+13	0.000000e+00	7.066666e-01	1.159363e+15	1.402966e+15	8.182893e+13	1.621722e+04	4.268026e+03	3.280007e+03	0	1.384566e-03
5.000000e+08	8.312835e+13	0.000000e+00	7.066666e-01	1.127653e+15	1.366658e+15	8.141884e+13	1.612394e+04	4.255668e+03	3.270510e+03	0	1.371212e-03
5.100000e+08	8.078594e+13	0.000000e+00	7.066666e-01	1.097360e+15	1.331952e+15	8.101168e+13	1.603319e+04	4.243610e+03	3.261243e+03	0	1.358210e-03
5.200000e+08	7.854692e+13	0.000000e+00	7.066666e-01	1.068398e+15	1.298750e+15	8.060743e+13	1.594486e+04	4.231840e+03	3.252198e+03	0	1.345544e-03
5.300000e+08	7.640509e+13	0.000000e+00	7.066666e-01	1.040686e+15	1.266964e+15	8.020606e+13	1.585884e+04	4.220347e+03	3.243366e+03	0	1.333201e-03
5.400000e+08	7.435472e+13	0.000000e+00	7.066666e-01	1.014152e+15	1.236511e+15	7.980755e+13	1.577504e+04	4.209120e+03	3.234737e+03	0	1.321167e-03
5.500000e+08	7.239050e+13	0.000000e+00	7.066666e-01	9.887275e+14	1.207312e+15	7.941188e+13	1.569335e+04	4.198147e+03	3.226305e+03	0	1.309429e-03
5.600000e+08	7.050751e+13	0.000000e+00	7.066666e-01	9.643486e+14	1.179298e+15	7.901901e+13	1.561370e+04	4.187420e+03	3.218061e+03	0	1.297976e-03
5.700000e+08	6.870119e+13	0.000000e+00	7.066666e-01	9.409570e+14	1.152402e+15	7.862894e+13	1.553599e+04	4.176930e+03	3.209999e+03	0	1.286796e-03
5.800000e+08	6.696728e+13	0.000000e+00	7.066666e-01	9.184981e+14	1.126562e+15	7.824163e+13	1.546015e+04	4.166666e+03	3.202112e+03	0	1.275878e-03
5.900000e+08	6.530182e+13	0.000000e+00	7.066666e-01	8.969210e+14	1.101721e+15	7.785707e+13	1.538612e+04	4.156622e+03	3.194392e+03	0	1.265212e-03
6.000000e+08	6.370115e+13	0.000000e+00	7.066666e-01	8.761784e+14	1.077825e+15	7.747524e+13	1.531380e+04	4.146789e+03	3.186836e+03	0	1.254789e-03
6.100000e+08	6.216181e+13	0.000000e+00	7.066666e-01	8.562262e+14	1.054826e+15	7.709610e+13	1.524315e+04	4.137159e+03	3.179435e+03	0	1.244599e-03
6.200000e+08	6.068062e+13	0.000000e+00	7.066666e-01	8.370232e+14	1.032675e+15	7.671964e+13	1.517409e+04	4.127726e+03	3.172186e+03	0	1.234634e-03
6.300000e+08	5.925456e+13	0.000000e+00	7.066666e-01	8.185309e+14	1.011331e+15	7.634584e+13	1.510658e+04	4.118482e+03	3.165082e+03	0	1.224886e-03
6.400000e+08	5.788085e+13	0.000000e+00	7.066666e-01	8.007132e+14	9.907511e+14	7.597468e+13	1.504054e+04	4.109422e+03	3.158119e+03	0	1.215346e-03
6.500000e+08	5.655685e+13	0.000000e+00	7.066666e-01	7.835365e+14	9.708988e+14	7.560613e+13	1.497593e+04	4.100539e+03	3.151292e+03	0	1.206007e-03
6.600000e+08	5.528011e+13	0.000000e+00	7.066666e-01	7.669690e+14	9.517380e+14	7.524017e+13	1.491270e+04	4.091827e+03	3.144597e+03	0	1.196863e-03
6.700000e+08	5.404832e+13	0.000000e+00	7.066666e-01	7.509813e+14	9.332351e+14	7.487679e+13	1.485079e+04	4.083280e+03	3.138029e+03	0	1.187907e-03
6.800000e+08	5.285933e+13	0.000000e+00	7.066666e-01	7.355454e+14	9.153588e+14	7.451596e+13	1.479017e+04	4.074894e+03	3.131584e+03	0	1.179131e-03
6.900000e+08	5.171109e+13	0.000000e+00	7.066666e-01	7.206352e+14	8.980796e+14	7.415766e+13	1.473079e+04	4.066663e+03	3.125258e+03	0	1.170531e-03
7.000000e+08	5.060170e+13	0.000000e+00	7.066666e-01	7.062261e+14	8.813696e+14	7.380187e+13	1.467260e+04	4.058582e+03	3.119048e+03	0	1.162099e-03
7.100000e+08	4.952936e+13	0.000000e+00	7.066666e-01	6.922950e+14	8.652028e+14	7.344858e+13	1.461557e+04	4.050646e+03	3.112949e+03	0	1.153832e-03
7.200000e+08	4.849237e+13	0.000000e+00	7.066666e-01	6.788201e+14	8.495545e+14	7.309775e+13	1.455965e+04	4.042851e+03	3.106959e+03	0	1.145722e-03
7.300000e+08	4.748914e+13	0.000000e+00	7.066666e-01	6.657808e+14	8.344015e+14	7.274938e+13	1.450482e+04	4.035193e+03	3.101074e+03	0	1.137766e-03
7.400000e+08	4.651816e+13	0.000000e+00	7.066666e-01	6.531578e+14	8.197221e+14	7.240343e+13	1.445103e+04	4.027668e+03	3.095291e+03	0	1.129958e-03
7.500000e+08	4.557802e+13	0.000000e+00	7.066666e-01	6.409329e+14	8.054954e+14	7.205990e+13	1.439826e+04	4.020271e+03	3.089606e+03	0	1.122294e-03
7.600000e+08	4.466736e+13	0.000000e+00	7.066666e-01	6.290886e+14	7.917020e+14	7.171876e+13	1.434647e+04	4.013000e+03	3.084018e+03	0	1.114769e-03
7.700000e+08	4.378493e+13	0.000000e+00	7.066666e-01	6.176087e+14	7.783234e+14	7.138000e+13	1.429563e+04	4.005849e+03	3.078523e+03	0	1.107379e-03
7.800000e+08	4.292952e+13	0.000000e+00	7.066666e-01	6.064778e+14	7.653422e+14	7.104359e+13	1.424571e+04	3.998817e+03	3.073118e+03	0	1.100120e-03
7.900000e+08	4.209999e+13	0.000000e+00	7.066666e-01	5.956812e+14	7.527418e+14	7.070951e+13	1.419669e+04	3.991898e+03	3.067801e+03	0	1.092988e-03
8.000000e+08	4.129528e+13	0.000000e+00	7.066666e-01	5.852051e+14	7.405066e+14	7.037776e+13	1.414853e+04	3.985091e+03	3.062570e+03	0	1.085980e-03
8.100000e+08	4.051436e+13	0.000000e+00	7.066666e-01	5.750364e+14	7.286218e+14	7.004830e+13	1.410122e+04	3.978393e+03	3.057422e+03	0	1.079091e-03
8.200000e+08	3.975626e+13	0.000000e+00	7.066666e-01	5.651626e+14	7.170732e+14	6.972112e+13	1.405472e+04	3.971799e+03	3.052355e+03	0	1.072318e-03
8.300000e+08	3.902008e+13	0.000000e+00	7.066666e-01	5.555720e+14	7.058476e+14	6.939621e+13	1.400902e+04	3.965308e+03	3.047366e+03	0	1.065657e-03
8.400000e+08	3.830494e+13	0.000000e+00	7.066666e-01	5.462532e+14	6.949323e+14	6.907353e+13	1.396409e+04	3.958916e+03	3.042454e+03	0	1.059107e-03
8.500000e+08	3.761001e+13	0.000000e+00	7.066666e-01	5.371958e+14	6.843152e+14	6.875309e+13	1.391991e+04	3.952622e+03	3.037617e+03	0	1.052663e-03
8.600000e+08	3.693451e+13	0.000000e+00	7.066666e-01	5.283895e+14	6.739848e+14	6.843485e+13	1.387646e+04	3.946422e+03	3.032852e+03	0	1.046323e-03
8.700000e+08	3.627769e+13	0.000000e+00	7.066666e-01	5.198248e+14	6.639304e+14	6.811881e+13	1.383371e+04	3.940314e+03	3.028158e+03	0	1.040083e-03
8.800000e+08	3.563885e+13	0.000000e+00	7.066666e-01	5.114924e+14	6.541414e+14	6.780494e+13	1.379166e+04	3.934295e+03	3.023533e+03	0	1.033942e-03
8.900000e+08	3.501730e+13	0.000000e+00	7.066666e-01	5.033837e+14	6.446080e+14	6.749322e+13	1.375027e+04	3.928364e+03	3.018975e+03	0	1.027896e-03
9.000000e+08	3.441240e+13	0.000000e+00	7.066666e-01	4.954904e+14	6.353209e+14	6.718365e+13	1.370954e+04	3.922518e+03	3.014482e+03	0	1.021943e-03
9.100000e+08	3.382353e+13	0.000000e+00	7.066666e-01	4.878045e+14	6.262711e+14	6.687619e+13	1.366945e+04	3.916755e+03	3.010053e+03	0	1.016080e-03
9.200000e+08	3.325012e+13	0.000000e+00	7.066666e-01	4.803186e+14	6.174500e+14	6.657084e+13	1.362997e+04	3.911073e+03	3.005686e+03	0	1.010305e-03
9.300000e+08	3.269161e+13	0.000000e+00	7.066666e-01	4.730254e+14	6.088495e+14	6.626758e+13	1.359110e+04	3.905470e+03	3.001380e+03	0	1.004617e-03
9.400000e+08	3.214745e+13	0.000000e+00	7.066666e-01	4.659180e+14	6.004618e+14	6.596640e+13	1.355281e+04	3.899944e+03	2.997134e+03	0	9.990114e-04
9.500000e+08	3.161715e+13	0.000000e+00	7.066666e-01	4.589899e+14	5.922794e+14	6.566727e+13	1.351509e+04	3.894493e+03	2.992945e+03	0	9.934877e-04
9.600000e+08	3.110021e+13	0.000000e+00	7.066666e-01	4.522348e+14	5.842953e+14	6.537018e+13	1.347794e+04	3.889116e+03	2.988812e+03	0	9.880434e-04
9.700000e+08	3.059618e+13	0.000000e+00	7.066666e-01	4.456468e+14	5.765027e+14	6.507511e+13	1.344133e+04	3.883811e+03	2.984735e+03	0	9.826766e-04
9.800000e+08	3.010460e+13	0.000000e+00	7.066666e-01	4.392201e+14	5.688951e+14	6.478205e+13	1.340524e+04	3.878575e+03	2.980712e+03	0	9.773855e-04
9.900000e+08	2.962506e+13	0.000000e+00	7.066666e-01	4.329492e+14	5.614662e+14	6.449098e+13	1.336968e+04	3.873408e+03	2.976741e+03	0	9.721680e-04
1.000000e+09	2.915714e+13	0.000000e+00	7.066666e-01	4.268290e+14	5.542102e+14	6.420189e+13	1.333462e+04	3.868308e+03	2.972821e+03	0	9.670225e-04
1.010000e+09	2.870047e+13	0.000000e+00	7.066666e-01	4.208543e+14	5.471213e+14	6.391476e+13	1.330006e+04	3.863273e+03	2.968952e+03	0	9.619472e-04
1.020000e+09	2.825466e+13	0.000000e+00	7.066666e-01	4.150204e+14	5.401940e+14	6.362957e+13	1.326597e+04	3.858302e+03	2.965132e+03	0	9.569406e-04
1.030000e+09	2.781937e+13	0.000000e+00	7.066666e-01	4.093227e+14	5.334233e+14	6.334631e+13	1.323236e+04	3.853394e+03	2.961360e+03	0	9.520008e-04
1.040000e+09	2.739424e+13	0.000000e+00	7.066666e-01	4.037567e+14	5.268040e+14	6.306497e+13	1.319921e+04	3.848547e+03	2.957635e+03	0	9.471265e-04
1.050000e+09	2.697895e+13	0.000000e+00	7.066666e-01	3.983183e+14	5.203313e+14	6.278553e+13	1.316650e+04	3.843759e+03	2.953955e+03	0	9.423161e-04
1.060000e+09	2.657319e+13	0.000000e+00	7.066666e-01	3.930034e+14	5.140007e+14	6.250797e+13	1.313424e+04	3.839030e+03	2.950321e+03	0	9.375680e-04
1.070000e+09	2.617665e+13	0.000000e+00	7.066666e-01	3.878080e+14	5.078077e+14	6.223228e+13	1.310240e+04	3.834358e+03	2.946731e+03	0	9.328811e-04
1.080000e+09	2.578905e+13	0.000000e+00	7.066666e-01	3.827286e+14	5.017481e+14	6.195845e+13	1.307098e+04	3.829743e+03	2.943184e+03	0	9.282537e-04
1.090000e+09	2.541010e+13	0.000000e+00	7.066666e-01	3.777613e+14	4.958177e+14	6.168646e+13	1.303997e+04	3.825182e+03	2.939678e+03	0	9.236847e-04
1.100000e+09	2.503955e+13	0.000000e+00	7.066666e-01	3.729029e+14	4.900128e+14	6.141629e+13	1.300937e+04	3.820674e+03	2.936215e+03	0	9.191726e-04
1.110000e+09	2.467713e+13	0.000000e+00	7.066666e-01	3.681500e+14	4.843294e+14	6.114794e+13	1.297915e+04	3.816220e+03	2.932791e+03	0	9.147164e-04
1.120000e+09	2.432259e+13	0.000000e+00	7.066666e-01	3.634994e+14	4.787641e+14	6.088138e+13	1.294932e+04	3.811816e+03	2.929407e+03	0	9.103147e-04
1.130000e+09	2.397571e+13	0.000000e+00	7.066666e-01	3.589481e+14	4.733132e+14	6.061661e+13	1.291986e+04	3.807464e+03	2.926062e+03	0	9.059664e-04
1.140000e+09	2.363625e+13	0.000000e+00	7.066666e-01	3.544930e+14	4.679735e+14	6.035361e+13	1.289077e+04	3.803160e+03	2.922755e+03	0	9.016703e-04
1.150000e+09	2.330399e+13	0.000000e+00	7.066666e-01	3.501315e+14	4.627417e+14	6.009236e+13	1.286204e+04	3.798905e+03	2.919485e+03	0	8.974254e-04
1.160000e+09	2.297872e+13	0.000000e+00	7.066666e-01	3.458607e+14	4.576147e+14	5.983286e+13	1.283366e+04	3.794698e+03	2.916252e+03	0	8.932305e-04
1.170000e+09	2.266024e+13	0.000000e+00	7.066666e-01	3.416780e+14	4.525896e+14	5.957508e+13	1.280563e+04	3.790537e+03	2.913054e+03	0	8.890846e-04
1.180000e+09	2.234835e+13	0.000000e+00	7.066666e-01	3.375808e+14	4.476634e+14	5.931902e+13	1.277793e+04	3.786422e+03	2.909891e+03	0	8.849867e-04
1.190000e+09	2.204287e+13	0.000000e+00	7.066666e-01	3.335669e+14	4.428333e+14	5.906467e+13	1.275057e+04	3.782351e+03	2.906763e+03	0	8.809358e-04
1.200000e+09	2.174360e+13	0.000000e+00	7.066666e-01	3.296337e+14	4.380968e+14	5.881200e+13	1.272353e+04	3.778325e+03	2.903668e+03	0	8.769310e-04
1.210000e+09	2.145039e+13	0.000000e+00	7.066666e-01	3.257791e+14	4.334512e+14	5.856100e+13	1.269680e+04	3.774341e+03	2.900607e+03	0	8.729713e-04
1.220000e+09	2.116305e+13	0.000000e+00	7.066666e-01	3.220008e+14	4.288940e+14	5.831167e+13	1.267039e+04	3.770399e+03	2.897578e+03	0	8.690558e-04
1.230000e+09	2.088142e+13	0.000000e+00	7.066666e-01	3.182968e+14	4.244228e+14	5.806399e+13	1.264428e+04	3.766499e+03	2.894581e+03	0	8.651836e-04
1.240000e+09	2.060536e+13	0.000000e+00	7.066666e-01	3.146649e+14	4.200354e+14	5.781795e+13	1.261848e+04	3.762640e+03	2.891615e+03	0	8.613539e-04
1.250000e+09	2.033469e+13	0.000000e+00	7.066666e-01	3.111034e+14	4.157294e+14	5.757353e+13	1.259296e+04	3.758821e+03	2.888680e+03	0	8.575658e-04
1.260000e+09	2.006929e+13	0.000000e+00	7.066666e-01	3.076102e+14	4.115027e+14	5.733072e+13	1.256774e+04	3.755040e+03	2.885774e+03	0	8.538186e-04
1.270000e+09	1.980901e+13	0.000000e+00	7.066666e-01	3.041835e+14	4.073532e+14	5.708951e+13	1.254279e+04	3.751299e+03	2.882899e+03	0	8.501113e-04
1.280000e+09	1.955370e+13	0.000000e+00	7.066666e-01	3.008215e+14	4.032790e+14	5.684989e+13	1.251812e+04	3.747595e+03	2.880052e+03	0	8.464434e-04
1.290000e+09	1.930325e+13	0.000000e+00	7.066666e-01	2.975226e+14	3.992780e+14	5.661185e+13	1.249373e+04	3.743928e+03	2.877234e+03	0	8.428139e-04
1.300000e+09	1.905751e+13	0.000000e+00	7.066666e-01	2.942852e+14	3.953484e+14	5.637536e+13	1.246960e+04	3.740297e+03	2.874444e+03	0	8.392223e-04
1.310000e+09	1.881638e+13	0.000000e+00	7.066666e-01	2.911075e+14	3.914883e+14	5.614043e+13	1.244573e+04	3.736702e+03	2.871681e+03	0	8.356677e-04
1.320000e+09	1.857972e+13	0.000000e+00	7.066666e-01	2.879881e+14	3.876960e+14	5.590703e+13	1.242212e+04	3.733143e+03	2.868946e+03	0	8.321495e-04
1.330000e+09	1.834743e+13	0.000000e+00	7.066666e-01	2.849255e+14	3.839698e+14	5.567516e+13	1.239876e+04	3.729618e+03	2.866237e+03	0	8.286670e-04
1.340000e+09	1.811939e+13	0.000000e+00	7.066666e-01	2.819182e+14	3.803081e+14	5.544481e+13	1.237565e+04	3.726126e+03	2.863554e+03	0	8.252195e-04
1.350000e+09	1.789550e+13	0.000000e+00	7.066666e-01	2.789649e+14	3.767092e+14	5.521596e+13	1.235278e+04	3.722669e+03	2.860896e+03	0	8.218064e-04
1.360000e+09	1.767565e+13	0.000000e+00	7.066666e-01	2.760641e+14	3.731716e+14	5.498860e+13	1.233015e+04	3.719244e+03	2.858264e+03	0	8.184272e-04
