#t		Qconv[W]	Ri[Rp]		R*[Rp]		Qc[W]		Qm[W]		Qr[W]		Tcmb[K]		Tl[K]		Tup[K]		RiFlag		Bs[T]
0.000000e+00	2.305944e+15	0.000000e+00	7.066666e-01	2.734555e+16	1.540667e+15	1.200754e+14	3.924193e+04	3.870878e+03	2.953501e+03	0	4.135325e-03
1.000000e+07	2.065130e+15	0.000000e+00	7.066666e-01	2.450206e+16	1.146810e+16	1.194101e+14	3.745139e+04	5.434654e+03	4.146672e+03	0	3.986048e-03
2.000000e+07	1.821559e+15	0.000000e+00	7.066666e-01	2.162705e+16	1.875284e+16	1.187497e+14	3.583871e+04	6.054774e+03	4.619826e+03	0	3.822738e-03
3.000000e+07	1.605254e+15	0.000000e+00	7.066666e-01	1.907390e+16	1.987489e+16	1.180943e+14	3.440863e+04	6.185382e+03	4.719481e+03	0	3.665006e-03
4.000000e+07	1.421531e+15	0.000000e+00	7.066666e-01	1.690505e+16	1.866842e+16	1.174438e+14	3.314213e+04	6.155295e+03	4.696524e+03	0	3.519483e-03
5.000000e+07	1.266657e+15	0.000000e+00	7.066666e-01	1.507645e+16	1.697551e+16	1.167982e+14	3.201547e+04	6.080490e+03	4.639448e+03	0	3.386724e-03
6.000000e+07	1.135667e+15	0.000000e+00	7.066666e-01	1.352955e+16	1.533869e+16	1.161573e+14	3.100732e+04	5.996690e+03	4.575508e+03	0	3.265706e-03
7.000000e+07	1.024157e+15	0.000000e+00	7.066666e-01	1.221244e+16	1.388170e+16	1.155213e+14	3.009988e+04	5.914521e+03	4.512812e+03	0	3.155118e-03
8.000000e+07	9.285485e+14	0.000000e+00	7.066666e-01	1.108292e+16	1.261241e+16	1.148899e+14	2.927854e+04	5.836929e+03	4.453609e+03	0	3.053713e-03
9.000000e+07	8.459959e+14	0.000000e+00	7.066666e-01	1.010744e+16	1.151026e+16	1.142633e+14	2.853131e+04	5.764468e+03	4.398321e+03	0	2.960394e-03
1.000000e+08	7.742417e+14	0.000000e+00	7.066666e-01	9.259386e+15	1.055066e+16	1.136413e+14	2.784832e+04	5.696951e+03	4.346805e+03	0	2.874213e-03
1.100000e+08	7.114868e+14	0.000000e+00	7.066666e-01	8.517532e+15	9.711233e+15	1.130239e+14	2.722134e+04	5.633983e+03	4.298760e+03	0	2.794360e-03
1.200000e+08	6.562867e+14	0.000000e+00	7.066666e-01	7.864849e+15	8.973119e+15	1.124111e+14	2.664350e+04	5.575135e+03	4.253859e+03	0	2.720140e-03
1.300000e+08	6.074732e+14	0.000000e+00	7.066666e-01	7.287555e+15	8.320725e+15	1.118029e+14	2.610901e+04	5.520007e+03	4.211796e+03	0	2.650956e-03
1.400000e+08	5.640939e+14	0.000000e+00	7.066666e-01	6.774417e+15	7.741240e+15	1.111991e+14	2.561296e+04	5.468236e+03	4.172294e+03	0	2.586290e-03
1.500000e+08	5.253668e+14	0.000000e+00	7.066666e-01	6.316209e+15	7.224111e+15	1.105998e+14	2.515115e+04	5.419502e+03	4.135110e+03	0	2.525695e-03
1.600000e+08	4.906450e+14	0.000000e+00	7.066666e-01	5.905300e+15	6.760613e+15	1.100050e+14	2.471999e+04	5.373523e+03	4.100028e+03	0	2.468781e-03
1.700000e+08	4.593901e+14	0.000000e+00	7.066666e-01	5.535338e+15	6.343486e+15	1.094145e+14	2.431637e+04	5.330052e+03	4.066859e+03	0	2.415205e-03
1.800000e+08	4.311512e+14	0.000000e+00	7.066666e-01	5.201001e+15	5.966658e+15	1.088284e+14	2.393758e+04	5.288870e+03	4.035437e+03	0	2.364667e-03
1.900000e+08	4.055483e+14	0.000000e+00	7.066666e-01	4.897804e+15	5.625020e+15	1.082466e+14	2.358128e+04	5.249783e+03	4.005613e+03	0	2.316902e-03
2.000000e+08	3.822593e+14	0.000000e+00	7.066666e-01	4.621947e+15	5.314250e+15	1.076690e+14	2.324540e+04	5.212620e+03	3.977258e+03	0	2.271674e-03
2.100000e+08	3.610100e+14	0.000000e+00	7.066666e-01	4.370194e+15	5.030669e+15	1.070958e+14	2.292814e+04	5.177228e+03	3.950254e+03	0	2.228776e-03
2.200000e+08	3.415659e+14	0.000000e+00	7.066666e-01	4.139773e+15	4.771137e+15	1.065267e+14	2.262788e+04	5.143471e+03	3.924497e+03	0	2.188021e-03
2.300000e+08	3.237249e+14	0.000000e+00	7.066666e-01	3.928303e+15	4.532952e+15	1.059618e+14	2.234321e+04	5.111226e+03	3.899894e+03	0	2.149243e-03
2.400000e+08	3.073130e+14	0.000000e+00	7.066666e-01	3.733726e+15	4.313788e+15	1.054010e+14	2.207287e+04	5.080384e+03	3.876361e+03	0	2.112291e-03
2.500000e+08	2.921788e+14	0.000000e+00	7.066666e-01	3.554256e+15	4.111626e+15	1.048444e+14	2.181572e+04	5.050845e+03	3.853823e+03	0	2.077031e-03
2.600000e+08	2.781910e+14	0.000000e+00	7.066666e-01	3.388341e+15	3.924710e+15	1.042918e+14	2.157076e+04	5.022519e+03	3.832210e+03	0	2.043342e-03
2.700000e+08	2.652343e+14	0.000000e+00	7.066666e-01	3.234622e+15	3.751509e+15	1.037433e+14	2.133707e+04	4.995326e+03	3.811461e+03	0	2.011114e-03
2.800000e+08	2.532081e+14	0.000000e+00	7.066666e-01	3.091908e+15	3.590678e+15	1.031988e+14	2.111385e+04	4.969190e+03	3.791520e+03	0	1.980247e-03
2.900000e+08	2.420236e+14	0.000000e+00	7.066666e-01	2.959151e+15	3.441036e+15	1.026582e+14	2.090034e+04	4.944046e+03	3.772334e+03	0	1.950650e-03
3.000000e+08	2.316024e+14	0.000000e+00	7.066666e-01	2.835425e+15	3.301542e+15	1.021216e+14	2.069589e+04	4.919830e+03	3.753858e+03	0	1.922241e-03
3.100000e+08	2.218752e+14	0.000000e+00	7.066666e-01	2.719911e+15	3.171272e+15	1.015889e+14	2.049987e+04	4.896487e+03	3.736047e+03	0	1.894944e-03
3.200000e+08	2.127803e+14	0.000000e+00	7.066666e-01	2.611880e+15	3.049406e+15	1.010601e+14	2.031175e+04	4.873966e+03	3.718863e+03	0	1.868690e-03
3.300000e+08	2.042629e+14	0.000000e+00	7.066666e-01	2.510685e+15	2.935217e+15	1.005351e+14	2.013100e+04	4.852218e+03	3.702269e+03	0	1.843416e-03
3.400000e+08	1.962740e+14	0.000000e+00	7.066666e-01	2.415746e+15	2.828053e+15	1.000139e+14	1.995718e+04	4.831200e+03	3.686232e+03	0	1.819063e-03
3.500000e+08	1.887698e+14	0.000000e+00	7.066666e-01	2.326544e+15	2.727331e+15	9.949656e+13	1.978985e+04	4.810871e+03	3.670721e+03	0	1.795578e-03
3.600000e+08	1.817108e+14	0.000000e+00	7.066666e-01	2.242616e+15	2.632529e+15	9.898293e+13	1.962864e+04	4.791194e+03	3.655707e+03	0	1.772911e-03
3.700000e+08	1.750616e+14	0.000000e+00	7.066666e-01	2.163541e+15	2.543177e+15	9.847301e+13	1.947317e+04	4.772134e+03	3.641165e+03	0	1.751017e-03
3.800000e+08	1.687905e+14	0.000000e+00	7.066666e-01	2.088943e+15	2.458850e+15	9.796679e+13	1.932313e+04	4.753659e+03	3.627069e+03	0	1.729854e-03
3.900000e+08	1.628684e+14	0.000000e+00	7.066666e-01	2.018480e+15	2.379166e+15	9.746422e+13	1.917821e+04	4.735741e+03	3.613396e+03	0	1.709382e-03
4.000000e+08	1.572693e+14	0.000000e+00	7.066666e-01	1.951844e+15	2.303778e+15	9.696528e+13	1.903813e+04	4.718349e+03	3.600127e+03	0	1.689564e-03
4.100000e+08	1.519695e+14	0.000000e+00	7.066666e-01	1.888755e+15	2.232372e+15	9.646994e+13	1.890262e+04	4.701460e+03	3.587240e+03	0	1.670368e-03
4.200000e+08	1.469474e+14	0.000000e+00	7.066666e-01	1.828957e+15	2.164663e+15	9.597818e+13	1.877145e+04	4.685049e+03	3.574718e+03	0	1.651762e-03
4.300000e+08	1.421835e+14	0.000000e+00	7.066666e-01	1.772220e+15	2.100389e+15	9.548995e+13	1.864439e+04	4.669092e+03	3.562544e+03	0	1.633716e-03
4.400000e+08	1.376599e+14	0.000000e+00	7.066666e-01	1.718330e+15	2.039314e+15	9.500524e+13	1.852124e+04	4.653570e+03	3.550700e+03	0	1.616203e-03
4.500000e+08	1.333602e+14	0.000000e+00	7.066666e-01	1.667095e+15	1.981220e+15	9.452401e+13	1.840180e+04	4.638463e+03	3.539173e+03	0	1.599198e-03
4.600000e+08	1.292694e+14	0.000000e+00	7.066666e-01	1.618338e+15	1.925909e+15	9.404623e+13	1.828588e+04	4.623752e+03	3.527948e+03	0	1.582676e-03
4.700000e+08	1.253739e+14	0.000000e+00	7.066666e-01	1.571897e+15	1.873199e+15	9.357188e+13	1.817333e+04	4.609419e+03	3.517012e+03	0	1.566616e-03
4.800000e+08	1.216610e+14	0.000000e+00	7.066666e-01	1.527621e+15	1.822924e+15	9.310093e+13	1.806397e+04	4.595448e+03	3.506353e+03	0	1.550995e-03
4.900000e+08	1.181191e+14	0.000000e+00	7.066666e-01	1.485375e+15	1.774928e+15	9.263335e+13	1.795767e+04	4.581825e+03	3.495958e+03	0	1.535796e-03
5.000000e+08	1.147377e+14	0.000000e+00	7.066666e-01	1.445032e+15	1.729071e+15	9.216912e+13	1.785428e+04	4.568534e+03	3.485817e+03	0	1.520998e-03
5.100000e+08	1.115068e+14	0.000000e+00	7.066666e-01	1.406476e+15	1.685222e+15	9.170820e+13	1.775368e+04	4.555561e+03	3.475919e+03	0	1.506586e-03
5.200000e+08	1.084174e+14	0.000000e+00	7.066666e-01	1.369598e+15	1.643260e+15	9.125057e+13	1.765574e+04	4.542895e+03	3.466254e+03	0	1.492541e-03
5.300000e+08	1.054610e+14	0.000000e+00	7.066666e-01	1.334301e+15	1.603074e+15	9.079620e+13	1.756034e+04	4.530523e+03	3.456814e+03	0	1.478850e-03
5.400000e+08	1.026299e+14	0.000000e+00	7.066666e-01	1.300490e+15	1.564561e+15	9.034507e+13	1.746739e+04	4.518433e+03	3.447590e+03	0	1.465496e-03
5.500000e+08	9.991695e+13	0.000000e+00	7.066666e-01	1.268082e+15	1.527625e+15	8.989716e+13	1.737677e+04	4.506615e+03	3.438572e+03	0	1.452468e-03
5.600000e+08	9.731537e+13	0.000000e+00	7.066666e-01	1.236996e+15	1.492177e+15	8.945242e+13	1.728839e+04	4.495058e+03	3.429754e+03	0	1.439750e-03
5.700000e+08	9.481897e+13	0.000000e+00	7.066666e-01	1.207160e+15	1.458134e+15	8.901084e+13	1.720216e+04	4.483753e+03	3.421128e+03	0	1.427333e-03
5.800000e+08	9.242198e+13	0.000000e+00	7.066666e-01	1.178505e+15	1.425420e+15	8.857240e+13	1.711800e+04	4.472690e+03	3.412687e+03	0	1.415202e-03
5.900000e+08	9.011900e+13	0.000000e+00	7.066666e-01	1.150966e+15	1.393964e+15	8.813706e+13	1.703582e+04	4.461860e+03	3.404424e+03	0	1.403349e-03
6.000000e+08	8.790502e+13	0.000000e+00	7.066666e-01	1.124485e+15	1.363698e+15	8.770481e+13	1.695554e+04	4.451255e+03	3.396333e+03	0	1.391761e-03
6.100000e+08	8.577537e+13	0.000000e+00	7.066666e-01	1.099006e+15	1.334561e+15	8.727561e+13	1.687710e+04	4.440868e+03	3.388407e+03	0	1.380430e-03
6.200000e+08	8.372566e+13	0.000000e+00	7.066666e-01	1.074477e+15	1.306493e+15	8.684945e+13	1.680042e+04	4.430690e+03	3.380641e+03	0	1.369345e-03
6.300000e+08	8.175181e+13	0.000000e+00	7.066666e-01	1.050850e+15	1.279442e+15	8.642629e+13	1.672544e+04	4.420715e+03	3.373030e+03	0	1.358499e-03
6.400000e+08	7.984998e+13	0.000000e+00	7.066666e-01	1.028080e+15	1.253356e+15	8.600612e+13	1.665210e+04	4.410935e+03	3.365568e+03	0	1.347881e-03
6.500000e+08	7.801661e+13	0.000000e+00	7.066666e-01	1.006123e+15	1.228187e+15	8.558891e+13	1.658034e+04	4.401345e+03	3.358251e+03	0	1.337486e-03
6.600000e+08	7.624832e+13	0.000000e+00	7.066666e-01	9.849401e+14	1.203890e+15	8.517464e+13	1.651010e+04	4.391937e+03	3.351073e+03	0	1.327303e-03
6.700000e+08	7.454196e+13	0.000000e+00	7.066666e-01	9.644941e+14	1.180424e+15	8.476327e+13	1.644133e+04	4.382707e+03	3.344030e+03	0	1.317327e-03
6.800000e+08	7.289457e+13	0.000000e+00	7.066666e-01	9.447495e+14	1.157750e+15	8.435480e+13	1.637398e+04	4.373648e+03	3.337117e+03	0	1.307551e-03
6.900000e+08	7.130337e+13	0.000000e+00	7.066666e-01	9.256735e+14	1.135829e+15	8.394919e+13	1.630799e+04	4.364754e+03	3.330332e+03	0	1.297966e-03
7.000000e+08	6.976575e+13	0.000000e+00	7.066666e-01	9.072349e+14	1.114628e+15	8.354643e+13	1.624333e+04	4.356021e+03	3.323669e+03	0	1.288568e-03
7.100000e+08	6.827923e+13	0.000000e+00	7.066666e-01	8.894045e+14	1.094114e+15	8.314648e+13	1.617995e+04	4.347444e+03	3.317124e+03	0	1.279351e-03
7.200000e+08	6.684149e+13	0.000000e+00	7.066666e-01	8.721549e+14	1.074255e+15	8.274933e+13	1.611781e+04	4.339018e+03	3.310695e+03	0	1.270307e-03
7.300000e+08	6.545035e+13	0.000000e+00	7.066666e-01	8.554599e+14	1.055023e+15	8.235496e+13	1.605687e+04	4.330739e+03	3.304378e+03	0	1.261433e-03
7.400000e+08	6.410373e+13	0.000000e+00	7.066666e-01	8.392951e+14	1.036390e+15	8.196334e+13	1.599708e+04	4.322601e+03	3.298169e+03	0	1.252721e-03
7.500000e+08	6.279970e+13	0.000000e+00	7.066666e-01	8.236374e+14	1.018329e+15	8.157445e+13	1.593842e+04	4.314602e+03	3.292065e+03	0	1.244169e-03
7.600000e+08	6.153640e+13	0.000000e+00	7.066666e-01	8.084648e+14	1.000817e+15	8.118827e+13	1.588085e+04	4.306736e+03	3.286064e+03	0	1.235769e-03
7.700000e+08	6.031209e+13	0.000000e+00	7.066666e-01	7.937567e+14	9.838303e+14	8.080478e+13	1.582433e+04	4.299000e+03	3.280161e+03	0	1.227519e-03
7.800000e+08	5.912513e+13	0.000000e+00	7.066666e-01	7.794935e+14	9.673466e+14	8.042395e+13	1.576883e+04	4.291391e+03	3.274355e+03	0	1.219413e-03
7.900000e+08	5.797395e+13	0.000000e+00	7.066666e-01	7.656567e+14	9.513453e+14	8.004576e+13	1.571432e+04	4.283905e+03	3.268643e+03	0	1.211447e-03
8.000000e+08	5.685708e+13	0.000000e+00	7.066666e-01	7.522288e+14	9.358065e+14	7.967020e+13	1.566078e+04	4.276537e+03	3.263022e+03	0	1.203617e-03
8.100000e+08	5.577311e+13	0.000000e+00	7.066666e-01	7.391930e+14	9.207118e+14	7.929724e+13	1.560817e+04	4.269286e+03	3.257489e+03	0	1.195919e-03
8.200000e+08	5.472072e+13	0.000000e+00	7.066666e-01	7.265336e+14	9.060432e+14	7.892687e+13	1.555646e+04	4.262148e+03	3.252043e+03	0	1.188349e-03
8.300000e+08	5.369865e+13	0.000000e+00	7.066666e-01	7.142357e+14	8.917839e+14	7.855905e+13	1.550564e+04	4.255120e+03	3.246681e+03	0	1.180904e-03
8.400000e+08	5.270568e+13	0.000000e+00	7.066666e-01	7.022849e+14	8.779180e+14	7.819377e+13	1.545567e+04	4.248199e+03	3.241400e+03	0	1.173580e-03
8.500000e+08	5.174070e+13	0.000000e+00	7.066666e-01	6.906679e+14	8.644303e+14	7.783102e+13	1.540654e+04	4.241382e+03	3.236198e+03	0	1.166373e-03
8.600000e+08	5.080262e+13	0.000000e+00	7.066666e-01	6.793716e+14	8.513062e+14	7.747076e+13	1.535821e+04	4.234667e+03	3.231075e+03	0	1.159281e-03
8.700000e+08	4.989040e+13	0.000000e+00	7.066666e-01	6.683839e+14	8.385321e+14	7.711299e+13	1.531067e+04	4.228050e+03	3.226026e+03	0	1.152300e-03
8.800000e+08	4.900306e+13	0.000000e+00	7.066666e-01	6.576932e+14	8.260948e+14	7.675768e+13	1.526389e+04	4.221530e+03	3.221051e+03	0	1.145428e-03
8.900000e+08	4.813969e+13	0.000000e+00	7.066666e-01	6.472883e+14	8.139819e+14	7.640480e+13	1.521786e+04	4.215104e+03	3.216148e+03	0	1.138661e-03
9.000000e+08	4.729938e+13	0.000000e+00	7.066666e-01	6.371588e+14	8.021815e+14	7.605435e+13	1.517255e+04	4.208769e+03	3.211314e+03	0	1.131997e-03
9.100000e+08	4.648129e+13	0.000000e+00	7.066666e-01	6.272945e+14	7.906823e+14	7.570630e+13	1.512795e+04	4.202524e+03	3.206549e+03	0	1.125433e-03
9.200000e+08	4.568461e+13	0.000000e+00	7.066666e-01	6.176858e+14	7.794734e+14	7.536064e+13	1.508404e+04	4.196366e+03	3.201851e+03	0	1.118966e-03
9.300000e+08	4.490857e+13	0.000000e+00	7.066666e-01	6.083236e+14	7.685446e+14	7.501734e+13	1.504079e+04	4.190293e+03	3.197217e+03	0	1.112593e-03
9.400000e+08	4.415245e+13	0.000000e+00	7.066666e-01	5.991991e+14	7.578860e+14	7.467638e+13	1.499820e+04	4.184302e+03	3.192646e+03	0	1.106314e-03
9.500000e+08	4.341552e+13	0.000000e+00	7.066666e-01	5.903040e+14	7.474881e+14	7.433775e+13	1.495624e+04	4.178393e+03	3.188137e+03	0	1.100124e-03
9.600000e+08	4.269713e+13	0.000000e+00	7.066666e-01	5.816303e+14	7.373421e+14	7.400144e+13	1.491490e+04	4.172563e+03	3.183689e+03	0	1.094023e-03
9.700000e+08	4.199663e+13	0.000000e+00	7.066666e-01	5.731704e+14	7.274393e+14	7.366741e+13	1.487417e+04	4.166810e+03	3.179299e+03	0	1.088007e-03
9.800000e+08	4.131341e+13	0.000000e+00	7.066666e-01	5.649169e+14	7.177715e+14	7.333565e+13	1.483402e+04	4.161133e+03	3.174968e+03	0	1.082074e-03
9.900000e+08	4.064689e+13	0.000000e+00	7.066666e-01	5.568630e+14	7.083308e+14	7.300615e+13	1.479445e+04	4.155529e+03	3.170692e+03	0	1.076224e-03
1.000000e+09	3.999649e+13	0.000000e+00	7.066666e-01	5.490019e+14	6.991098e+14	7.267889e+13	1.475545e+04	4.149998e+03	3.166471e+03	0	1.070452e-03
1.010000e+09	3.936169e+13	0.000000e+00	7.066666e-01	5.413272e+14	6.901011e+14	7.235385e+13	1.471699e+04	4.144537e+03	3.162304e+03	0	1.064759e-03
1.020000e+09	3.874197e+13	0.000000e+00	7.066666e-01	5.338328e+14	6.812980e+14	7.203101e+13	1.467907e+04	4.139144e+03	3.158190e+03	0	1.059141e-03
1.030000e+09	3.813683e+13	0.000000e+00	7.066666e-01	5.265128e+14	6.726937e+14	7.171035e+13	1.464166e+04	4.133820e+03	3.154127e+03	0	1.053598e-03
1.040000e+09	3.754581e+13	0.000000e+00	7.066666e-01	5.193616e+14	6.642819e+14	7.139186e+13	1.460477e+04	4.128561e+03	3.150115e+03	0	1.048127e-03
1.050000e+09	3.696845e+13	0.000000e+00	7.066666e-01	5.123738e+14	6.560565e+14	7.107552e+13	1.456838e+04	4.123366e+03	3.146151e+03	0	1.042727e-03
1.060000e+09	3.640431e+13	0.000000e+00	7.066666e-01	5.055443e+14	6.480118e+14	7.076131e+13	1.453248e+04	4.118235e+03	3.142236e+03	0	1.037395e-03
1.070000e+09	3.585298e+13	0.000000e+00	7.066666e-01	4.988680e+14	6.401420e+14	7.044923e+13	1.449705e+04	4.113165e+03	3.138368e+03	0	1.032132e-03
1.080000e+09	3.531405e+13	0.000000e+00	7.066666e-01	4.923401e+14	6.324418e+14	7.013924e+13	1.446209e+04	4.108156e+03	3.134546e+03	0	1.026934e-03
1.090000e+09	3.478715e+13	0.000000e+00	7.066666e-01	4.859562e+14	6.249060e+14	6.983133e+13	1.442758e+04	4.103206e+03	3.130769e+03	0	1.021801e-03
1.100000e+09	3.427190e+13	0.000000e+00	7.066666e-01	4.797117e+14	6.175297e+14	6.952549e+13	1.439352e+04	4.098314e+03	3.127036e+03	0	1.016731e-03
1.110000e+09	3.376794e+13	0.000000e+00	7.066666e-01	4.736025e+14	6.103081e+14	6.922171e+13	1.435990e+04	4.093478e+03	3.123347e+03	0	1.011723e-03
1.120000e+09	3.327494e+13	0.000000e+00	7.066666e-01	4.676245e+14	6.032365e+14	6.891996e+13	1.432670e+04	4.088699e+03	3.119700e+03	0	1.006775e-03
1.130000e+09	3.279257e+13	0.000000e+00	7.066666e-01	4.617738e+14	5.963106e+14	6.862023e+13	1.429392e+04	4.083973e+03	3.116094e+03	0	1.001887e-03
1.140000e+09	3.232051e+13	0.000000e+00	7.066666e-01	4.560466e+14	5.895260e+14	6.832250e+13	1.426154e+04	4.079301e+03	3.112530e+03	0	9.970558e-04
1.150000e+09	3.185845e+13	0.000000e+00	7.066666e-01	4.504392e+14	5.828788e+14	6.802676e+13	1.422957e+04	4.074682e+03	3.109005e+03	0	9.922817e-04
1.160000e+09	3.140611e+13	0.000000e+00	7.066666e-01	4.449483e+14	5.763649e+14	6.773299e+13	1.419799e+04	4.070113e+03	3.105519e+03	0	9.875630e-04
1.170000e+09	3.096320e+13	0.000000e+00	7.066666e-01	4.395704e+14	5.699806e+14	6.744118e+13	1.416679e+04	4.065595e+03	3.102072e+03	0	9.828985e-04
1.180000e+09	3.052945e+13	0.000000e+00	7.066666e-01	4.343023e+14	5.637222e+14	6.715131e+13	1.413597e+04	4.061127e+03	3.098662e+03	0	9.782873e-04
1.190000e+09	3.010460e+13	0.000000e+00	7.066666e-01	4.291409e+14	5.575862e+14	6.686337e+13	1.410552e+04	4.056706e+03	3.095289e+03	0	9.737281e-04
1.200000e+09	2.968840e+13	0.000000e+00	7.066666e-01	4.240831e+14	5.515691e+14	6.657734e+13	1.407542e+04	4.052333e+03	3.091953e+03	0	9.692200e-04
1.210000e+09	2.928060e+13	0.000000e+00	7.066666e-01	4.191262e+14	5.456678e+14	6.629321e+13	1.404568e+04	4.048007e+03	3.088652e+03	0	9.647618e-04
1.220000e+09	2.888098e+13	0.000000e+00	7.066666e-01	4.142672e+14	5.398789e+14	6.601095e+13	1.401629e+04	4.043726e+03	3.085386e+03	0	9.603526e-04
1.230000e+09	2.848929e+13	0.000000e+00	7.066666e-01	4.095035e+14	5.341996e+14	6.573057e+13	1.398723e+04	4.039490e+03	3.082153e+03	0	9.559914e-04
1.240000e+09	2.810533e+13	0.000000e+00	7.066666e-01	4.048325e+14	5.286268e+14	6.545204e+13	1.395851e+04	4.035298e+03	3.078955e+03	0	9.516772e-04
1.250000e+09	2.772889e+13	0.000000e+00	7.066666e-01	4.002517e+14	5.231577e+14	6.517535e+13	1.393011e+04	4.031149e+03	3.075789e+03	0	9.474092e-04
1.260000e+09	2.735976e+13	0.000000e+00	7.066666e-01	3.957586e+14	5.177895e+14	6.490048e+13	1.390204e+04	4.027043e+03	3.072656e+03	0	9.431864e-04
1.270000e+09	2.699775e+13	0.000000e+00	7.066666e-01	3.913510e+14	5.125196e+14	6.462742e+13	1.387428e+04	4.022978e+03	3.069555e+03	0	9.390079e-04
1.280000e+09	2.664266e+13	0.000000e+00	7.066666e-01	3.870265e+14	5.073454e+14	6.435616e+13	1.384682e+04	4.018954e+03	3.066484e+03	0	9.348730e-04
1.290000e+09	2.629432e+13	0.000000e+00	7.066666e-01	3.827829e+14	5.022645e+14	6.408669e+13	1.381967e+04	4.014970e+03	3.063444e+03	0	9.307807e-04
1.300000e+09	2.595254e+13	0.000000e+00	7.066666e-01	3.786182e+14	4.972745e+14	6.381898e+13	1.379282e+04	4.011025e+03	3.060435e+03	0	9.267303e-04
1.310000e+09	2.561716e+13	0.000000e+00	7.066666e-01	3.745303e+14	4.923730e+14	6.355302e+13	1.376626e+04	4.007120e+03	3.057455e+03	0	9.227210e-04
1.320000e+09	2.528801e+13	0.000000e+00	7.066666e-01	3.705173e+14	4.875578e+14	6.328881e+13	1.373998e+04	4.003252e+03	3.054504e+03	0	9.187520e-04
1.330000e+09	2.496493e+13	0.000000e+00	7.066666e-01	3.665772e+14	4.828268e+14	6.302633e+13	1.371398e+04	3.999422e+03	3.051581e+03	0	9.148225e-04
1.340000e+09	2.464776e+13	0.000000e+00	7.066666e-01	3.627081e+14	4.781777e+14	6.276556e+13	1.368826e+04	3.995628e+03	3.048687e+03	0	9.109319e-04
1.350000e+09	2.433636e+13	0.000000e+00	7.066666e-01	3.589084e+14	4.736087e+14	6.250649e+13	1.366281e+04	3.991871e+03	3.045820e+03	0	9.070794e-04
1.360000e+09	2.403058e+13	0.000000e+00	7.066666e-01	3.551762e+14	4.691178e+14	6.224911e+13	1.363762e+04	3.988149e+03	3.042980e+03	0	9.032643e-04
