#t		Qconv[W]	Ri[Rp]		R*[Rp]		Qc[W]		Qm[W]		Qr[W]		Tcmb[K]		Tl[K]		Tup[K]		RiFlag		Bs[T]
0.000000e+00	3.332259e+14	0.000000e+00	7.162163e-01	3.971398e+15	7.729362e+14	1.182625e+14	2.373281e+04	3.640234e+03	2.981361e+03	0	2.162284e-03
1.000000e+07	3.252095e+14	0.000000e+00	7.162163e-01	3.877653e+15	1.162254e+15	1.176072e+14	2.347347e+04	3.866251e+03	3.166469e+03	0	2.144804e-03
2.000000e+07	3.163357e+14	0.000000e+00	7.162163e-01	3.774076e+15	1.577128e+15	1.169569e+14	2.322016e+04	4.055897e+03	3.321790e+03	0	2.125116e-03
3.000000e+07	3.067597e+14	0.000000e+00	7.162163e-01	3.662457e+15	1.970869e+15	1.163114e+14	2.297351e+04	4.208309e+03	3.446615e+03	0	2.103452e-03
4.000000e+07	2.966989e+14	0.000000e+00	7.162163e-01	3.545299e+15	2.308359e+15	1.156707e+14	2.273404e+04	4.325799e+03	3.542840e+03	0	2.080200e-03
5.000000e+07	2.863850e+14	0.000000e+00	7.162163e-01	3.425273e+15	2.572075e+15	1.150348e+14	2.250212e+04	4.412798e+03	3.614092e+03	0	2.055811e-03
6.000000e+07	2.760277e+14	0.000000e+00	7.162163e-01	3.304792e+15	2.760027e+15	1.144036e+14	2.227795e+04	4.474618e+03	3.664723e+03	0	2.030723e-03
7.000000e+07	2.657957e+14	0.000000e+00	7.162163e-01	3.185798e+15	2.880050e+15	1.137772e+14	2.206155e+04	4.516505e+03	3.699028e+03	0	2.005315e-03
8.000000e+07	2.558127e+14	0.000000e+00	7.162163e-01	3.069713e+15	2.944277e+15	1.131554e+14	2.185285e+04	4.543090e+03	3.720801e+03	0	1.979888e-03
9.000000e+07	2.461617e+14	0.000000e+00	7.162163e-01	2.957492e+15	2.965390e+15	1.125382e+14	2.165166e+04	4.558189e+03	3.733167e+03	0	1.954670e-03
1.000000e+08	2.368933e+14	0.000000e+00	7.162163e-01	2.849716e+15	2.954686e+15	1.119256e+14	2.145773e+04	4.564804e+03	3.738586e+03	0	1.929823e-03
1.100000e+08	2.280336e+14	0.000000e+00	7.162163e-01	2.746683e+15	2.921387e+15	1.113175e+14	2.127079e+04	4.565232e+03	3.738936e+03	0	1.905458e-03
1.200000e+08	2.195912e+14	0.000000e+00	7.162163e-01	2.648492e+15	2.872629e+15	1.107140e+14	2.109053e+04	4.561192e+03	3.735627e+03	0	1.881647e-03
1.300000e+08	2.115633e+14	0.000000e+00	7.162163e-01	2.555106e+15	2.813741e+15	1.101149e+14	2.091664e+04	4.553959e+03	3.729703e+03	0	1.858432e-03
1.400000e+08	2.039390e+14	0.000000e+00	7.162163e-01	2.466401e+15	2.748611e+15	1.095203e+14	2.074881e+04	4.544469e+03	3.721932e+03	0	1.835834e-03
1.500000e+08	1.967032e+14	0.000000e+00	7.162163e-01	2.382199e+15	2.680024e+15	1.089300e+14	2.058675e+04	4.533411e+03	3.712875e+03	0	1.813860e-03
1.600000e+08	1.898376e+14	0.000000e+00	7.162163e-01	2.302289e+15	2.609940e+15	1.083441e+14	2.043016e+04	4.521287e+03	3.702945e+03	0	1.792506e-03
1.700000e+08	1.833231e+14	0.000000e+00	7.162163e-01	2.226449e+15	2.539724e+15	1.077626e+14	2.027877e+04	4.508462e+03	3.692441e+03	0	1.771763e-03
1.800000e+08	1.771399e+14	0.000000e+00	7.162163e-01	2.154451e+15	2.470308e+15	1.071853e+14	2.013231e+04	4.495204e+03	3.681583e+03	0	1.751615e-03
1.900000e+08	1.712687e+14	0.000000e+00	7.162163e-01	2.086070e+15	2.402311e+15	1.066123e+14	1.999055e+04	4.481710e+03	3.670531e+03	0	1.732045e-03
2.000000e+08	1.656907e+14	0.000000e+00	7.162163e-01	2.021088e+15	2.336136e+15	1.060435e+14	1.985324e+04	4.468120e+03	3.659401e+03	0	1.713034e-03
2.100000e+08	1.603879e+14	0.000000e+00	7.162163e-01	1.959298e+15	2.272028e+15	1.054788e+14	1.972016e+04	4.454539e+03	3.648278e+03	0	1.694561e-03
2.200000e+08	1.553434e+14	0.000000e+00	7.162163e-01	1.900503e+15	2.210123e+15	1.049184e+14	1.959112e+04	4.441040e+03	3.637222e+03	0	1.676605e-03
2.300000e+08	1.505412e+14	0.000000e+00	7.162163e-01	1.844519e+15	2.150481e+15	1.043620e+14	1.946591e+04	4.427676e+03	3.626278e+03	0	1.659147e-03
2.400000e+08	1.459663e+14	0.000000e+00	7.162163e-01	1.791172e+15	2.093109e+15	1.038097e+14	1.934435e+04	4.414487e+03	3.615475e+03	0	1.642167e-03
2.500000e+08	1.416048e+14	0.000000e+00	7.162163e-01	1.740301e+15	2.037978e+15	1.032615e+14	1.922628e+04	4.401497e+03	3.604837e+03	0	1.625646e-03
2.600000e+08	1.374437e+14	0.000000e+00	7.162163e-01	1.691754e+15	1.985034e+15	1.027172e+14	1.911154e+04	4.388724e+03	3.594376e+03	0	1.609564e-03
2.700000e+08	1.334708e+14	0.000000e+00	7.162163e-01	1.645392e+15	1.934209e+15	1.021770e+14	1.899996e+04	4.376180e+03	3.584102e+03	0	1.593903e-03
2.800000e+08	1.296749e+14	0.000000e+00	7.162163e-01	1.601085e+15	1.885424e+15	1.016407e+14	1.889142e+04	4.363870e+03	3.574020e+03	0	1.578648e-03
2.900000e+08	1.260455e+14	0.000000e+00	7.162163e-01	1.558710e+15	1.838597e+15	1.011083e+14	1.878578e+04	4.351797e+03	3.564133e+03	0	1.563780e-03
3.000000e+08	1.225729e+14	0.000000e+00	7.162163e-01	1.518155e+15	1.793643e+15	1.005798e+14	1.868291e+04	4.339963e+03	3.554440e+03	0	1.549285e-03
3.100000e+08	1.192480e+14	0.000000e+00	7.162163e-01	1.479315e+15	1.750475e+15	1.000551e+14	1.858269e+04	4.328364e+03	3.544941e+03	0	1.535148e-03
3.200000e+08	1.160624e+14	0.000000e+00	7.162163e-01	1.442093e+15	1.709009e+15	9.953430e+13	1.848502e+04	4.316999e+03	3.535633e+03	0	1.521354e-03
3.300000e+08	1.130082e+14	0.000000e+00	7.162163e-01	1.406398e+15	1.669165e+15	9.901725e+13	1.838978e+04	4.305863e+03	3.526513e+03	0	1.507891e-03
3.400000e+08	1.100782e+14	0.000000e+00	7.162163e-01	1.372145e+15	1.630862e+15	9.850395e+13	1.829689e+04	4.294952e+03	3.517576e+03	0	1.494745e-03
3.500000e+08	1.072655e+14	0.000000e+00	7.162163e-01	1.339255e+15	1.594026e+15	9.799438e+13	1.820624e+04	4.284260e+03	3.508820e+03	0	1.481903e-03
3.600000e+08	1.045639e+14	0.000000e+00	7.162163e-01	1.307655e+15	1.558584e+15	9.748850e+13	1.811774e+04	4.273782e+03	3.500238e+03	0	1.469356e-03
3.700000e+08	1.019673e+14	0.000000e+00	7.162163e-01	1.277276e+15	1.524467e+15	9.698628e+13	1.803132e+04	4.263513e+03	3.491828e+03	0	1.457091e-03
3.800000e+08	9.947019e+13	0.000000e+00	7.162163e-01	1.248054e+15	1.491611e+15	9.648770e+13	1.794689e+04	4.253446e+03	3.483583e+03	0	1.445099e-03
3.900000e+08	9.706750e+13	0.000000e+00	7.162163e-01	1.219929e+15	1.459954e+15	9.599272e+13	1.786438e+04	4.243577e+03	3.475500e+03	0	1.433368e-03
4.000000e+08	9.475434e+13	0.000000e+00	7.162163e-01	1.192845e+15	1.429437e+15	9.550131e+13	1.778372e+04	4.233899e+03	3.467573e+03	0	1.421891e-03
4.100000e+08	9.252618e+13	0.000000e+00	7.162163e-01	1.166749e+15	1.400005e+15	9.501346e+13	1.770483e+04	4.224406e+03	3.459799e+03	0	1.410657e-03
4.200000e+08	9.037878e+13	0.000000e+00	7.162163e-01	1.141593e+15	1.371607e+15	9.452911e+13	1.762766e+04	4.215094e+03	3.452172e+03	0	1.399658e-03
4.300000e+08	8.830816e+13	0.000000e+00	7.162163e-01	1.117329e+15	1.344194e+15	9.404826e+13	1.755214e+04	4.205957e+03	3.444689e+03	0	1.388887e-03
4.400000e+08	8.631058e+13	0.000000e+00	7.162163e-01	1.093916e+15	1.317718e+15	9.357086e+13	1.747821e+04	4.196990e+03	3.437345e+03	0	1.378334e-03
4.500000e+08	8.438254e+13	0.000000e+00	7.162163e-01	1.071311e+15	1.292136e+15	9.309690e+13	1.740583e+04	4.188187e+03	3.430135e+03	0	1.367994e-03
4.600000e+08	8.252074e+13	0.000000e+00	7.162163e-01	1.049478e+15	1.267408e+15	9.262633e+13	1.733493e+04	4.179545e+03	3.423057e+03	0	1.357858e-03
4.700000e+08	8.072207e+13	0.000000e+00	7.162163e-01	1.028379e+15	1.243493e+15	9.215915e+13	1.726546e+04	4.171057e+03	3.416106e+03	0	1.347920e-03
4.800000e+08	7.898363e+13	0.000000e+00	7.162163e-01	1.007981e+15	1.220356e+15	9.169531e+13	1.719738e+04	4.162720e+03	3.409278e+03	0	1.338173e-03
4.900000e+08	7.730265e+13	0.000000e+00	7.162163e-01	9.882522e+14	1.197961e+15	9.123479e+13	1.713065e+04	4.154530e+03	3.402570e+03	0	1.328611e-03
5.000000e+08	7.567654e+13	0.000000e+00	7.162163e-01	9.691624e+14	1.176275e+15	9.077756e+13	1.706521e+04	4.146481e+03	3.395978e+03	0	1.319229e-03
5.100000e+08	7.410286e+13	0.000000e+00	7.162163e-01	9.506831e+14	1.155269e+15	9.032360e+13	1.700103e+04	4.138570e+03	3.389499e+03	0	1.310021e-03
5.200000e+08	7.257930e+13	0.000000e+00	7.162163e-01	9.327876e+14	1.134911e+15	8.987288e+13	1.693806e+04	4.130794e+03	3.383130e+03	0	1.300980e-03
5.300000e+08	7.110368e+13	0.000000e+00	7.162163e-01	9.154505e+14	1.115175e+15	8.942538e+13	1.687627e+04	4.123147e+03	3.376867e+03	0	1.292103e-03
5.400000e+08	6.967393e+13	0.000000e+00	7.162163e-01	8.986479e+14	1.096034e+15	8.898106e+13	1.681563e+04	4.115627e+03	3.370708e+03	0	1.283384e-03
5.500000e+08	6.828811e+13	0.000000e+00	7.162163e-01	8.823573e+14	1.077463e+15	8.853990e+13	1.675609e+04	4.108230e+03	3.364650e+03	0	1.274818e-03
5.600000e+08	6.694437e+13	0.000000e+00	7.162163e-01	8.665570e+14	1.059439e+15	8.810188e+13	1.669762e+04	4.100952e+03	3.358689e+03	0	1.266401e-03
5.700000e+08	6.564096e+13	0.000000e+00	7.162163e-01	8.512268e+14	1.041939e+15	8.766697e+13	1.664020e+04	4.093790e+03	3.352824e+03	0	1.258128e-03
5.800000e+08	6.437623e+13	0.000000e+00	7.162163e-01	8.363475e+14	1.024943e+15	8.723515e+13	1.658378e+04	4.086742e+03	3.347052e+03	0	1.249995e-03
5.900000e+08	6.314860e+13	0.000000e+00	7.162163e-01	8.219009e+14	1.008429e+15	8.680638e+13	1.652835e+04	4.079804e+03	3.341369e+03	0	1.241999e-03
6.000000e+08	6.195658e+13	0.000000e+00	7.162163e-01	8.078695e+14	9.923786e+14	8.638066e+13	1.647387e+04	4.072972e+03	3.335774e+03	0	1.234134e-03
6.100000e+08	6.079875e+13	0.000000e+00	7.162163e-01	7.942370e+14	9.767740e+14	8.595794e+13	1.642031e+04	4.066245e+03	3.330265e+03	0	1.226398e-03
6.200000e+08	5.967378e+13	0.000000e+00	7.162163e-01	7.809877e+14	9.615977e+14	8.553821e+13	1.636765e+04	4.059620e+03	3.324839e+03	0	1.218787e-03
6.300000e+08	5.858038e+13	0.000000e+00	7.162163e-01	7.681068e+14	9.468333e+14	8.512144e+13	1.631587e+04	4.053093e+03	3.319493e+03	0	1.211297e-03
6.400000e+08	5.751734e+13	0.000000e+00	7.162163e-01	7.555801e+14	9.324650e+14	8.470762e+13	1.626493e+04	4.046663e+03	3.314227e+03	0	1.203925e-03
6.500000e+08	5.648350e+13	0.000000e+00	7.162163e-01	7.433943e+14	9.184781e+14	8.429670e+13	1.621482e+04	4.040327e+03	3.309038e+03	0	1.196668e-03
6.600000e+08	5.547777e+13	0.000000e+00	7.162163e-01	7.315365e+14	9.048584e+14	8.388868e+13	1.616552e+04	4.034082e+03	3.303923e+03	0	1.189523e-03
6.700000e+08	5.449908e+13	0.000000e+00	7.162163e-01	7.199945e+14	8.915923e+14	8.348353e+13	1.611699e+04	4.027927e+03	3.298882e+03	0	1.182487e-03
6.800000e+08	5.354646e+13	0.000000e+00	7.162163e-01	7.087568e+14	8.786669e+14	8.308122e+13	1.606923e+04	4.021859e+03	3.293912e+03	0	1.175556e-03
6.900000e+08	5.261893e+13	0.000000e+00	7.162163e-01	6.978122e+14	8.660701e+14	8.268174e+13	1.602221e+04	4.015875e+03	3.289011e+03	0	1.168729e-03
7.000000e+08	5.171560e+13	0.000000e+00	7.162163e-01	6.871502e+14	8.537900e+14	8.228506e+13	1.597592e+04	4.009975e+03	3.284179e+03	0	1.162002e-03
7.100000e+08	5.083560e+13	0.000000e+00	7.162163e-01	6.767607e+14	8.418155e+14	8.189115e+13	1.593033e+04	4.004155e+03	3.279413e+03	0	1.155374e-03
7.200000e+08	4.997810e+13	0.000000e+00	7.162163e-01	6.666341e+14	8.301359e+14	8.150000e+13	1.588542e+04	3.998414e+03	3.274711e+03	0	1.148841e-03
7.300000e+08	4.914231e+13	0.000000e+00	7.162163e-01	6.567611e+14	8.187409e+14	8.111158e+13	1.584118e+04	3.992751e+03	3.270072e+03	0	1.142400e-03
7.400000e+08	4.832747e+13	0.000000e+00	7.162163e-01	6.471330e+14	8.076209e+14	8.072587e+13	1.579759e+04	3.987162e+03	3.265496e+03	0	1.136051e-03
7.500000e+08	4.753286e+13	0.000000e+00	7.162163e-01	6.377415e+14	7.967665e+14	8.034285e+13	1.575464e+04	3.981647e+03	3.260979e+03	0	1.129790e-03
7.600000e+08	4.675780e+13	0.000000e+00	7.162163e-01	6.285784e+14	7.861686e+14	7.996250e+13	1.571231e+04	3.976204e+03	3.256521e+03	0	1.123616e-03
7.700000e+08	4.600161e+13	0.000000e+00	7.162163e-01	6.196360e+14	7.758189e+14	7.958480e+13	1.567059e+04	3.970832e+03	3.252121e+03	0	1.117526e-03
7.800000e+08	4.526368e+13	0.000000e+00	7.162163e-01	6.109070e+14	7.657091e+14	7.920972e+13	1.562946e+04	3.965528e+03	3.247777e+03	0	1.111518e-03
7.900000e+08	4.454338e+13	0.000000e+00	7.162163e-01	6.023844e+14	7.558313e+14	7.883724e+13	1.558890e+04	3.960291e+03	3.243488e+03	0	1.105590e-03
8.000000e+08	4.384015e+13	0.000000e+00	7.162163e-01	5.940614e+14	7.461781e+14	7.846735e+13	1.554890e+04	3.955119e+03	3.239252e+03	0	1.099741e-03
8.100000e+08	4.315342e+13	0.000000e+00	7.162163e-01	5.859315e+14	7.367422e+14	7.810003e+13	1.550946e+04	3.950012e+03	3.235070e+03	0	1.093969e-03
8.200000e+08	4.248267e+13	0.000000e+00	7.162163e-01	5.779885e+14	7.275168e+14	7.773524e+13	1.547055e+04	3.944968e+03	3.230938e+03	0	1.088271e-03
8.300000e+08	4.182737e+13	0.000000e+00	7.162163e-01	5.702264e+14	7.184951e+14	7.737298e+13	1.543217e+04	3.939985e+03	3.226857e+03	0	1.082647e-03
8.400000e+08	4.118705e+13	0.000000e+00	7.162163e-01	5.626396e+14	7.096709e+14	7.701322e+13	1.539431e+04	3.935062e+03	3.222825e+03	0	1.077094e-03
8.500000e+08	4.056123e+13	0.000000e+00	7.162163e-01	5.552225e+14	7.010380e+14	7.665594e+13	1.535694e+04	3.930198e+03	3.218842e+03	0	1.071610e-03
8.600000e+08	3.994945e+13	0.000000e+00	7.162163e-01	5.479699e+14	6.925906e+14	7.630112e+13	1.532006e+04	3.925392e+03	3.214905e+03	0	1.066195e-03
8.700000e+08	3.935129e+13	0.000000e+00	7.162163e-01	5.408767e+14	6.843230e+14	7.594875e+13	1.528367e+04	3.920642e+03	3.211015e+03	0	1.060847e-03
8.800000e+08	3.876632e+13	0.000000e+00	7.162163e-01	5.339380e+14	6.762298e+14	7.559880e+13	1.524774e+04	3.915947e+03	3.207170e+03	0	1.055564e-03
8.900000e+08	3.819415e+13	0.000000e+00	7.162163e-01	5.271493e+14	6.683058e+14	7.525125e+13	1.521227e+04	3.911306e+03	3.203369e+03	0	1.050345e-03
9.000000e+08	3.763438e+13	0.000000e+00	7.162163e-01	5.205059e+14	6.605460e+14	7.490609e+13	1.517725e+04	3.906719e+03	3.199612e+03	0	1.045189e-03
9.100000e+08	3.708666e+13	0.000000e+00	7.162163e-01	5.140036e+14	6.529455e+14	7.456330e+13	1.514267e+04	3.902183e+03	3.195897e+03	0	1.040094e-03
9.200000e+08	3.655061e+13	0.000000e+00	7.162163e-01	5.076383e+14	6.454998e+14	7.422285e+13	1.510852e+04	3.897698e+03	3.192224e+03	0	1.035058e-03
9.300000e+08	3.602591e+13	0.000000e+00	7.162163e-01	5.014058e+14	6.382043e+14	7.388474e+13	1.507480e+04	3.893263e+03	3.188592e+03	0	1.030081e-03
9.400000e+08	3.551221e+13	0.000000e+00	7.162163e-01	4.953023e+14	6.310548e+14	7.354893e+13	1.504148e+04	3.888877e+03	3.185000e+03	0	1.025162e-03
9.500000e+08	3.500920e+13	0.000000e+00	7.162163e-01	4.893242e+14	6.240471e+14	7.321541e+13	1.500857e+04	3.884539e+03	3.181447e+03	0	1.020298e-03
9.600000e+08	3.451657e+13	0.000000e+00	7.162163e-01	4.834679e+14	6.171772e+14	7.288417e+13	1.497605e+04	3.880248e+03	3.177933e+03	0	1.015490e-03
9.700000e+08	3.403403e+13	0.000000e+00	7.162163e-01	4.777298e+14	6.104413e+14	7.255519e+13	1.494392e+04	3.876004e+03	3.174456e+03	0	1.010736e-03
9.800000e+08	3.356129e+13	0.000000e+00	7.162163e-01	4.721067e+14	6.038357e+14	7.222844e+13	1.491218e+04	3.871804e+03	3.171017e+03	0	1.006034e-03
9.900000e+08	3.309808e+13	0.000000e+00	7.162163e-01	4.665955e+14	5.973567e+14	7.190392e+13	1.488080e+04	3.867649e+03	3.167614e+03	0	1.001384e-03
1.000000e+09	3.264413e+13	0.000000e+00	7.162163e-01	4.611929e+14	5.910010e+14	7.158160e+13	1.484979e+04	3.863537e+03	3.164246e+03	0	9.967851e-04
1.010000e+09	3.219918e+13	0.000000e+00	7.162163e-01	4.558960e+14	5.847651e+14	7.126146e+13	1.481913e+04	3.859468e+03	3.160914e+03	0	9.922356e-04
1.020000e+09	3.176300e+13	0.000000e+00	7.162163e-01	4.507019e+14	5.786460e+14	7.094349e+13	1.478883e+04	3.855441e+03	3.157616e+03	0	9.877348e-04
1.030000e+09	3.133534e+13	0.000000e+00	7.162163e-01	4.456079e+14	5.726404e+14	7.062768e+13	1.475887e+04	3.851456e+03	3.154351e+03	0	9.832818e-04
1.040000e+09	3.091597e+13	0.000000e+00	7.162163e-01	4.406113e+14	5.667454e+14	7.031400e+13	1.472925e+04	3.847510e+03	3.151120e+03	0	9.788756e-04
1.050000e+09	3.050467e+13	0.000000e+00	7.162163e-01	4.357094e+14	5.609581e+14	7.000243e+13	1.469996e+04	3.843605e+03	3.147922e+03	0	9.745153e-04
1.060000e+09	3.010123e+13	0.000000e+00	7.162163e-01	4.308998e+14	5.552757e+14	6.969297e+13	1.467099e+04	3.839738e+03	3.144755e+03	0	9.702000e-04
1.070000e+09	2.970544e+13	0.000000e+00	7.162163e-01	4.261801e+14	5.496954e+14	6.938559e+13	1.464234e+04	3.835910e+03	3.141619e+03	0	9.659289e-04
1.080000e+09	2.931709e+13	0.000000e+00	7.162163e-01	4.215479e+14	5.442147e+14	6.908029e+13	1.461401e+04	3.832119e+03	3.138515e+03	0	9.617012e-04
1.090000e+09	2.893600e+13	0.000000e+00	7.162163e-01	4.170009e+14	5.388310e+14	6.877703e+13	1.458598e+04	3.828365e+03	3.135441e+03	0	9.575160e-04
1.100000e+09	2.856198e+13	0.000000e+00	7.162163e-01	4.125371e+14	5.335420e+14	6.847581e+13	1.455825e+04	3.824648e+03	3.132396e+03	0	9.533725e-04
1.110000e+09	2.819484e+13	0.000000e+00	7.162163e-01	4.081541e+14	5.283451e+14	6.817661e+13	1.453082e+04	3.820966e+03	3.129381e+03	0	9.492700e-04
1.120000e+09	2.783442e+13	0.000000e+00	7.162163e-01	4.038501e+14	5.232382e+14	6.787941e+13	1.450368e+04	3.817320e+03	3.126394e+03	0	9.452077e-04
1.130000e+09	2.748054e+13	0.000000e+00	7.162163e-01	3.996230e+14	5.182189e+14	6.758421e+13	1.447683e+04	3.813708e+03	3.123436e+03	0	9.411848e-04
1.140000e+09	2.713303e+13	0.000000e+00	7.162163e-01	3.954710e+14	5.132852e+14	6.729097e+13	1.445025e+04	3.810130e+03	3.120505e+03	0	9.372008e-04
1.150000e+09	2.679175e+13	0.000000e+00	7.162163e-01	3.913920e+14	5.084350e+14	6.699970e+13	1.442395e+04	3.806585e+03	3.117602e+03	0	9.332548e-04
1.160000e+09	2.645653e+13	0.000000e+00	7.162163e-01	3.873845e+14	5.036663e+14	6.671037e+13	1.439792e+04	3.803073e+03	3.114726e+03	0	9.293461e-04
1.170000e+09	2.612723e+13	0.000000e+00	7.162163e-01	3.834465e+14	4.989770e+14	6.642296e+13	1.437216e+04	3.799593e+03	3.111876e+03	0	9.254742e-04
1.180000e+09	2.580370e+13	0.000000e+00	7.162163e-01	3.795765e+14	4.943654e+14	6.613747e+13	1.434665e+04	3.796145e+03	3.109052e+03	0	9.216383e-04
1.190000e+09	2.548580e+13	0.000000e+00	7.162163e-01	3.757728e+14	4.898296e+14	6.585388e+13	1.432141e+04	3.792728e+03	3.106253e+03	0	9.178378e-04
1.200000e+09	2.517340e+13	0.000000e+00	7.162163e-01	3.720338e+14	4.853677e+14	6.557216e+13	1.429641e+04	3.789342e+03	3.103480e+03	0	9.140722e-04
1.210000e+09	2.486637e+13	0.000000e+00	7.162163e-01	3.683580e+14	4.809782e+14	6.529232e+13	1.427167e+04	3.785986e+03	3.100732e+03	0	9.103407e-04
1.220000e+09	2.456457e+13	0.000000e+00	7.162163e-01	3.647438e+14	4.766592e+14	6.501433e+13	1.424716e+04	3.782659e+03	3.098007e+03	0	9.066428e-04
1.230000e+09	2.426789e+13	0.000000e+00	7.162163e-01	3.611899e+14	4.724093e+14	6.473818e+13	1.422290e+04	3.779362e+03	3.095307e+03	0	9.029780e-04
1.240000e+09	2.397620e+13	0.000000e+00	7.162163e-01	3.576948e+14	4.682267e+14	6.446385e+13	1.419887e+04	3.776094e+03	3.092630e+03	0	8.993457e-04
1.250000e+09	2.368939e+13	0.000000e+00	7.162163e-01	3.542572e+14	4.641100e+14	6.419134e+13	1.417508e+04	3.772854e+03	3.089977e+03	0	8.957452e-04
1.260000e+09	2.340735e+13	0.000000e+00	7.162163e-01	3.508758e+14	4.600578e+14	6.392062e+13	1.415151e+04	3.769642e+03	3.087346e+03	0	8.921761e-04
1.270000e+09	2.312996e+13	0.000000e+00	7.162163e-01	3.475492e+14	4.560685e+14	6.365169e+13	1.412816e+04	3.766457e+03	3.084738e+03	0	8.886379e-04
1.280000e+09	2.285713e+13	0.000000e+00	7.162163e-01	3.442763e+14	4.521407e+14	6.338452e+13	1.410504e+04	3.763300e+03	3.082152e+03	0	8.851300e-04
1.290000e+09	2.258874e+13	0.000000e+00	7.162163e-01	3.410558e+14	4.482732e+14	6.311911e+13	1.408214e+04	3.760169e+03	3.079587e+03	0	8.816520e-04
1.300000e+09	2.232470e+13	0.000000e+00	7.162163e-01	3.378865e+14	4.444645e+14	6.285545e+13	1.405944e+04	3.757064e+03	3.077045e+03	0	8.782032e-04
1.310000e+09	2.206490e+13	0.000000e+00	7.162163e-01	3.347674e+14	4.407135e+14	6.259351e+13	1.403696e+04	3.753985e+03	3.074523e+03	0	8.747834e-04
1.320000e+09	2.180926e+13	0.000000e+00	7.162163e-01	3.316972e+14	4.370187e+14	6.233328e+13	1.401469e+04	3.750932e+03	3.072022e+03	0	8.713919e-04
1.330000e+09	2.155769e+13	0.000000e+00	7.162163e-01	3.286750e+14	4.333792e+14	6.207476e+13	1.399261e+04	3.747903e+03	3.069542e+03	0	8.680284e-04
1.340000e+09	2.131009e+13	0.000000e+00	7.162163e-01	3.256997e+14	4.297936e+14	6.181793e+13	1.397074e+04	3.744899e+03	3.067082e+03	0	8.646923e-04
1.350000e+09	2.106637e+13	0.000000e+00	7.162163e-01	3.227702e+14	4.262608e+14	6.156277e+13	1.394907e+04	3.741920e+03	3.064641e+03	0	8.613833e-04
1.360000e+09	2.082646e+13	0.000000e+00	7.162163e-01	3.198856e+14	4.227798e+14	6.130928e+13	1.392759e+04	3.738964e+03	3.062221e+03	0	8.581008e-04
