#t		Qconv[W]	Ri[Rp]		R*[Rp]		Qc[W]		Qm[W]		Qr[W]		Tcmb[K]		Tl[K]		Tup[K]		RiFlag		Bs[T]
0.000000e+00	5.762795e+13	0.000000e+00	7.699115e-01	1.237970e+15	3.973720e+13	3.446890e+13	1.071447e+04	3.049685e+03	2.183916e+03	0	1.174319e-03
1.000000e+07	5.476249e+13	0.000000e+00	7.699115e-01	1.176679e+15	7.330733e+13	3.427792e+13	1.050821e+04	3.367940e+03	2.411822e+03	0	1.154524e-03
2.000000e+07	5.172407e+13	0.000000e+00	7.699115e-01	1.111708e+15	1.193230e+14	3.408836e+13	1.031196e+04	3.659715e+03	2.620766e+03	0	1.132764e-03
3.000000e+07	4.861986e+13	0.000000e+00	7.699115e-01	1.045342e+15	1.759205e+14	3.390022e+13	1.012634e+04	3.920996e+03	2.807872e+03	0	1.109634e-03
4.000000e+07	4.555076e+13	0.000000e+00	7.699115e-01	9.797333e+14	2.394024e+14	3.371349e+13	9.951615e+03	4.149100e+03	2.971220e+03	0	1.085776e-03
5.000000e+07	4.260085e+13	0.000000e+00	7.699115e-01	9.166763e+14	3.051206e+14	3.352815e+13	9.787690e+03	4.343020e+03	3.110089e+03	0	1.061813e-03
6.000000e+07	3.983073e+13	0.000000e+00	7.699115e-01	8.574626e+14	3.685092e+14	3.334419e+13	9.634160e+03	4.503443e+03	3.224969e+03	0	1.038280e-03
7.000000e+07	3.727591e+13	0.000000e+00	7.699115e-01	8.028495e+14	4.258990e+14	3.316160e+13	9.490411e+03	4.632480e+03	3.317375e+03	0	1.015589e-03
8.000000e+07	3.494980e+13	0.000000e+00	7.699115e-01	7.531221e+14	4.749184e+14	3.298037e+13	9.355694e+03	4.733239e+03	3.389529e+03	0	9.940083e-04
9.000000e+07	3.284908e+13	0.000000e+00	7.699115e-01	7.082094e+14	5.144997e+14	3.280049e+13	9.229212e+03	4.809347e+03	3.444031e+03	0	9.736799e-04
1.000000e+08	3.095968e+13	0.000000e+00	7.699115e-01	6.678102e+14	5.446290e+14	3.262194e+13	9.110176e+03	4.864549e+03	3.483562e+03	0	9.546421e-04
1.100000e+08	2.926182e+13	0.000000e+00	7.699115e-01	6.315021e+14	5.660036e+14	3.244471e+13	8.997844e+03	4.902417e+03	3.510680e+03	0	9.368618e-04
1.200000e+08	2.773377e+13	0.000000e+00	7.699115e-01	5.988213e+14	5.797106e+14	3.226880e+13	8.891542e+03	4.926174e+03	3.527692e+03	0	9.202619e-04
1.300000e+08	2.635425e+13	0.000000e+00	7.699115e-01	5.693130e+14	5.869804e+14	3.209420e+13	8.790674e+03	4.938613e+03	3.536600e+03	0	9.047432e-04
1.400000e+08	2.510368e+13	0.000000e+00	7.699115e-01	5.425592e+14	5.890231e+14	3.192088e+13	8.694714e+03	4.942089e+03	3.539089e+03	0	8.901999e-04
1.500000e+08	2.396476e+13	0.000000e+00	7.699115e-01	5.181907e+14	5.869389e+14	3.174885e+13	8.603208e+03	4.938542e+03	3.536549e+03	0	8.765286e-04
1.600000e+08	2.292260e+13	0.000000e+00	7.699115e-01	4.958895e+14	5.816774e+14	3.157809e+13	8.515762e+03	4.929550e+03	3.530110e+03	0	8.636340e-04
1.700000e+08	2.196454e+13	0.000000e+00	7.699115e-01	4.753853e+14	5.740304e+14	3.140858e+13	8.432033e+03	4.916378e+03	3.520677e+03	0	8.514304e-04
1.800000e+08	2.107994e+13	0.000000e+00	7.699115e-01	4.564507e+14	5.646408e+14	3.124033e+13	8.351725e+03	4.900034e+03	3.508973e+03	0	8.398432e-04
1.900000e+08	2.025983e+13	0.000000e+00	7.699115e-01	4.388944e+14	5.540205e+14	3.107332e+13	8.274577e+03	4.881315e+03	3.495568e+03	0	8.288076e-04
2.000000e+08	1.949671e+13	0.000000e+00	7.699115e-01	4.225561e+14	5.425715e+14	3.090753e+13	8.200361e+03	4.860849e+03	3.480912e+03	0	8.182680e-04
2.100000e+08	1.878424e+13	0.000000e+00	7.699115e-01	4.073004e+14	5.306057e+14	3.074296e+13	8.128876e+03	4.839131e+03	3.465360e+03	0	8.081767e-04
2.200000e+08	1.811707e+13	0.000000e+00	7.699115e-01	3.930129e+14	5.183613e+14	3.057961e+13	8.059942e+03	4.816547e+03	3.449187e+03	0	7.984929e-04
2.300000e+08	1.749063e+13	0.000000e+00	7.699115e-01	3.795964e+14	5.060196e+14	3.041745e+13	7.993398e+03	4.793399e+03	3.432610e+03	0	7.891815e-04
2.400000e+08	1.690102e+13	0.000000e+00	7.699115e-01	3.669673e+14	4.937163e+14	3.025648e+13	7.929101e+03	4.769922e+03	3.415798e+03	0	7.802122e-04
2.500000e+08	1.634489e+13	0.000000e+00	7.699115e-01	3.550539e+14	4.815513e+14	3.009669e+13	7.866918e+03	4.746298e+03	3.398881e+03	0	7.715589e-04
2.600000e+08	1.581930e+13	0.000000e+00	7.699115e-01	3.437939e+14	4.695977e+14	2.993807e+13	7.806732e+03	4.722670e+03	3.381960e+03	0	7.631986e-04
2.700000e+08	1.532172e+13	0.000000e+00	7.699115e-01	3.331326e+14	4.579071e+14	2.978061e+13	7.748434e+03	4.699145e+03	3.365114e+03	0	7.551113e-04
2.800000e+08	1.484990e+13	0.000000e+00	7.699115e-01	3.230222e+14	4.465151e+14	2.962430e+13	7.691925e+03	4.675809e+03	3.348403e+03	0	7.472792e-04
2.900000e+08	1.440185e+13	0.000000e+00	7.699115e-01	3.134204e+14	4.354445e+14	2.946912e+13	7.637113e+03	4.652723e+03	3.331871e+03	0	7.396868e-04
3.000000e+08	1.397581e+13	0.000000e+00	7.699115e-01	3.042895e+14	4.247096e+14	2.931509e+13	7.583913e+03	4.629936e+03	3.315552e+03	0	7.323198e-04
3.100000e+08	1.357021e+13	0.000000e+00	7.699115e-01	2.955956e+14	4.143166e+14	2.916217e+13	7.532247e+03	4.607481e+03	3.299472e+03	0	7.251658e-04
3.200000e+08	1.318362e+13	0.000000e+00	7.699115e-01	2.873085e+14	4.042669e+14	2.901036e+13	7.482042e+03	4.585385e+03	3.283649e+03	0	7.182132e-04
3.300000e+08	1.281477e+13	0.000000e+00	7.699115e-01	2.794009e+14	3.945582e+14	2.885966e+13	7.433231e+03	4.563663e+03	3.268094e+03	0	7.114516e-04
3.400000e+08	1.246249e+13	0.000000e+00	7.699115e-01	2.718479e+14	3.851847e+14	2.871006e+13	7.385749e+03	4.542329e+03	3.252816e+03	0	7.048717e-04
3.500000e+08	1.212573e+13	0.000000e+00	7.699115e-01	2.646269e+14	3.761390e+14	2.856154e+13	7.339539e+03	4.521387e+03	3.237819e+03	0	6.984646e-04
3.600000e+08	1.180353e+13	0.000000e+00	7.699115e-01	2.577174e+14	3.674123e+14	2.841409e+13	7.294545e+03	4.500841e+03	3.223106e+03	0	6.922225e-04
3.700000e+08	1.149499e+13	0.000000e+00	7.699115e-01	2.511005e+14	3.589944e+14	2.826771e+13	7.250715e+03	4.480690e+03	3.208676e+03	0	6.861378e-04
3.800000e+08	1.119932e+13	0.000000e+00	7.699115e-01	2.447588e+14	3.508750e+14	2.812240e+13	7.207999e+03	4.460931e+03	3.194526e+03	0	6.802037e-04
3.900000e+08	1.091576e+13	0.000000e+00	7.699115e-01	2.386764e+14	3.430431e+14	2.797813e+13	7.166353e+03	4.441561e+03	3.180655e+03	0	6.744138e-04
4.000000e+08	1.064363e+13	0.000000e+00	7.699115e-01	2.328385e+14	3.354879e+14	2.783491e+13	7.125732e+03	4.422574e+03	3.167058e+03	0	6.687621e-04
4.100000e+08	1.038228e+13	0.000000e+00	7.699115e-01	2.272315e+14	3.281983e+14	2.769271e+13	7.086095e+03	4.403962e+03	3.153730e+03	0	6.632431e-04
4.200000e+08	1.013114e+13	0.000000e+00	7.699115e-01	2.218429e+14	3.211637e+14	2.755155e+13	7.047405e+03	4.385720e+03	3.140666e+03	0	6.578514e-04
4.300000e+08	9.889638e+12	0.000000e+00	7.699115e-01	2.166608e+14	3.143735e+14	2.741140e+13	7.009624e+03	4.367838e+03	3.127861e+03	0	6.525822e-04
4.400000e+08	9.657280e+12	0.000000e+00	7.699115e-01	2.116744e+14	3.078175e+14	2.727225e+13	6.972719e+03	4.350309e+03	3.115308e+03	0	6.474308e-04
4.500000e+08	9.433587e+12	0.000000e+00	7.699115e-01	2.068735e+14	3.014857e+14	2.713411e+13	6.936655e+03	4.333123e+03	3.103002e+03	0	6.423929e-04
4.600000e+08	9.218115e+12	0.000000e+00	7.699115e-01	2.022486e+14	2.953686e+14	2.699696e+13	6.901403e+03	4.316274e+03	3.090935e+03	0	6.374642e-04
4.700000e+08	9.010451e+12	0.000000e+00	7.699115e-01	1.977910e+14	2.894570e+14	2.686079e+13	6.866932e+03	4.299751e+03	3.079103e+03	0	6.326409e-04
4.800000e+08	8.810208e+12	0.000000e+00	7.699115e-01	1.934922e+14	2.837423e+14	2.672560e+13	6.833215e+03	4.283547e+03	3.067499e+03	0	6.279193e-04
4.900000e+08	8.617022e+12	0.000000e+00	7.699115e-01	1.893445e+14	2.782158e+14	2.659138e+13	6.800224e+03	4.267652e+03	3.056117e+03	0	6.232958e-04
5.000000e+08	8.430555e+12	0.000000e+00	7.699115e-01	1.853407e+14	2.728696e+14	2.645812e+13	6.767936e+03	4.252059e+03	3.044950e+03	0	6.187670e-04
5.100000e+08	8.250486e+12	0.000000e+00	7.699115e-01	1.814740e+14	2.676960e+14	2.632580e+13	6.736324e+03	4.236759e+03	3.033994e+03	0	6.143299e-04
5.200000e+08	8.076517e+12	0.000000e+00	7.699115e-01	1.777379e+14	2.626877e+14	2.619444e+13	6.705367e+03	4.221744e+03	3.023242e+03	0	6.099812e-04
5.300000e+08	7.908366e+12	0.000000e+00	7.699115e-01	1.741264e+14	2.578376e+14	2.606401e+13	6.675043e+03	4.207007e+03	3.012688e+03	0	6.057183e-04
5.400000e+08	7.745767e+12	0.000000e+00	7.699115e-01	1.706339e+14	2.531392e+14	2.593450e+13	6.645330e+03	4.192539e+03	3.002327e+03	0	6.015382e-04
5.500000e+08	7.588470e+12	0.000000e+00	7.699115e-01	1.672549e+14	2.485862e+14	2.580593e+13	6.616208e+03	4.178333e+03	2.992155e+03	0	5.974385e-04
5.600000e+08	7.436240e+12	0.000000e+00	7.699115e-01	1.639845e+14	2.441725e+14	2.567826e+13	6.587659e+03	4.164383e+03	2.982164e+03	0	5.934164e-04
5.700000e+08	7.288853e+12	0.000000e+00	7.699115e-01	1.608178e+14	2.398924e+14	2.555150e+13	6.559665e+03	4.150680e+03	2.972351e+03	0	5.894697e-04
5.800000e+08	7.146101e+12	0.000000e+00	7.699115e-01	1.577505e+14	2.357405e+14	2.542564e+13	6.532206e+03	4.137218e+03	2.962711e+03	0	5.855961e-04
5.900000e+08	7.007784e+12	0.000000e+00	7.699115e-01	1.547782e+14	2.317115e+14	2.530067e+13	6.505268e+03	4.123990e+03	2.953239e+03	0	5.817933e-04
6.000000e+08	6.873716e+12	0.000000e+00	7.699115e-01	1.518968e+14	2.278005e+14	2.517659e+13	6.478834e+03	4.110991e+03	2.943930e+03	0	5.780592e-04
6.100000e+08	6.743717e+12	0.000000e+00	7.699115e-01	1.491027e+14	2.240029e+14	2.505338e+13	6.452889e+03	4.098213e+03	2.934779e+03	0	5.743918e-04
6.200000e+08	6.617619e+12	0.000000e+00	7.699115e-01	1.463923e+14	2.203141e+14	2.493105e+13	6.427417e+03	4.085651e+03	2.925784e+03	0	5.707891e-04
6.300000e+08	6.495264e+12	0.000000e+00	7.699115e-01	1.437620e+14	2.167300e+14	2.480958e+13	6.402405e+03	4.073299e+03	2.916938e+03	0	5.672494e-04
6.400000e+08	6.376499e+12	0.000000e+00	7.699115e-01	1.412086e+14	2.132463e+14	2.468896e+13	6.377840e+03	4.061152e+03	2.908239e+03	0	5.637707e-04
6.500000e+08	6.261181e+12	0.000000e+00	7.699115e-01	1.387292e+14	2.098594e+14	2.456920e+13	6.353708e+03	4.049203e+03	2.899683e+03	0	5.603515e-04
6.600000e+08	6.149174e+12	0.000000e+00	7.699115e-01	1.363207e+14	2.065655e+14	2.445028e+13	6.329997e+03	4.037448e+03	2.891265e+03	0	5.569900e-04
6.700000e+08	6.040348e+12	0.000000e+00	7.699115e-01	1.339804e+14	2.033610e+14	2.433219e+13	6.306695e+03	4.025882e+03	2.882982e+03	0	5.536846e-04
6.800000e+08	5.934580e+12	0.000000e+00	7.699115e-01	1.317056e+14	2.002426e+14	2.421493e+13	6.283791e+03	4.014499e+03	2.874831e+03	0	5.504338e-04
6.900000e+08	5.831752e+12	0.000000e+00	7.699115e-01	1.294939e+14	1.972073e+14	2.409850e+13	6.261272e+03	4.003296e+03	2.866808e+03	0	5.472362e-04
7.000000e+08	5.731754e+12	0.000000e+00	7.699115e-01	1.273428e+14	1.942518e+14	2.398288e+13	6.239130e+03	3.992266e+03	2.858910e+03	0	5.440903e-04
7.100000e+08	5.634479e+12	0.000000e+00	7.699115e-01	1.252501e+14	1.913733e+14	2.386807e+13	6.217353e+03	3.981407e+03	2.851133e+03	0	5.409947e-04
7.200000e+08	5.539825e+12	0.000000e+00	7.699115e-01	1.232137e+14	1.885691e+14	2.375407e+13	6.195932e+03	3.970714e+03	2.843476e+03	0	5.379482e-04
7.300000e+08	5.447697e+12	0.000000e+00	7.699115e-01	1.212313e+14	1.858364e+14	2.364086e+13	6.174857e+03	3.960182e+03	2.835934e+03	0	5.349495e-04
7.400000e+08	5.358002e+12	0.000000e+00	7.699115e-01	1.193012e+14	1.831727e+14	2.352844e+13	6.154119e+03	3.949807e+03	2.828504e+03	0	5.319973e-04
7.500000e+08	5.270653e+12	0.000000e+00	7.699115e-01	1.174214e+14	1.805757e+14	2.341681e+13	6.133709e+03	3.939587e+03	2.821185e+03	0	5.290904e-04
7.600000e+08	5.185566e+12	0.000000e+00	7.699115e-01	1.155900e+14	1.780430e+14	2.330595e+13	6.113618e+03	3.929516e+03	2.813973e+03	0	5.262279e-04
7.700000e+08	5.102661e+12	0.000000e+00	7.699115e-01	1.138055e+14	1.755724e+14	2.319586e+13	6.093840e+03	3.919591e+03	2.806866e+03	0	5.234084e-04
7.800000e+08	5.021861e+12	0.000000e+00	7.699115e-01	1.120661e+14	1.731617e+14	2.308654e+13	6.074364e+03	3.909809e+03	2.799861e+03	0	5.206310e-04
7.900000e+08	4.943094e+12	0.000000e+00	7.699115e-01	1.103704e+14	1.708090e+14	2.297798e+13	6.055185e+03	3.900167e+03	2.792956e+03	0	5.178946e-04
8.000000e+08	4.866290e+12	0.000000e+00	7.699115e-01	1.087167e+14	1.685123e+14	2.287017e+13	6.036294e+03	3.890660e+03	2.786148e+03	0	5.151983e-04
8.100000e+08	4.791381e+12	0.000000e+00	7.699115e-01	1.071037e+14	1.662697e+14	2.276311e+13	6.017685e+03	3.881287e+03	2.779436e+03	0	5.125411e-04
8.200000e+08	4.718304e+12	0.000000e+00	7.699115e-01	1.055300e+14	1.640795e+14	2.265679e+13	5.999350e+03	3.872043e+03	2.772816e+03	0	5.099220e-04
8.300000e+08	4.646998e+12	0.000000e+00	7.699115e-01	1.039942e+14	1.619399e+14	2.255120e+13	5.981284e+03	3.862926e+03	2.766288e+03	0	5.073402e-04
8.400000e+08	4.577403e+12	0.000000e+00	7.699115e-01	1.024952e+14	1.598494e+14	2.244635e+13	5.963478e+03	3.853933e+03	2.759847e+03	0	5.047947e-04
8.500000e+08	4.509464e+12	0.000000e+00	7.699115e-01	1.010318e+14	1.578062e+14	2.234221e+13	5.945928e+03	3.845061e+03	2.753494e+03	0	5.022849e-04
8.600000e+08	4.443127e+12	0.000000e+00	7.699115e-01	9.960265e+13	1.558091e+14	2.223880e+13	5.928627e+03	3.836307e+03	2.747225e+03	0	4.998097e-04
8.700000e+08	4.378341e+12	0.000000e+00	7.699115e-01	9.820681e+13	1.538564e+14	2.213610e+13	5.911570e+03	3.827669e+03	2.741040e+03	0	4.973685e-04
8.800000e+08	4.315054e+12	0.000000e+00	7.699115e-01	9.684318e+13	1.519468e+14	2.203410e+13	5.894750e+03	3.819144e+03	2.734935e+03	0	4.949605e-04
8.900000e+08	4.253221e+12	0.000000e+00	7.699115e-01	9.551072e+13	1.500790e+14	2.193280e+13	5.878162e+03	3.810730e+03	2.728909e+03	0	4.925849e-04
9.000000e+08	4.192795e+12	0.000000e+00	7.699115e-01	9.420847e+13	1.482516e+14	2.183220e+13	5.861802e+03	3.802424e+03	2.722961e+03	0	4.902410e-04
9.100000e+08	4.133733e+12	0.000000e+00	7.699115e-01	9.293549e+13	1.464635e+14	2.173229e+13	5.845664e+03	3.794224e+03	2.717089e+03	0	4.879282e-04
9.200000e+08	4.075991e+12	0.000000e+00	7.699115e-01	9.169086e+13	1.447135e+14	2.163306e+13	5.829742e+03	3.786127e+03	2.711291e+03	0	4.856457e-04
9.300000e+08	4.019531e+12	0.000000e+00	7.699115e-01	9.047373e+13	1.430003e+14	2.153452e+13	5.814033e+03	3.778132e+03	2.705565e+03	0	4.833929e-04
9.400000e+08	3.964313e+12	0.000000e+00	7.699115e-01	8.928326e+13	1.413231e+14	2.143664e+13	5.798531e+03	3.770236e+03	2.699911e+03	0	4.811691e-04
9.500000e+08	3.910299e+12	0.000000e+00	7.699115e-01	8.811865e+13	1.396806e+14	2.133944e+13	5.783232e+03	3.762437e+03	2.694326e+03	0	4.789738e-04
9.600000e+08	3.857453e+12	0.000000e+00	7.699115e-01	8.697912e+13	1.380718e+14	2.124289e+13	5.768131e+03	3.754734e+03	2.688810e+03	0	4.768063e-04
9.700000e+08	3.805742e+12	0.000000e+00	7.699115e-01	8.586394e+13	1.364958e+14	2.114701e+13	5.753225e+03	3.747123e+03	2.683360e+03	0	4.746661e-04
9.800000e+08	3.755130e+12	0.000000e+00	7.699115e-01	8.477238e+13	1.349517e+14	2.105177e+13	5.738509e+03	3.739604e+03	2.677976e+03	0	4.725526e-04
9.900000e+08	3.705588e+12	0.000000e+00	7.699115e-01	8.370377e+13	1.334385e+14	2.095719e+13	5.723979e+03	3.732175e+03	2.672655e+03	0	4.704652e-04
1.000000e+09	3.657082e+12	0.000000e+00	7.699115e-01	8.265743e+13	1.319554e+14	2.086324e+13	5.709632e+03	3.724833e+03	2.667397e+03	0	4.684034e-04
1.010000e+09	3.609584e+12	0.000000e+00	7.699115e-01	8.163273e+13	1.305014e+14	2.076993e+13	5.695463e+03	3.717577e+03	2.662201e+03	0	4.663667e-04
1.020000e+09	3.563066e+12	0.000000e+00	7.699115e-01	8.062905e+13	1.290759e+14	2.067726e+13	5.681469e+03	3.710405e+03	2.657065e+03	0	4.643546e-04
1.030000e+09	3.517498e+12	0.000000e+00	7.699115e-01	7.964581e+13	1.276780e+14	2.058521e+13	5.667646e+03	3.703315e+03	2.651988e+03	0	4.623665e-04
1.040000e+09	3.472855e+12	0.000000e+00	7.699115e-01	7.868242e+13	1.263069e+14	2.049378e+13	5.653990e+03	3.696307e+03	2.646970e+03	0	4.604021e-04
1.050000e+09	3.429110e+12	0.000000e+00	7.699115e-01	7.773834e+13	1.249620e+14	2.040298e+13	5.640500e+03	3.689378e+03	2.642007e+03	0	4.584609e-04
1.060000e+09	3.386240e+12	0.000000e+00	7.699115e-01	7.681302e+13	1.236426e+14	2.031278e+13	5.627170e+03	3.682526e+03	2.637101e+03	0	4.565423e-04
1.070000e+09	3.344220e+12	0.000000e+00	7.699115e-01	7.590597e+13	1.223478e+14	2.022319e+13	5.613998e+03	3.675751e+03	2.632249e+03	0	4.546460e-04
1.080000e+09	3.303026e+12	0.000000e+00	7.699115e-01	7.501668e+13	1.210772e+14	2.013421e+13	5.600981e+03	3.669051e+03	2.627451e+03	0	4.527715e-04
1.090000e+09	3.262637e+12	0.000000e+00	7.699115e-01	7.414468e+13	1.198299e+14	2.004582e+13	5.588116e+03	3.662424e+03	2.622706e+03	0	4.509185e-04
1.100000e+09	3.223030e+12	0.000000e+00	7.699115e-01	7.328949e+13	1.186056e+14	1.995803e+13	5.575400e+03	3.655869e+03	2.618012e+03	0	4.490864e-04
1.110000e+09	3.184186e+12	0.000000e+00	7.699115e-01	7.245068e+13	1.174035e+14	1.987082e+13	5.562830e+03	3.649385e+03	2.613368e+03	0	4.472750e-04
1.120000e+09	3.146084e+12	0.000000e+00	7.699115e-01	7.162781e+13	1.162230e+14	1.978420e+13	5.550403e+03	3.642970e+03	2.608775e+03	0	4.454837e-04
1.130000e+09	3.108704e+12	0.000000e+00	7.699115e-01	7.082046e+13	1.150637e+14	1.969816e+13	5.538117e+03	3.636623e+03	2.604230e+03	0	4.437124e-04
1.140000e+09	3.072027e+12	0.000000e+00	7.699115e-01	7.002824e+13	1.139250e+14	1.961269e+13	5.525968e+03	3.630344e+03	2.599733e+03	0	4.419605e-04
1.150000e+09	3.036036e+12	0.000000e+00	7.699115e-01	6.925074e+13	1.128063e+14	1.952780e+13	5.513955e+03	3.624130e+03	2.595283e+03	0	4.402278e-04
1.160000e+09	3.000713e+12	0.000000e+00	7.699115e-01	6.848760e+13	1.117072e+14	1.944347e+13	5.502074e+03	3.617980e+03	2.590879e+03	0	4.385138e-04
1.170000e+09	2.966040e+12	0.000000e+00	7.699115e-01	6.773844e+13	1.106272e+14	1.935970e+13	5.490324e+03	3.611894e+03	2.586521e+03	0	4.368183e-04
1.180000e+09	2.932002e+12	0.000000e+00	7.699115e-01	6.700291e+13	1.095657e+14	1.927649e+13	5.478702e+03	3.605870e+03	2.582207e+03	0	4.351409e-04
1.190000e+09	2.898582e+12	0.000000e+00	7.699115e-01	6.628068e+13	1.085224e+14	1.919383e+13	5.467206e+03	3.599907e+03	2.577937e+03	0	4.334812e-04
1.200000e+09	2.865765e+12	0.000000e+00	7.699115e-01	6.557140e+13	1.074969e+14	1.911173e+13	5.455833e+03	3.594005e+03	2.573710e+03	0	4.318391e-04
1.210000e+09	2.833535e+12	0.000000e+00	7.699115e-01	6.487476e+13	1.064886e+14	1.903016e+13	5.444581e+03	3.588161e+03	2.569525e+03	0	4.302141e-04
1.220000e+09	2.801879e+12	0.000000e+00	7.699115e-01	6.419045e+13	1.054972e+14	1.894914e+13	5.433448e+03	3.582375e+03	2.565382e+03	0	4.286060e-04
1.230000e+09	2.770782e+12	0.000000e+00	7.699115e-01	6.351817e+13	1.045222e+14	1.886865e+13	5.422433e+03	3.576647e+03	2.561280e+03	0	4.270145e-04
1.240000e+09	2.740231e+12	0.000000e+00	7.699115e-01	6.285761e+13	1.035634e+14	1.878870e+13	5.411532e+03	3.570974e+03	2.557217e+03	0	4.254392e-04
1.250000e+09	2.710213e+12	0.000000e+00	7.699115e-01	6.220851e+13	1.026202e+14	1.870927e+13	5.400744e+03	3.565357e+03	2.553195e+03	0	4.238800e-04
1.260000e+09	2.680714e+12	0.000000e+00	7.699115e-01	6.157059e+13	1.016923e+14	1.863037e+13	5.390067e+03	3.559793e+03	2.549211e+03	0	4.223365e-04
1.270000e+09	2.651723e+12	0.000000e+00	7.699115e-01	6.094358e+13	1.007795e+14	1.855198e+13	5.379499e+03	3.554283e+03	2.545265e+03	0	4.208085e-04
1.280000e+09	2.623227e+12	0.000000e+00	7.699115e-01	6.032722e+13	9.988123e+13	1.847411e+13	5.369038e+03	3.548825e+03	2.541356e+03	0	4.192957e-04
1.290000e+09	2.595214e+12	0.000000e+00	7.699115e-01	5.972126e+13	9.899728e+13	1.839676e+13	5.358682e+03	3.543419e+03	2.537485e+03	0	4.177978e-04
1.300000e+09	2.567674e+12	0.000000e+00	7.699115e-01	5.912546e+13	9.812731e+13	1.831991e+13	5.348431e+03	3.538064e+03	2.533650e+03	0	4.163147e-04
1.310000e+09	2.540596e+12	0.000000e+00	7.699115e-01	5.853959e+13	9.727101e+13	1.824356e+13	5.338281e+03	3.532758e+03	2.529850e+03	0	4.148460e-04
1.320000e+09	2.513968e+12	0.000000e+00	7.699115e-01	5.796342e+13	9.642805e+13	1.816772e+13	5.328231e+03	3.527502e+03	2.526086e+03	0	4.133916e-04
1.330000e+09	2.487780e+12	0.000000e+00	7.699115e-01	5.739671e+13	9.559817e+13	1.809237e+13	5.318280e+03	3.522293e+03	2.522356e+03	0	4.119512e-04
1.340000e+09	2.462023e+12	0.000000e+00	7.699115e-01	5.683927e+13	9.478103e+13	1.801751e+13	5.308426e+03	3.517133e+03	2.518661e+03	0	4.105246e-04
1.350000e+09	2.436686e+12	0.000000e+00	7.699115e-01	5.629088e+13	9.397638e+13	1.794315e+13	5.298667e+03	3.512019e+03	2.514999e+03	0	4.091115e-04
1.360000e+09	2.411761e+12	0.000000e+00	7.699115e-01	5.575133e+13	9.318395e+13	1.786926e+13	5.289002e+03	3.506951e+03	2.511369e+03	0	4.077117e-04
