#t		Qconv[W]	Ri[Rp]		R*[Rp]		Qc[W]		Qm[W]		Qr[W]		Tcmb[K]		Tl[K]		Tup[K]		RiFlag		Bs[T]
0.000000e+00	2.970880e+12	0.000000e+00	7.678572e-01	6.031513e+13	4.777613e+13	5.110027e+13	5.906072e+03	2.758868e+03	2.324937e+03	0	4.292375e-04
1.000000e+07	2.960361e+12	0.000000e+00	7.678572e-01	6.012709e+13	4.895495e+13	5.081714e+13	5.899298e+03	2.769223e+03	2.333663e+03	0	4.287303e-04
2.000000e+07	2.949500e+12	0.000000e+00	7.678572e-01	5.993337e+13	5.012395e+13	5.053613e+13	5.892546e+03	2.779306e+03	2.342161e+03	0	4.282054e-04
3.000000e+07	2.938313e+12	0.000000e+00	7.678572e-01	5.973424e+13	5.128184e+13	5.025721e+13	5.885816e+03	2.789121e+03	2.350431e+03	0	4.276633e-04
4.000000e+07	2.926816e+12	0.000000e+00	7.678572e-01	5.952996e+13	5.242735e+13	4.998038e+13	5.879108e+03	2.798667e+03	2.358476e+03	0	4.271048e-04
5.000000e+07	2.915023e+12	0.000000e+00	7.678572e-01	5.932079e+13	5.355927e+13	4.970561e+13	5.872422e+03	2.807946e+03	2.366296e+03	0	4.265304e-04
6.000000e+07	2.902951e+12	0.000000e+00	7.678572e-01	5.910699e+13	5.467648e+13	4.943289e+13	5.865761e+03	2.816961e+03	2.373893e+03	0	4.259407e-04
7.000000e+07	2.890614e+12	0.000000e+00	7.678572e-01	5.888880e+13	5.577786e+13	4.916220e+13	5.859123e+03	2.825714e+03	2.381269e+03	0	4.253365e-04
8.000000e+07	2.878027e+12	0.000000e+00	7.678572e-01	5.866648e+13	5.686240e+13	4.889352e+13	5.852509e+03	2.834206e+03	2.388426e+03	0	4.247182e-04
9.000000e+07	2.865204e+12	0.000000e+00	7.678572e-01	5.844028e+13	5.792912e+13	4.862684e+13	5.845921e+03	2.842441e+03	2.395365e+03	0	4.240865e-04
1.000000e+08	2.852161e+12	0.000000e+00	7.678572e-01	5.821042e+13	5.897710e+13	4.836215e+13	5.839358e+03	2.850421e+03	2.402090e+03	0	4.234420e-04
1.100000e+08	2.838911e+12	0.000000e+00	7.678572e-01	5.797716e+13	6.000551e+13	4.809941e+13	5.832821e+03	2.858148e+03	2.408602e+03	0	4.227853e-04
1.200000e+08	2.825467e+12	0.000000e+00	7.678572e-01	5.774070e+13	6.101355e+13	4.783863e+13	5.826309e+03	2.865627e+03	2.414904e+03	0	4.221168e-04
1.300000e+08	2.811843e+12	0.000000e+00	7.678572e-01	5.750128e+13	6.200050e+13	4.757977e+13	5.819825e+03	2.872859e+03	2.420999e+03	0	4.214373e-04
1.400000e+08	2.798051e+12	0.000000e+00	7.678572e-01	5.725911e+13	6.296571e+13	4.732283e+13	5.813367e+03	2.879849e+03	2.426890e+03	0	4.207471e-04
1.500000e+08	2.784105e+12	0.000000e+00	7.678572e-01	5.701441e+13	6.390859e+13	4.706779e+13	5.806936e+03	2.886600e+03	2.432579e+03	0	4.200469e-04
1.600000e+08	2.770017e+12	0.000000e+00	7.678572e-01	5.676737e+13	6.482862e+13	4.681463e+13	5.800533e+03	2.893116e+03	2.438070e+03	0	4.193372e-04
1.700000e+08	2.755798e+12	0.000000e+00	7.678572e-01	5.651821e+13	6.572530e+13	4.656334e+13	5.794158e+03	2.899400e+03	2.443365e+03	0	4.186185e-04
1.800000e+08	2.741459e+12	0.000000e+00	7.678572e-01	5.626709e+13	6.659826e+13	4.631391e+13	5.787810e+03	2.905456e+03	2.448469e+03	0	4.178912e-04
1.900000e+08	2.727013e+12	0.000000e+00	7.678572e-01	5.601423e+13	6.744712e+13	4.606631e+13	5.781491e+03	2.911288e+03	2.453383e+03	0	4.171558e-04
2.000000e+08	2.712469e+12	0.000000e+00	7.678572e-01	5.575978e+13	6.827160e+13	4.582053e+13	5.775200e+03	2.916900e+03	2.458113e+03	0	4.164129e-04
2.100000e+08	2.697838e+12	0.000000e+00	7.678572e-01	5.550393e+13	6.907148e+13	4.557656e+13	5.768937e+03	2.922297e+03	2.462660e+03	0	4.156629e-04
2.200000e+08	2.683129e+12	0.000000e+00	7.678572e-01	5.524683e+13	6.984658e+13	4.533439e+13	5.762703e+03	2.927481e+03	2.467030e+03	0	4.149061e-04
2.300000e+08	2.668353e+12	0.000000e+00	7.678572e-01	5.498866e+13	7.059676e+13	4.509398e+13	5.756498e+03	2.932458e+03	2.471224e+03	0	4.141430e-04
2.400000e+08	2.653517e+12	0.000000e+00	7.678572e-01	5.472956e+13	7.132194e+13	4.485535e+13	5.750322e+03	2.937232e+03	2.475247e+03	0	4.133741e-04
2.500000e+08	2.638632e+12	0.000000e+00	7.678572e-01	5.446967e+13	7.202212e+13	4.461846e+13	5.744175e+03	2.941806e+03	2.479102e+03	0	4.125997e-04
2.600000e+08	2.623706e+12	0.000000e+00	7.678572e-01	5.420914e+13	7.269727e+13	4.438330e+13	5.738057e+03	2.946186e+03	2.482792e+03	0	4.118202e-04
2.700000e+08	2.608745e+12	0.000000e+00	7.678572e-01	5.394810e+13	7.334749e+13	4.414986e+13	5.731969e+03	2.950375e+03	2.486323e+03	0	4.110360e-04
2.800000e+08	2.593759e+12	0.000000e+00	7.678572e-01	5.368668e+13	7.397286e+13	4.391813e+13	5.725909e+03	2.954378e+03	2.489696e+03	0	4.102474e-04
2.900000e+08	2.578754e+12	0.000000e+00	7.678572e-01	5.342500e+13	7.457351e+13	4.368809e+13	5.719879e+03	2.958199e+03	2.492916e+03	0	4.094548e-04
3.000000e+08	2.563738e+12	0.000000e+00	7.678572e-01	5.316318e+13	7.514965e+13	4.345973e+13	5.713878e+03	2.961843e+03	2.495987e+03	0	4.086584e-04
3.100000e+08	2.548716e+12	0.000000e+00	7.678572e-01	5.290133e+13	7.570146e+13	4.323303e+13	5.707907e+03	2.965313e+03	2.498911e+03	0	4.078587e-04
3.200000e+08	2.533695e+12	0.000000e+00	7.678572e-01	5.263954e+13	7.622919e+13	4.300797e+13	5.701965e+03	2.968614e+03	2.501693e+03	0	4.070559e-04
3.300000e+08	2.518682e+12	0.000000e+00	7.678572e-01	5.237793e+13	7.673308e+13	4.278456e+13	5.696052e+03	2.971750e+03	2.504336e+03	0	4.062503e-04
3.400000e+08	2.503681e+12	0.000000e+00	7.678572e-01	5.211659e+13	7.721346e+13	4.256277e+13	5.690169e+03	2.974725e+03	2.506843e+03	0	4.054422e-04
3.500000e+08	2.488699e+12	0.000000e+00	7.678572e-01	5.185560e+13	7.767065e+13	4.234259e+13	5.684315e+03	2.977544e+03	2.509218e+03	0	4.046318e-04
3.600000e+08	2.473739e+12	0.000000e+00	7.678572e-01	5.159506e+13	7.810496e+13	4.212400e+13	5.678490e+03	2.980211e+03	2.511465e+03	0	4.038195e-04
3.700000e+08	2.458808e+12	0.000000e+00	7.678572e-01	5.133503e+13	7.851678e+13	4.190699e+13	5.672694e+03	2.982729e+03	2.513587e+03	0	4.030054e-04
3.800000e+08	2.443909e+12	0.000000e+00	7.678572e-01	5.107560e+13	7.890647e+13	4.169156e+13	5.666928e+03	2.985102e+03	2.515588e+03	0	4.021897e-04
3.900000e+08	2.429047e+12	0.000000e+00	7.678572e-01	5.081684e+13	7.927443e+13	4.147769e+13	5.661191e+03	2.987336e+03	2.517470e+03	0	4.013728e-04
4.000000e+08	2.414226e+12	0.000000e+00	7.678572e-01	5.055881e+13	7.962108e+13	4.126535e+13	5.655482e+03	2.989432e+03	2.519237e+03	0	4.005548e-04
4.100000e+08	2.399450e+12	0.000000e+00	7.678572e-01	5.030158e+13	7.994683e+13	4.105455e+13	5.649803e+03	2.991397e+03	2.520892e+03	0	3.997359e-04
4.200000e+08	2.384721e+12	0.000000e+00	7.678572e-01	5.004521e+13	8.025212e+13	4.084527e+13	5.644152e+03	2.993232e+03	2.522439e+03	0	3.989163e-04
4.300000e+08	2.370044e+12	0.000000e+00	7.678572e-01	4.978975e+13	8.053736e+13	4.063750e+13	5.638531e+03	2.994942e+03	2.523880e+03	0	3.980962e-04
4.400000e+08	2.355421e+12	0.000000e+00	7.678572e-01	4.953525e+13	8.080303e+13	4.043122e+13	5.632937e+03	2.996531e+03	2.525219e+03	0	3.972758e-04
4.500000e+08	2.340856e+12	0.000000e+00	7.678572e-01	4.928176e+13	8.104958e+13	4.022642e+13	5.627373e+03	2.998002e+03	2.526459e+03	0	3.964553e-04
4.600000e+08	2.326352e+12	0.000000e+00	7.678572e-01	4.902933e+13	8.127745e+13	4.002310e+13	5.621837e+03	2.999359e+03	2.527602e+03	0	3.956347e-04
4.700000e+08	2.311909e+12	0.000000e+00	7.678572e-01	4.877800e+13	8.148713e+13	3.982123e+13	5.616329e+03	3.000604e+03	2.528652e+03	0	3.948143e-04
4.800000e+08	2.297532e+12	0.000000e+00	7.678572e-01	4.852781e+13	8.167905e+13	3.962081e+13	5.610849e+03	3.001742e+03	2.529611e+03	0	3.939942e-04
4.900000e+08	2.283222e+12	0.000000e+00	7.678572e-01	4.827879e+13	8.185370e+13	3.942182e+13	5.605397e+03	3.002776e+03	2.530482e+03	0	3.931745e-04
5.000000e+08	2.268982e+12	0.000000e+00	7.678572e-01	4.803098e+13	8.201152e+13	3.922426e+13	5.599974e+03	3.003709e+03	2.531268e+03	0	3.923554e-04
5.100000e+08	2.254812e+12	0.000000e+00	7.678572e-01	4.778441e+13	8.215300e+13	3.902811e+13	5.594578e+03	3.004545e+03	2.531972e+03	0	3.915369e-04
5.200000e+08	2.240716e+12	0.000000e+00	7.678572e-01	4.753911e+13	8.227858e+13	3.883335e+13	5.589210e+03	3.005285e+03	2.532596e+03	0	3.907193e-04
5.300000e+08	2.226694e+12	0.000000e+00	7.678572e-01	4.729510e+13	8.238873e+13	3.863999e+13	5.583869e+03	3.005934e+03	2.533143e+03	0	3.899026e-04
5.400000e+08	2.212748e+12	0.000000e+00	7.678572e-01	4.705241e+13	8.248389e+13	3.844800e+13	5.578555e+03	3.006494e+03	2.533615e+03	0	3.890869e-04
5.500000e+08	2.198879e+12	0.000000e+00	7.678572e-01	4.681106e+13	8.256451e+13	3.825738e+13	5.573269e+03	3.006968e+03	2.534014e+03	0	3.882723e-04
5.600000e+08	2.185088e+12	0.000000e+00	7.678572e-01	4.657108e+13	8.263105e+13	3.806812e+13	5.568010e+03	3.007359e+03	2.534344e+03	0	3.874589e-04
5.700000e+08	2.171377e+12	0.000000e+00	7.678572e-01	4.633247e+13	8.268394e+13	3.788020e+13	5.562778e+03	3.007669e+03	2.534605e+03	0	3.866468e-04
5.800000e+08	2.157747e+12	0.000000e+00	7.678572e-01	4.609525e+13	8.272362e+13	3.769361e+13	5.557572e+03	3.007902e+03	2.534802e+03	0	3.858360e-04
5.900000e+08	2.144198e+12	0.000000e+00	7.678572e-01	4.585945e+13	8.275049e+13	3.750834e+13	5.552394e+03	3.008060e+03	2.534935e+03	0	3.850268e-04
6.000000e+08	2.130732e+12	0.000000e+00	7.678572e-01	4.562507e+13	8.276502e+13	3.732439e+13	5.547241e+03	3.008145e+03	2.535006e+03	0	3.842190e-04
6.100000e+08	2.117349e+12	0.000000e+00	7.678572e-01	4.539212e+13	8.276758e+13	3.714174e+13	5.542115e+03	3.008160e+03	2.535019e+03	0	3.834129e-04
6.200000e+08	2.104049e+12	0.000000e+00	7.678572e-01	4.516062e+13	8.275859e+13	3.696038e+13	5.537015e+03	3.008107e+03	2.534975e+03	0	3.826084e-04
6.300000e+08	2.090833e+12	0.000000e+00	7.678572e-01	4.493058e+13	8.273845e+13	3.678029e+13	5.531941e+03	3.007989e+03	2.534875e+03	0	3.818057e-04
6.400000e+08	2.077702e+12	0.000000e+00	7.678572e-01	4.470199e+13	8.270754e+13	3.660148e+13	5.526893e+03	3.007808e+03	2.534722e+03	0	3.810047e-04
6.500000e+08	2.064656e+12	0.000000e+00	7.678572e-01	4.447487e+13	8.266625e+13	3.642393e+13	5.521870e+03	3.007566e+03	2.534518e+03	0	3.802056e-04
6.600000e+08	2.051696e+12	0.000000e+00	7.678572e-01	4.424923e+13	8.261496e+13	3.624763e+13	5.516873e+03	3.007264e+03	2.534264e+03	0	3.794084e-04
6.700000e+08	2.038821e+12	0.000000e+00	7.678572e-01	4.402506e+13	8.255404e+13	3.607257e+13	5.511901e+03	3.006906e+03	2.533962e+03	0	3.786131e-04
6.800000e+08	2.026032e+12	0.000000e+00	7.678572e-01	4.380238e+13	8.248382e+13	3.589873e+13	5.506955e+03	3.006493e+03	2.533614e+03	0	3.778198e-04
6.900000e+08	2.013329e+12	0.000000e+00	7.678572e-01	4.358118e+13	8.240465e+13	3.572612e+13	5.502033e+03	3.006027e+03	2.533222e+03	0	3.770285e-04
7.000000e+08	2.000712e+12	0.000000e+00	7.678572e-01	4.336146e+13	8.231690e+13	3.555471e+13	5.497136e+03	3.005511e+03	2.532786e+03	0	3.762393e-04
7.100000e+08	1.988182e+12	0.000000e+00	7.678572e-01	4.314322e+13	8.222087e+13	3.538451e+13	5.492264e+03	3.004945e+03	2.532309e+03	0	3.754522e-04
7.200000e+08	1.975737e+12	0.000000e+00	7.678572e-01	4.292647e+13	8.211690e+13	3.521550e+13	5.487416e+03	3.004332e+03	2.531793e+03	0	3.746672e-04
7.300000e+08	1.963379e+12	0.000000e+00	7.678572e-01	4.271121e+13	8.200531e+13	3.504766e+13	5.482593e+03	3.003673e+03	2.531237e+03	0	3.738844e-04
7.400000e+08	1.951107e+12	0.000000e+00	7.678572e-01	4.249743e+13	8.188638e+13	3.488100e+13	5.477794e+03	3.002970e+03	2.530645e+03	0	3.731037e-04
7.500000e+08	1.938920e+12	0.000000e+00	7.678572e-01	4.228512e+13	8.176044e+13	3.471550e+13	5.473018e+03	3.002224e+03	2.530017e+03	0	3.723253e-04
7.600000e+08	1.926820e+12	0.000000e+00	7.678572e-01	4.207429e+13	8.162775e+13	3.455116e+13	5.468267e+03	3.001438e+03	2.529354e+03	0	3.715492e-04
7.700000e+08	1.914805e+12	0.000000e+00	7.678572e-01	4.186494e+13	8.148859e+13	3.438795e+13	5.463539e+03	3.000613e+03	2.528659e+03	0	3.707753e-04
7.800000e+08	1.902875e+12	0.000000e+00	7.678572e-01	4.165706e+13	8.134327e+13	3.422589e+13	5.458835e+03	2.999750e+03	2.527931e+03	0	3.700037e-04
7.900000e+08	1.891031e+12	0.000000e+00	7.678572e-01	4.145064e+13	8.119202e+13	3.406494e+13	5.454154e+03	2.998850e+03	2.527173e+03	0	3.692344e-04
8.000000e+08	1.879271e+12	0.000000e+00	7.678572e-01	4.124568e+13	8.103510e+13	3.390512e+13	5.449496e+03	2.997916e+03	2.526386e+03	0	3.684674e-04
8.100000e+08	1.867596e+12	0.000000e+00	7.678572e-01	4.104217e+13	8.087277e+13	3.374640e+13	5.444861e+03	2.996948e+03	2.525570e+03	0	3.677028e-04
8.200000e+08	1.856005e+12	0.000000e+00	7.678572e-01	4.084011e+13	8.070527e+13	3.358878e+13	5.440249e+03	2.995947e+03	2.524727e+03	0	3.669405e-04
8.300000e+08	1.844498e+12	0.000000e+00	7.678572e-01	4.063950e+13	8.053283e+13	3.343224e+13	5.435659e+03	2.994915e+03	2.523857e+03	0	3.661806e-04
8.400000e+08	1.833074e+12	0.000000e+00	7.678572e-01	4.044032e+13	8.035566e+13	3.327679e+13	5.431092e+03	2.993853e+03	2.522962e+03	0	3.654231e-04
8.500000e+08	1.821734e+12	0.000000e+00	7.678572e-01	4.024257e+13	8.017402e+13	3.312242e+13	5.426548e+03	2.992763e+03	2.522044e+03	0	3.646679e-04
8.600000e+08	1.810476e+12	0.000000e+00	7.678572e-01	4.004624e+13	7.998808e+13	3.296910e+13	5.422026e+03	2.991645e+03	2.521101e+03	0	3.639152e-04
8.700000e+08	1.799300e+12	0.000000e+00	7.678572e-01	3.985133e+13	7.979807e+13	3.281685e+13	5.417525e+03	2.990500e+03	2.520137e+03	0	3.631649e-04
8.800000e+08	1.788207e+12	0.000000e+00	7.678572e-01	3.965782e+13	7.960418e+13	3.266564e+13	5.413047e+03	2.989330e+03	2.519151e+03	0	3.624170e-04
8.900000e+08	1.777194e+12	0.000000e+00	7.678572e-01	3.946571e+13	7.940659e+13	3.251546e+13	5.408590e+03	2.988136e+03	2.518144e+03	0	3.616715e-04
9.000000e+08	1.766263e+12	0.000000e+00	7.678572e-01	3.927500e+13	7.920552e+13	3.236632e+13	5.404155e+03	2.986918e+03	2.517118e+03	0	3.609284e-04
9.100000e+08	1.755411e+12	0.000000e+00	7.678572e-01	3.908566e+13	7.900114e+13	3.221820e+13	5.399741e+03	2.985678e+03	2.516073e+03	0	3.601877e-04
9.200000e+08	1.744640e+12	0.000000e+00	7.678572e-01	3.889770e+13	7.879359e+13	3.207110e+13	5.395348e+03	2.984416e+03	2.515009e+03	0	3.594495e-04
9.300000e+08	1.733948e+12	0.000000e+00	7.678572e-01	3.871110e+13	7.858307e+13	3.192500e+13	5.390977e+03	2.983133e+03	2.513928e+03	0	3.587137e-04
9.400000e+08	1.723335e+12	0.000000e+00	7.678572e-01	3.852587e+13	7.836973e+13	3.177990e+13	5.386626e+03	2.981831e+03	2.512831e+03	0	3.579804e-04
9.500000e+08	1.712801e+12	0.000000e+00	7.678572e-01	3.834197e+13	7.815373e+13	3.163579e+13	5.382297e+03	2.980509e+03	2.511717e+03	0	3.572495e-04
9.600000e+08	1.702344e+12	0.000000e+00	7.678572e-01	3.815942e+13	7.793521e+13	3.149267e+13	5.377988e+03	2.979170e+03	2.510588e+03	0	3.565210e-04
9.700000e+08	1.691965e+12	0.000000e+00	7.678572e-01	3.797820e+13	7.771433e+13	3.135052e+13	5.373699e+03	2.977813e+03	2.509445e+03	0	3.557949e-04
9.800000e+08	1.681662e+12	0.000000e+00	7.678572e-01	3.779829e+13	7.749123e+13	3.120933e+13	5.369431e+03	2.976439e+03	2.508287e+03	0	3.550713e-04
9.900000e+08	1.671436e+12	0.000000e+00	7.678572e-01	3.761970e+13	7.726603e+13	3.106911e+13	5.365183e+03	2.975050e+03	2.507117e+03	0	3.543501e-04
1.000000e+09	1.661285e+12	0.000000e+00	7.678572e-01	3.744241e+13	7.703886e+13	3.092983e+13	5.360954e+03	2.973646e+03	2.505933e+03	0	3.536313e-04
1.010000e+09	1.651210e+12	0.000000e+00	7.678572e-01	3.726641e+13	7.680987e+13	3.079151e+13	5.356746e+03	2.972227e+03	2.504737e+03	0	3.529149e-04
1.020000e+09	1.641209e+12	0.000000e+00	7.678572e-01	3.709169e+13	7.657916e+13	3.065412e+13	5.352558e+03	2.970794e+03	2.503530e+03	0	3.522010e-04
1.030000e+09	1.631282e+12	0.000000e+00	7.678572e-01	3.691825e+13	7.634686e+13	3.051765e+13	5.348389e+03	2.969348e+03	2.502311e+03	0	3.514894e-04
1.040000e+09	1.621428e+12	0.000000e+00	7.678572e-01	3.674606e+13	7.611307e+13	3.038211e+13	5.344240e+03	2.967889e+03	2.501082e+03	0	3.507803e-04
1.050000e+09	1.611648e+12	0.000000e+00	7.678572e-01	3.657514e+13	7.587790e+13	3.024749e+13	5.340110e+03	2.966419e+03	2.499843e+03	0	3.500736e-04
1.060000e+09	1.601939e+12	0.000000e+00	7.678572e-01	3.640545e+13	7.564145e+13	3.011377e+13	5.335999e+03	2.964937e+03	2.498594e+03	0	3.493692e-04
1.070000e+09	1.592303e+12	0.000000e+00	7.678572e-01	3.623700e+13	7.540384e+13	2.998096e+13	5.331907e+03	2.963444e+03	2.497336e+03	0	3.486673e-04
1.080000e+09	1.582738e+12	0.000000e+00	7.678572e-01	3.606977e+13	7.516515e+13	2.984904e+13	5.327834e+03	2.961941e+03	2.496069e+03	0	3.479677e-04
1.090000e+09	1.573243e+12	0.000000e+00	7.678572e-01	3.590376e+13	7.492547e+13	2.971800e+13	5.323780e+03	2.960428e+03	2.494794e+03	0	3.472705e-04
1.100000e+09	1.563818e+12	0.000000e+00	7.678572e-01	3.573895e+13	7.468490e+13	2.958785e+13	5.319744e+03	2.958905e+03	2.493511e+03	0	3.465757e-04
1.110000e+09	1.554463e+12	0.000000e+00	7.678572e-01	3.557534e+13	7.444352e+13	2.945857e+13	5.315727e+03	2.957374e+03	2.492221e+03	0	3.458832e-04
1.120000e+09	1.545177e+12	0.000000e+00	7.678572e-01	3.541291e+13	7.420141e+13	2.933015e+13	5.311729e+03	2.955835e+03	2.490924e+03	0	3.451931e-04
1.130000e+09	1.535960e+12	0.000000e+00	7.678572e-01	3.525166e+13	7.395865e+13	2.920260e+13	5.307748e+03	2.954288e+03	2.489620e+03	0	3.445053e-04
1.140000e+09	1.526810e+12	0.000000e+00	7.678572e-01	3.509157e+13	7.371533e+13	2.907589e+13	5.303786e+03	2.952733e+03	2.488310e+03	0	3.438198e-04
1.150000e+09	1.517727e+12	0.000000e+00	7.678572e-01	3.493264e+13	7.347150e+13	2.895003e+13	5.299841e+03	2.951171e+03	2.486994e+03	0	3.431367e-04
1.160000e+09	1.508711e+12	0.000000e+00	7.678572e-01	3.477486e+13	7.322724e+13	2.882502e+13	5.295915e+03	2.949603e+03	2.485672e+03	0	3.424559e-04
1.170000e+09	1.499761e+12	0.000000e+00	7.678572e-01	3.461821e+13	7.298263e+13	2.870083e+13	5.292006e+03	2.948028e+03	2.484345e+03	0	3.417774e-04
1.180000e+09	1.490876e+12	0.000000e+00	7.678572e-01	3.446270e+13	7.273772e+13	2.857747e+13	5.288115e+03	2.946448e+03	2.483013e+03	0	3.411011e-04
1.190000e+09	1.482057e+12	0.000000e+00	7.678572e-01	3.430830e+13	7.249258e+13	2.845493e+13	5.284241e+03	2.944861e+03	2.481676e+03	0	3.404272e-04
1.200000e+09	1.473302e+12	0.000000e+00	7.678572e-01	3.415500e+13	7.224726e+13	2.833321e+13	5.280385e+03	2.943270e+03	2.480335e+03	0	3.397555e-04
1.210000e+09	1.464611e+12	0.000000e+00	7.678572e-01	3.400281e+13	7.200183e+13	2.821229e+13	5.276545e+03	2.941674e+03	2.478990e+03	0	3.390862e-04
1.220000e+09	1.455984e+12	0.000000e+00	7.678572e-01	3.385171e+13	7.175634e+13	2.809217e+13	5.272723e+03	2.940074e+03	2.477642e+03	0	3.384190e-04
1.230000e+09	1.447419e+12	0.000000e+00	7.678572e-01	3.370169e+13	7.151082e+13	2.797285e+13	5.268918e+03	2.938469e+03	2.476289e+03	0	3.377541e-04
1.240000e+09	1.438916e+12	0.000000e+00	7.678572e-01	3.355273e+13	7.126536e+13	2.785432e+13	5.265129e+03	2.936861e+03	2.474934e+03	0	3.370915e-04
1.250000e+09	1.430475e+12	0.000000e+00	7.678572e-01	3.340484e+13	7.101999e+13	2.773656e+13	5.261358e+03	2.935248e+03	2.473575e+03	0	3.364310e-04
1.260000e+09	1.422096e+12	0.000000e+00	7.678572e-01	3.325801e+13	7.077474e+13	2.761959e+13	5.257603e+03	2.933633e+03	2.472214e+03	0	3.357728e-04
1.270000e+09	1.413777e+12	0.000000e+00	7.678572e-01	3.311221e+13	7.052969e+13	2.750338e+13	5.253864e+03	2.932015e+03	2.470850e+03	0	3.351168e-04
1.280000e+09	1.405518e+12	0.000000e+00	7.678572e-01	3.296746e+13	7.028485e+13	2.738795e+13	5.250142e+03	2.930394e+03	2.469484e+03	0	3.344630e-04
1.290000e+09	1.397319e+12	0.000000e+00	7.678572e-01	3.282372e+13	7.004027e+13	2.727326e+13	5.246436e+03	2.928770e+03	2.468116e+03	0	3.338113e-04
1.300000e+09	1.389178e+12	0.000000e+00	7.678572e-01	3.268101e+13	6.979601e+13	2.715934e+13	5.242746e+03	2.927144e+03	2.466746e+03	0	3.331619e-04
1.310000e+09	1.381097e+12	0.000000e+00	7.678572e-01	3.253930e+13	6.955208e+13	2.704615e+13	5.239072e+03	2.925516e+03	2.465374e+03	0	3.325145e-04
1.320000e+09	1.373073e+12	0.000000e+00	7.678572e-01	3.239859e+13	6.930852e+13	2.693371e+13	5.235414e+03	2.923887e+03	2.464000e+03	0	3.318694e-04
1.330000e+09	1.365107e+12	0.000000e+00	7.678572e-01	3.225887e+13	6.906537e+13	2.682201e+13	5.231772e+03	2.922255e+03	2.462626e+03	0	3.312263e-04
1.340000e+09	1.357198e+12	0.000000e+00	7.678572e-01	3.212013e+13	6.882267e+13	2.671103e+13	5.228146e+03	2.920623e+03	2.461250e+03	0	3.305854e-04
1.350000e+09	1.349346e+12	0.000000e+00	7.678572e-01	3.198237e+13	6.858043e+13	2.660078e+13	5.224535e+03	2.918989e+03	2.459873e+03	0	3.299466e-04
1.360000e+09	1.341549e+12	0.000000e+00	7.678572e-01	3.184557e+13	6.833870e+13	2.649125e+13	5.220939e+03	2.917355e+03	2.458496e+03	0	3.293099e-04
