#t		Qconv[W]	Ri[Rp]		R*[Rp]		Qc[W]		Qm[W]		Qr[W]		Tcmb[K]		Tl[K]		Tup[K]		RiFlag		Bs[T]
0.000000e+00	3.882443e+12	0.000000e+00	7.678571e-01	7.479621e+13	4.984518e+13	5.806179e+13	6.327396e+03	2.841600e+03	2.368256e+03	0	4.659212e-04
1.000000e+07	3.871281e+12	0.000000e+00	7.678571e-01	7.460722e+13	5.123937e+13	5.774008e+13	6.320184e+03	2.853566e+03	2.378229e+03	0	4.654743e-04
2.000000e+07	3.859593e+12	0.000000e+00	7.678571e-01	7.441018e+13	5.262959e+13	5.742078e+13	6.312991e+03	2.865254e+03	2.387970e+03	0	4.650054e-04
3.000000e+07	3.847398e+12	0.000000e+00	7.678571e-01	7.420537e+13	5.401420e+13	5.710387e+13	6.305816e+03	2.876666e+03	2.397481e+03	0	4.645151e-04
4.000000e+07	3.834715e+12	0.000000e+00	7.678571e-01	7.399309e+13	5.539158e+13	5.678932e+13	6.298661e+03	2.887800e+03	2.406760e+03	0	4.640041e-04
5.000000e+07	3.821563e+12	0.000000e+00	7.678571e-01	7.377366e+13	5.676015e+13	5.647712e+13	6.291526e+03	2.898658e+03	2.415810e+03	0	4.634731e-04
6.000000e+07	3.807964e+12	0.000000e+00	7.678571e-01	7.354737e+13	5.811838e+13	5.616725e+13	6.284412e+03	2.909240e+03	2.424629e+03	0	4.629226e-04
7.000000e+07	3.793934e+12	0.000000e+00	7.678571e-01	7.331451e+13	5.946478e+13	5.585968e+13	6.277320e+03	2.919547e+03	2.433219e+03	0	4.623534e-04
8.000000e+07	3.779495e+12	0.000000e+00	7.678571e-01	7.307540e+13	6.079790e+13	5.555441e+13	6.270251e+03	2.929581e+03	2.441581e+03	0	4.617661e-04
9.000000e+07	3.764665e+12	0.000000e+00	7.678571e-01	7.283032e+13	6.211636e+13	5.525140e+13	6.263205e+03	2.939342e+03	2.449716e+03	0	4.611614e-04
1.000000e+08	3.749463e+12	0.000000e+00	7.678571e-01	7.257957e+13	6.341882e+13	5.495064e+13	6.256182e+03	2.948832e+03	2.457626e+03	0	4.605398e-04
1.100000e+08	3.733907e+12	0.000000e+00	7.678571e-01	7.232344e+13	6.470405e+13	5.465211e+13	6.249183e+03	2.958054e+03	2.465312e+03	0	4.599020e-04
1.200000e+08	3.718017e+12	0.000000e+00	7.678571e-01	7.206221e+13	6.597080e+13	5.435580e+13	6.242209e+03	2.967010e+03	2.472776e+03	0	4.592487e-04
1.300000e+08	3.701810e+12	0.000000e+00	7.678571e-01	7.179617e+13	6.721797e+13	5.406168e+13	6.235260e+03	2.975701e+03	2.480019e+03	0	4.585804e-04
1.400000e+08	3.685304e+12	0.000000e+00	7.678571e-01	7.152558e+13	6.844447e+13	5.376973e+13	6.228337e+03	2.984131e+03	2.487045e+03	0	4.578978e-04
1.500000e+08	3.668517e+12	0.000000e+00	7.678571e-01	7.125073e+13	6.964930e+13	5.347995e+13	6.221440e+03	2.992302e+03	2.493855e+03	0	4.572015e-04
1.600000e+08	3.651466e+12	0.000000e+00	7.678571e-01	7.097187e+13	7.083154e+13	5.319230e+13	6.214569e+03	3.000217e+03	2.500452e+03	0	4.564920e-04
1.700000e+08	3.634167e+12	0.000000e+00	7.678571e-01	7.068926e+13	7.199032e+13	5.290678e+13	6.207726e+03	3.007880e+03	2.506838e+03	0	4.557700e-04
1.800000e+08	3.616638e+12	0.000000e+00	7.678571e-01	7.040317e+13	7.312484e+13	5.262336e+13	6.200909e+03	3.015292e+03	2.513015e+03	0	4.550361e-04
1.900000e+08	3.598894e+12	0.000000e+00	7.678571e-01	7.011383e+13	7.423440e+13	5.234203e+13	6.194120e+03	3.022459e+03	2.518988e+03	0	4.542907e-04
2.000000e+08	3.580950e+12	0.000000e+00	7.678571e-01	6.982148e+13	7.531834e+13	5.206277e+13	6.187359e+03	3.029383e+03	2.524758e+03	0	4.535344e-04
2.100000e+08	3.562821e+12	0.000000e+00	7.678571e-01	6.952636e+13	7.637609e+13	5.178557e+13	6.180626e+03	3.036067e+03	2.530330e+03	0	4.527677e-04
2.200000e+08	3.544523e+12	0.000000e+00	7.678571e-01	6.922870e+13	7.740714e+13	5.151040e+13	6.173921e+03	3.042517e+03	2.535705e+03	0	4.519913e-04
2.300000e+08	3.526070e+12	0.000000e+00	7.678571e-01	6.892871e+13	7.841101e+13	5.123725e+13	6.167245e+03	3.048734e+03	2.540887e+03	0	4.512055e-04
2.400000e+08	3.507474e+12	0.000000e+00	7.678571e-01	6.862660e+13	7.938736e+13	5.096610e+13	6.160598e+03	3.054725e+03	2.545879e+03	0	4.504110e-04
2.500000e+08	3.488750e+12	0.000000e+00	7.678571e-01	6.832258e+13	8.033587e+13	5.069694e+13	6.153980e+03	3.060491e+03	2.550685e+03	0	4.496081e-04
2.600000e+08	3.469910e+12	0.000000e+00	7.678571e-01	6.801685e+13	8.125627e+13	5.042974e+13	6.147391e+03	3.066039e+03	2.555309e+03	0	4.487973e-04
2.700000e+08	3.450967e+12	0.000000e+00	7.678571e-01	6.770959e+13	8.214837e+13	5.016451e+13	6.140831e+03	3.071371e+03	2.559753e+03	0	4.479791e-04
2.800000e+08	3.431932e+12	0.000000e+00	7.678571e-01	6.740099e+13	8.301205e+13	4.990120e+13	6.134302e+03	3.076492e+03	2.564021e+03	0	4.471539e-04
2.900000e+08	3.412817e+12	0.000000e+00	7.678571e-01	6.709123e+13	8.384721e+13	4.963982e+13	6.127802e+03	3.081406e+03	2.568116e+03	0	4.463222e-04
3.000000e+08	3.393633e+12	0.000000e+00	7.678571e-01	6.678048e+13	8.465385e+13	4.938035e+13	6.121331e+03	3.086117e+03	2.572043e+03	0	4.454843e-04
3.100000e+08	3.374390e+12	0.000000e+00	7.678571e-01	6.646889e+13	8.543194e+13	4.912277e+13	6.114891e+03	3.090631e+03	2.575804e+03	0	4.446407e-04
3.200000e+08	3.355098e+12	0.000000e+00	7.678571e-01	6.615662e+13	8.618159e+13	4.886706e+13	6.108481e+03	3.094950e+03	2.579404e+03	0	4.437917e-04
3.300000e+08	3.335768e+12	0.000000e+00	7.678571e-01	6.584383e+13	8.690292e+13	4.861320e+13	6.102100e+03	3.099079e+03	2.582845e+03	0	4.429378e-04
3.400000e+08	3.316407e+12	0.000000e+00	7.678571e-01	6.553065e+13	8.759607e+13	4.836120e+13	6.095750e+03	3.103023e+03	2.586132e+03	0	4.420792e-04
3.500000e+08	3.297026e+12	0.000000e+00	7.678571e-01	6.521721e+13	8.826123e+13	4.811102e+13	6.089430e+03	3.106786e+03	2.589269e+03	0	4.412163e-04
3.600000e+08	3.277632e+12	0.000000e+00	7.678571e-01	6.490366e+13	8.889866e+13	4.786265e+13	6.083140e+03	3.110372e+03	2.592257e+03	0	4.403495e-04
3.700000e+08	3.258233e+12	0.000000e+00	7.678571e-01	6.459010e+13	8.950860e+13	4.761609e+13	6.076881e+03	3.113786e+03	2.595102e+03	0	4.394791e-04
3.800000e+08	3.238838e+12	0.000000e+00	7.678571e-01	6.427667e+13	9.009137e+13	4.737130e+13	6.070651e+03	3.117031e+03	2.597807e+03	0	4.386053e-04
3.900000e+08	3.219452e+12	0.000000e+00	7.678571e-01	6.396346e+13	9.064730e+13	4.712829e+13	6.064452e+03	3.120112e+03	2.600375e+03	0	4.377285e-04
4.000000e+08	3.200084e+12	0.000000e+00	7.678571e-01	6.365059e+13	9.117673e+13	4.688703e+13	6.058283e+03	3.123034e+03	2.602810e+03	0	4.368489e-04
4.100000e+08	3.180740e+12	0.000000e+00	7.678571e-01	6.333815e+13	9.168006e+13	4.664751e+13	6.052144e+03	3.125799e+03	2.605114e+03	0	4.359669e-04
4.200000e+08	3.161425e+12	0.000000e+00	7.678571e-01	6.302624e+13	9.215768e+13	4.640972e+13	6.046035e+03	3.128413e+03	2.607293e+03	0	4.350826e-04
4.300000e+08	3.142145e+12	0.000000e+00	7.678571e-01	6.271495e+13	9.261003e+13	4.617364e+13	6.039956e+03	3.130879e+03	2.609348e+03	0	4.341964e-04
4.400000e+08	3.122907e+12	0.000000e+00	7.678571e-01	6.240437e+13	9.303754e+13	4.593926e+13	6.033907e+03	3.133202e+03	2.611284e+03	0	4.333085e-04
4.500000e+08	3.103716e+12	0.000000e+00	7.678571e-01	6.209457e+13	9.344067e+13	4.570657e+13	6.027888e+03	3.135384e+03	2.613103e+03	0	4.324190e-04
4.600000e+08	3.084575e+12	0.000000e+00	7.678571e-01	6.178563e+13	9.381990e+13	4.547554e+13	6.021899e+03	3.137431e+03	2.614809e+03	0	4.315283e-04
4.700000e+08	3.065491e+12	0.000000e+00	7.678571e-01	6.147762e+13	9.417569e+13	4.524617e+13	6.015940e+03	3.139346e+03	2.616405e+03	0	4.306365e-04
4.800000e+08	3.046466e+12	0.000000e+00	7.678571e-01	6.117061e+13	9.450857e+13	4.501845e+13	6.010010e+03	3.141133e+03	2.617894e+03	0	4.297438e-04
4.900000e+08	3.027506e+12	0.000000e+00	7.678571e-01	6.086466e+13	9.481901e+13	4.479235e+13	6.004109e+03	3.142795e+03	2.619279e+03	0	4.288504e-04
5.000000e+08	3.008615e+12	0.000000e+00	7.678571e-01	6.055984e+13	9.510753e+13	4.456787e+13	5.998239e+03	3.144336e+03	2.620563e+03	0	4.279565e-04
5.100000e+08	2.989795e+12	0.000000e+00	7.678571e-01	6.025618e+13	9.537464e+13	4.434500e+13	5.992397e+03	3.145759e+03	2.621750e+03	0	4.270623e-04
5.200000e+08	2.971050e+12	0.000000e+00	7.678571e-01	5.995376e+13	9.562088e+13	4.412371e+13	5.986585e+03	3.147069e+03	2.622841e+03	0	4.261680e-04
5.300000e+08	2.952384e+12	0.000000e+00	7.678571e-01	5.965261e+13	9.584674e+13	4.390401e+13	5.980802e+03	3.148268e+03	2.623840e+03	0	4.252736e-04
5.400000e+08	2.933799e+12	0.000000e+00	7.678571e-01	5.935278e+13	9.605275e+13	4.368587e+13	5.975048e+03	3.149360e+03	2.624750e+03	0	4.243793e-04
5.500000e+08	2.915297e+12	0.000000e+00	7.678571e-01	5.905431e+13	9.623945e+13	4.346928e+13	5.969323e+03	3.150348e+03	2.625574e+03	0	4.234854e-04
5.600000e+08	2.896883e+12	0.000000e+00	7.678571e-01	5.875724e+13	9.640734e+13	4.325423e+13	5.963626e+03	3.151235e+03	2.626313e+03	0	4.225918e-04
5.700000e+08	2.878557e+12	0.000000e+00	7.678571e-01	5.846161e+13	9.655695e+13	4.304071e+13	5.957959e+03	3.152025e+03	2.626971e+03	0	4.216989e-04
5.800000e+08	2.860323e+12	0.000000e+00	7.678571e-01	5.816745e+13	9.668879e+13	4.282870e+13	5.952319e+03	3.152720e+03	2.627551e+03	0	4.208065e-04
5.900000e+08	2.842181e+12	0.000000e+00	7.678571e-01	5.787479e+13	9.680338e+13	4.261820e+13	5.946708e+03	3.153323e+03	2.628054e+03	0	4.199150e-04
6.000000e+08	2.824135e+12	0.000000e+00	7.678571e-01	5.758366e+13	9.690123e+13	4.240918e+13	5.941125e+03	3.153838e+03	2.628483e+03	0	4.190244e-04
6.100000e+08	2.806185e+12	0.000000e+00	7.678571e-01	5.729409e+13	9.698280e+13	4.220165e+13	5.935570e+03	3.154267e+03	2.628840e+03	0	4.181347e-04
6.200000e+08	2.788333e+12	0.000000e+00	7.678571e-01	5.700609e+13	9.704864e+13	4.199558e+13	5.930043e+03	3.154613e+03	2.629129e+03	0	4.172462e-04
6.300000e+08	2.770581e+12	0.000000e+00	7.678571e-01	5.671970e+13	9.709923e+13	4.179096e+13	5.924544e+03	3.154879e+03	2.629350e+03	0	4.163588e-04
6.400000e+08	2.752930e+12	0.000000e+00	7.678571e-01	5.643492e+13	9.713504e+13	4.158779e+13	5.919073e+03	3.155067e+03	2.629507e+03	0	4.154727e-04
6.500000e+08	2.735382e+12	0.000000e+00	7.678571e-01	5.615179e+13	9.715655e+13	4.138605e+13	5.913628e+03	3.155180e+03	2.629601e+03	0	4.145880e-04
6.600000e+08	2.717936e+12	0.000000e+00	7.678571e-01	5.587030e+13	9.716422e+13	4.118573e+13	5.908211e+03	3.155220e+03	2.629635e+03	0	4.137048e-04
6.700000e+08	2.700595e+12	0.000000e+00	7.678571e-01	5.559049e+13	9.715852e+13	4.098682e+13	5.902822e+03	3.155190e+03	2.629610e+03	0	4.128230e-04
6.800000e+08	2.683358e+12	0.000000e+00	7.678571e-01	5.531235e+13	9.713990e+13	4.078930e+13	5.897459e+03	3.155093e+03	2.629528e+03	0	4.119429e-04
6.900000e+08	2.666227e+12	0.000000e+00	7.678571e-01	5.503591e+13	9.710880e+13	4.059317e+13	5.892123e+03	3.154929e+03	2.629392e+03	0	4.110644e-04
7.000000e+08	2.649203e+12	0.000000e+00	7.678571e-01	5.476117e+13	9.706568e+13	4.039842e+13	5.886813e+03	3.154703e+03	2.629203e+03	0	4.101876e-04
7.100000e+08	2.632286e+12	0.000000e+00	7.678571e-01	5.448814e+13	9.701092e+13	4.020503e+13	5.881530e+03	3.154415e+03	2.628963e+03	0	4.093126e-04
7.200000e+08	2.615476e+12	0.000000e+00	7.678571e-01	5.421682e+13	9.694495e+13	4.001299e+13	5.876273e+03	3.154068e+03	2.628674e+03	0	4.084395e-04
7.300000e+08	2.598773e+12	0.000000e+00	7.678571e-01	5.394723e+13	9.686820e+13	3.982229e+13	5.871043e+03	3.153664e+03	2.628338e+03	0	4.075682e-04
7.400000e+08	2.582179e+12	0.000000e+00	7.678571e-01	5.367936e+13	9.678104e+13	3.963293e+13	5.865838e+03	3.153206e+03	2.627956e+03	0	4.066988e-04
7.500000e+08	2.565694e+12	0.000000e+00	7.678571e-01	5.341322e+13	9.668388e+13	3.944488e+13	5.860659e+03	3.152694e+03	2.627529e+03	0	4.058315e-04
7.600000e+08	2.549317e+12	0.000000e+00	7.678571e-01	5.314882e+13	9.657707e+13	3.925814e+13	5.855506e+03	3.152131e+03	2.627060e+03	0	4.049662e-04
7.700000e+08	2.533048e+12	0.000000e+00	7.678571e-01	5.288615e+13	9.646100e+13	3.907271e+13	5.850378e+03	3.151518e+03	2.626549e+03	0	4.041029e-04
7.800000e+08	2.516889e+12	0.000000e+00	7.678571e-01	5.262521e+13	9.633601e+13	3.888856e+13	5.845276e+03	3.150858e+03	2.625999e+03	0	4.032417e-04
7.900000e+08	2.500838e+12	0.000000e+00	7.678571e-01	5.236601e+13	9.620248e+13	3.870569e+13	5.840198e+03	3.150152e+03	2.625411e+03	0	4.023827e-04
8.000000e+08	2.484896e+12	0.000000e+00	7.678571e-01	5.210854e+13	9.606072e+13	3.852409e+13	5.835146e+03	3.149402e+03	2.624786e+03	0	4.015259e-04
8.100000e+08	2.469062e+12	0.000000e+00	7.678571e-01	5.185281e+13	9.591109e+13	3.834375e+13	5.830119e+03	3.148609e+03	2.624125e+03	0	4.006712e-04
8.200000e+08	2.453337e+12	0.000000e+00	7.678571e-01	5.159880e+13	9.575389e+13	3.816466e+13	5.825116e+03	3.147775e+03	2.623430e+03	0	3.998188e-04
8.300000e+08	2.437720e+12	0.000000e+00	7.678571e-01	5.134652e+13	9.558943e+13	3.798680e+13	5.820137e+03	3.146902e+03	2.622702e+03	0	3.989686e-04
8.400000e+08	2.422212e+12	0.000000e+00	7.678571e-01	5.109596e+13	9.541803e+13	3.781017e+13	5.815183e+03	3.145990e+03	2.621942e+03	0	3.981208e-04
8.500000e+08	2.406811e+12	0.000000e+00	7.678571e-01	5.084711e+13	9.523998e+13	3.763476e+13	5.810253e+03	3.145042e+03	2.621152e+03	0	3.972752e-04
8.600000e+08	2.391517e+12	0.000000e+00	7.678571e-01	5.059998e+13	9.505556e+13	3.746056e+13	5.805347e+03	3.144058e+03	2.620332e+03	0	3.964319e-04
8.700000e+08	2.376331e+12	0.000000e+00	7.678571e-01	5.035456e+13	9.486505e+13	3.728756e+13	5.800465e+03	3.143041e+03	2.619484e+03	0	3.955910e-04
8.800000e+08	2.361252e+12	0.000000e+00	7.678571e-01	5.011083e+13	9.466871e+13	3.711575e+13	5.795606e+03	3.141991e+03	2.618609e+03	0	3.947525e-04
8.900000e+08	2.346279e+12	0.000000e+00	7.678571e-01	4.986881e+13	9.446682e+13	3.694512e+13	5.790771e+03	3.140909e+03	2.617707e+03	0	3.939163e-04
9.000000e+08	2.331412e+12	0.000000e+00	7.678571e-01	4.962846e+13	9.425963e+13	3.677567e+13	5.785959e+03	3.139797e+03	2.616781e+03	0	3.930826e-04
9.100000e+08	2.316650e+12	0.000000e+00	7.678571e-01	4.938980e+13	9.404738e+13	3.660737e+13	5.781171e+03	3.138656e+03	2.615830e+03	0	3.922512e-04
9.200000e+08	2.301994e+12	0.000000e+00	7.678571e-01	4.915281e+13	9.383030e+13	3.644022e+13	5.776405e+03	3.137487e+03	2.614856e+03	0	3.914223e-04
9.300000e+08	2.287442e+12	0.000000e+00	7.678571e-01	4.891749e+13	9.360863e+13	3.627422e+13	5.771662e+03	3.136292e+03	2.613859e+03	0	3.905957e-04
9.400000e+08	2.272995e+12	0.000000e+00	7.678571e-01	4.868382e+13	9.338257e+13	3.610936e+13	5.766942e+03	3.135070e+03	2.612841e+03	0	3.897717e-04
9.500000e+08	2.258650e+12	0.000000e+00	7.678571e-01	4.845180e+13	9.315237e+13	3.594562e+13	5.762244e+03	3.133824e+03	2.611803e+03	0	3.889500e-04
9.600000e+08	2.244409e+12	0.000000e+00	7.678571e-01	4.822142e+13	9.291821e+13	3.578299e+13	5.757569e+03	3.132554e+03	2.610744e+03	0	3.881308e-04
9.700000e+08	2.230270e+12	0.000000e+00	7.678571e-01	4.799267e+13	9.268032e+13	3.562147e+13	5.752916e+03	3.131262e+03	2.609667e+03	0	3.873141e-04
9.800000e+08	2.216233e+12	0.000000e+00	7.678571e-01	4.776554e+13	9.243886e+13	3.546105e+13	5.748285e+03	3.129947e+03	2.608571e+03	0	3.864998e-04
9.900000e+08	2.202298e+12	0.000000e+00	7.678571e-01	4.754001e+13	9.219403e+13	3.530173e+13	5.743676e+03	3.128612e+03	2.607458e+03	0	3.856880e-04
1.000000e+09	2.188463e+12	0.000000e+00	7.678571e-01	4.731609e+13	9.194602e+13	3.514348e+13	5.739088e+03	3.127256e+03	2.606329e+03	0	3.848787e-04
1.010000e+09	2.174728e+12	0.000000e+00	7.678571e-01	4.709377e+13	9.169500e+13	3.498631e+13	5.734522e+03	3.125881e+03	2.605183e+03	0	3.840718e-04
1.020000e+09	2.161092e+12	0.000000e+00	7.678571e-01	4.687302e+13	9.144115e+13	3.483020e+13	5.729978e+03	3.124488e+03	2.604022e+03	0	3.832674e-04
1.030000e+09	2.147555e+12	0.000000e+00	7.678571e-01	4.665384e+13	9.118461e+13	3.467515e+13	5.725454e+03	3.123077e+03	2.602846e+03	0	3.824655e-04
1.040000e+09	2.134116e+12	0.000000e+00	7.678571e-01	4.643623e+13	9.092554e+13	3.452114e+13	5.720952e+03	3.121649e+03	2.601656e+03	0	3.816660e-04
1.050000e+09	2.120775e+12	0.000000e+00	7.678571e-01	4.622016e+13	9.066411e+13	3.436818e+13	5.716471e+03	3.120205e+03	2.600452e+03	0	3.808690e-04
1.060000e+09	2.107530e+12	0.000000e+00	7.678571e-01	4.600564e+13	9.040047e+13	3.421625e+13	5.712011e+03	3.118746e+03	2.599236e+03	0	3.800745e-04
1.070000e+09	2.094382e+12	0.000000e+00	7.678571e-01	4.579264e+13	9.013472e+13	3.406534e+13	5.707571e+03	3.117272e+03	2.598008e+03	0	3.792824e-04
1.080000e+09	2.081329e+12	0.000000e+00	7.678571e-01	4.558116e+13	8.986704e+13	3.391544e+13	5.703152e+03	3.115784e+03	2.596767e+03	0	3.784929e-04
1.090000e+09	2.068370e+12	0.000000e+00	7.678571e-01	4.537119e+13	8.959755e+13	3.376656e+13	5.698753e+03	3.114282e+03	2.595516e+03	0	3.777057e-04
1.100000e+09	2.055506e+12	0.000000e+00	7.678571e-01	4.516271e+13	8.932636e+13	3.361867e+13	5.694375e+03	3.112768e+03	2.594254e+03	0	3.769210e-04
1.110000e+09	2.042735e+12	0.000000e+00	7.678571e-01	4.495572e+13	8.905361e+13	3.347178e+13	5.690017e+03	3.111241e+03	2.592981e+03	0	3.761388e-04
1.120000e+09	2.030057e+12	0.000000e+00	7.678571e-01	4.475021e+13	8.877942e+13	3.332587e+13	5.685678e+03	3.109703e+03	2.591699e+03	0	3.753590e-04
1.130000e+09	2.017471e+12	0.000000e+00	7.678571e-01	4.454616e+13	8.850388e+13	3.318094e+13	5.681359e+03	3.108154e+03	2.590408e+03	0	3.745817e-04
1.140000e+09	2.004976e+12	0.000000e+00	7.678571e-01	4.434356e+13	8.822712e+13	3.303697e+13	5.677060e+03	3.106594e+03	2.589108e+03	0	3.738068e-04
1.150000e+09	1.992572e+12	0.000000e+00	7.678571e-01	4.414240e+13	8.794923e+13	3.289397e+13	5.672781e+03	3.105024e+03	2.587800e+03	0	3.730343e-04
1.160000e+09	1.980257e+12	0.000000e+00	7.678571e-01	4.394268e+13	8.767033e+13	3.275192e+13	5.668521e+03	3.103444e+03	2.586483e+03	0	3.722643e-04
1.170000e+09	1.968032e+12	0.000000e+00	7.678571e-01	4.374437e+13	8.739050e+13	3.261081e+13	5.664280e+03	3.101856e+03	2.585160e+03	0	3.714966e-04
1.180000e+09	1.955896e+12	0.000000e+00	7.678571e-01	4.354747e+13	8.710983e+13	3.247065e+13	5.660058e+03	3.100259e+03	2.583829e+03	0	3.707314e-04
1.190000e+09	1.943847e+12	0.000000e+00	7.678571e-01	4.335197e+13	8.682844e+13	3.233142e+13	5.655855e+03	3.098654e+03	2.582491e+03	0	3.699686e-04
1.200000e+09	1.931885e+12	0.000000e+00	7.678571e-01	4.315785e+13	8.654638e+13	3.219311e+13	5.651671e+03	3.097041e+03	2.581147e+03	0	3.692081e-04
1.210000e+09	1.920010e+12	0.000000e+00	7.678571e-01	4.296511e+13	8.626374e+13	3.205572e+13	5.647506e+03	3.095421e+03	2.579797e+03	0	3.684501e-04
1.220000e+09	1.908220e+12	0.000000e+00	7.678571e-01	4.277374e+13	8.598060e+13	3.191924e+13	5.643359e+03	3.093795e+03	2.578441e+03	0	3.676944e-04
1.230000e+09	1.896516e+12	0.000000e+00	7.678571e-01	4.258372e+13	8.569706e+13	3.178366e+13	5.639231e+03	3.092161e+03	2.577080e+03	0	3.669411e-04
1.240000e+09	1.884896e+12	0.000000e+00	7.678571e-01	4.239504e+13	8.541317e+13	3.164898e+13	5.635121e+03	3.090522e+03	2.575714e+03	0	3.661901e-04
1.250000e+09	1.873359e+12	0.000000e+00	7.678571e-01	4.220769e+13	8.512901e+13	3.151518e+13	5.631030e+03	3.088877e+03	2.574343e+03	0	3.654415e-04
1.260000e+09	1.861906e+12	0.000000e+00	7.678571e-01	4.202166e+13	8.484465e+13	3.138227e+13	5.626956e+03	3.087227e+03	2.572967e+03	0	3.646952e-04
1.270000e+09	1.850535e+12	0.000000e+00	7.678571e-01	4.183694e+13	8.456014e+13	3.125024e+13	5.622900e+03	3.085572e+03	2.571588e+03	0	3.639513e-04
1.280000e+09	1.839245e+12	0.000000e+00	7.678571e-01	4.165352e+13	8.427556e+13	3.111907e+13	5.618862e+03	3.083912e+03	2.570205e+03	0	3.632096e-04
1.290000e+09	1.828037e+12	0.000000e+00	7.678571e-01	4.147139e+13	8.399097e+13	3.098877e+13	5.614842e+03	3.082248e+03	2.568818e+03	0	3.624703e-04
1.300000e+09	1.816908e+12	0.000000e+00	7.678571e-01	4.129053e+13	8.370640e+13	3.085932e+13	5.610839e+03	3.080580e+03	2.567428e+03	0	3.617333e-04
1.310000e+09	1.805859e+12	0.000000e+00	7.678571e-01	4.111094e+13	8.342194e+13	3.073072e+13	5.606854e+03	3.078908e+03	2.566034e+03	0	3.609985e-04
1.320000e+09	1.794889e+12	0.000000e+00	7.678571e-01	4.093261e+13	8.313762e+13	3.060296e+13	5.602886e+03	3.077233e+03	2.564638e+03	0	3.602661e-04
1.330000e+09	1.783998e+12	0.000000e+00	7.678571e-01	4.075553e+13	8.285349e+13	3.047604e+13	5.598935e+03	3.075555e+03	2.563239e+03	0	3.595359e-04
1.340000e+09	1.773184e+12	0.000000e+00	7.678571e-01	4.057968e+13	8.256963e+13	3.034994e+13	5.595001e+03	3.073874e+03	2.561838e+03	0	3.588079e-04
1.350000e+09	1.762446e+12	0.000000e+00	7.678571e-01	4.040505e+13	8.228604e+13	3.022467e+13	5.591085e+03	3.072190e+03	2.560435e+03	0	3.580822e-04
1.360000e+09	1.751786e+12	0.000000e+00	7.678571e-01	4.023164e+13	8.200279e+13	3.010022e+13	5.587185e+03	3.070504e+03	2.559030e+03	0	3.573588e-04
