#t		Qconv[W]	Ri[Rp]		R*[Rp]		Qc[W]		Qm[W]		Qr[W]		Tcmb[K]		Tl[K]		Tup[K]		RiFlag		Bs[T]
0.000000e+00	4.973817e+12	0.000000e+00	7.678571e-01	9.222078e+13	5.121795e+13	6.800433e+13	6.892933e+03	2.958050e+03	2.433293e+03	0	5.021109e-04
1.000000e+07	4.964902e+12	0.000000e+00	7.678571e-01	9.207216e+13	5.279738e+13	6.762754e+13	6.885579e+03	2.971569e+03	2.444414e+03	0	5.018108e-04
2.000000e+07	4.955219e+12	0.000000e+00	7.678571e-01	9.191288e+13	5.438167e+13	6.725356e+13	6.878238e+03	2.984824e+03	2.455318e+03	0	5.014843e-04
3.000000e+07	4.944789e+12	0.000000e+00	7.678571e-01	9.174324e+13	5.596905e+13	6.688238e+13	6.870909e+03	2.997815e+03	2.466004e+03	0	5.011322e-04
4.000000e+07	4.933630e+12	0.000000e+00	7.678571e-01	9.156351e+13	5.755773e+13	6.651397e+13	6.863593e+03	3.010539e+03	2.476471e+03	0	5.007550e-04
5.000000e+07	4.921766e+12	0.000000e+00	7.678571e-01	9.137400e+13	5.914595e+13	6.614831e+13	6.856292e+03	3.022996e+03	2.486718e+03	0	5.003532e-04
6.000000e+07	4.909216e+12	0.000000e+00	7.678571e-01	9.117500e+13	6.073193e+13	6.578537e+13	6.849006e+03	3.035185e+03	2.496745e+03	0	4.999276e-04
7.000000e+07	4.896002e+12	0.000000e+00	7.678571e-01	9.096681e+13	6.231393e+13	6.542514e+13	6.841736e+03	3.047106e+03	2.506551e+03	0	4.994787e-04
8.000000e+07	4.882147e+12	0.000000e+00	7.678571e-01	9.074974e+13	6.389024e+13	6.506759e+13	6.834482e+03	3.058758e+03	2.516136e+03	0	4.990070e-04
9.000000e+07	4.867671e+12	0.000000e+00	7.678571e-01	9.052409e+13	6.545916e+13	6.471269e+13	6.827245e+03	3.070142e+03	2.525500e+03	0	4.985133e-04
1.000000e+08	4.852596e+12	0.000000e+00	7.678571e-01	9.029017e+13	6.701905e+13	6.436043e+13	6.820027e+03	3.081257e+03	2.534644e+03	0	4.979982e-04
1.100000e+08	4.836945e+12	0.000000e+00	7.678571e-01	9.004828e+13	6.856829e+13	6.401078e+13	6.812827e+03	3.092104e+03	2.543567e+03	0	4.974622e-04
1.200000e+08	4.820739e+12	0.000000e+00	7.678571e-01	8.979874e+13	7.010531e+13	6.366373e+13	6.805647e+03	3.102685e+03	2.552270e+03	0	4.969060e-04
1.300000e+08	4.804001e+12	0.000000e+00	7.678571e-01	8.954184e+13	7.162860e+13	6.331924e+13	6.798486e+03	3.112999e+03	2.560755e+03	0	4.963303e-04
1.400000e+08	4.786751e+12	0.000000e+00	7.678571e-01	8.927790e+13	7.313666e+13	6.297730e+13	6.791346e+03	3.123049e+03	2.569022e+03	0	4.957355e-04
1.500000e+08	4.769013e+12	0.000000e+00	7.678571e-01	8.900722e+13	7.462810e+13	6.263790e+13	6.784227e+03	3.132836e+03	2.577072e+03	0	4.951224e-04
1.600000e+08	4.750806e+12	0.000000e+00	7.678571e-01	8.873010e+13	7.610157e+13	6.230100e+13	6.777129e+03	3.142360e+03	2.584907e+03	0	4.944915e-04
1.700000e+08	4.732153e+12	0.000000e+00	7.678571e-01	8.844683e+13	7.755575e+13	6.196658e+13	6.770053e+03	3.151625e+03	2.592529e+03	0	4.938435e-04
1.800000e+08	4.713074e+12	0.000000e+00	7.678571e-01	8.815771e+13	7.898944e+13	6.163463e+13	6.763000e+03	3.160632e+03	2.599938e+03	0	4.931789e-04
1.900000e+08	4.693590e+12	0.000000e+00	7.678571e-01	8.786303e+13	8.040147e+13	6.130513e+13	6.755970e+03	3.169383e+03	2.607136e+03	0	4.924983e-04
2.000000e+08	4.673722e+12	0.000000e+00	7.678571e-01	8.756308e+13	8.179073e+13	6.097804e+13	6.748964e+03	3.177881e+03	2.614127e+03	0	4.918024e-04
2.100000e+08	4.653489e+12	0.000000e+00	7.678571e-01	8.725813e+13	8.315621e+13	6.065337e+13	6.741981e+03	3.186129e+03	2.620911e+03	0	4.910917e-04
2.200000e+08	4.632911e+12	0.000000e+00	7.678571e-01	8.694847e+13	8.449694e+13	6.033108e+13	6.735023e+03	3.194128e+03	2.627492e+03	0	4.903668e-04
2.300000e+08	4.612009e+12	0.000000e+00	7.678571e-01	8.663436e+13	8.581203e+13	6.001115e+13	6.728089e+03	3.201882e+03	2.633870e+03	0	4.896282e-04
2.400000e+08	4.590799e+12	0.000000e+00	7.678571e-01	8.631606e+13	8.710067e+13	5.969357e+13	6.721180e+03	3.209394e+03	2.640050e+03	0	4.888765e-04
2.500000e+08	4.569302e+12	0.000000e+00	7.678571e-01	8.599385e+13	8.836213e+13	5.937832e+13	6.714297e+03	3.216668e+03	2.646033e+03	0	4.881122e-04
2.600000e+08	4.547535e+12	0.000000e+00	7.678571e-01	8.566796e+13	8.959570e+13	5.906537e+13	6.707439e+03	3.223705e+03	2.651821e+03	0	4.873359e-04
2.700000e+08	4.525516e+12	0.000000e+00	7.678571e-01	8.533864e+13	9.080079e+13	5.875471e+13	6.700607e+03	3.230510e+03	2.657419e+03	0	4.865481e-04
2.800000e+08	4.503262e+12	0.000000e+00	7.678571e-01	8.500614e+13	9.197687e+13	5.844633e+13	6.693802e+03	3.237086e+03	2.662829e+03	0	4.857492e-04
2.900000e+08	4.480789e+12	0.000000e+00	7.678571e-01	8.467069e+13	9.312342e+13	5.814019e+13	6.687023e+03	3.243437e+03	2.668053e+03	0	4.849399e-04
3.000000e+08	4.458114e+12	0.000000e+00	7.678571e-01	8.433251e+13	9.424011e+13	5.783628e+13	6.680270e+03	3.249566e+03	2.673094e+03	0	4.841205e-04
3.100000e+08	4.435253e+12	0.000000e+00	7.678571e-01	8.399183e+13	9.532652e+13	5.753459e+13	6.673545e+03	3.255476e+03	2.677957e+03	0	4.832915e-04
3.200000e+08	4.412220e+12	0.000000e+00	7.678571e-01	8.364885e+13	9.638242e+13	5.723509e+13	6.666847e+03	3.261173e+03	2.682643e+03	0	4.824535e-04
3.300000e+08	4.389031e+12	0.000000e+00	7.678571e-01	8.330378e+13	9.740756e+13	5.693777e+13	6.660176e+03	3.266659e+03	2.687155e+03	0	4.816068e-04
3.400000e+08	4.365699e+12	0.000000e+00	7.678571e-01	8.295683e+13	9.840180e+13	5.664261e+13	6.653532e+03	3.271938e+03	2.691498e+03	0	4.807519e-04
3.500000e+08	4.342239e+12	0.000000e+00	7.678571e-01	8.260817e+13	9.936501e+13	5.634959e+13	6.646916e+03	3.277015e+03	2.695674e+03	0	4.798892e-04
3.600000e+08	4.318663e+12	0.000000e+00	7.678571e-01	8.225801e+13	1.002971e+14	5.605869e+13	6.640328e+03	3.281893e+03	2.699687e+03	0	4.790191e-04
3.700000e+08	4.294986e+12	0.000000e+00	7.678571e-01	8.190651e+13	1.011982e+14	5.576990e+13	6.633768e+03	3.286576e+03	2.703539e+03	0	4.781421e-04
3.800000e+08	4.271218e+12	0.000000e+00	7.678571e-01	8.155385e+13	1.020682e+14	5.548320e+13	6.627235e+03	3.291068e+03	2.707235e+03	0	4.772584e-04
3.900000e+08	4.247371e+12	0.000000e+00	7.678571e-01	8.120019e+13	1.029073e+14	5.519858e+13	6.620731e+03	3.295374e+03	2.710776e+03	0	4.763686e-04
4.000000e+08	4.223458e+12	0.000000e+00	7.678571e-01	8.084570e+13	1.037156e+14	5.491600e+13	6.614255e+03	3.299497e+03	2.714168e+03	0	4.754729e-04
4.100000e+08	4.199489e+12	0.000000e+00	7.678571e-01	8.049052e+13	1.044933e+14	5.463547e+13	6.607807e+03	3.303441e+03	2.717412e+03	0	4.745717e-04
4.200000e+08	4.175475e+12	0.000000e+00	7.678571e-01	8.013480e+13	1.052406e+14	5.435696e+13	6.601388e+03	3.307210e+03	2.720512e+03	0	4.736654e-04
4.300000e+08	4.151424e+12	0.000000e+00	7.678571e-01	7.977868e+13	1.059577e+14	5.408046e+13	6.594997e+03	3.310808e+03	2.723472e+03	0	4.727542e-04
4.400000e+08	4.127348e+12	0.000000e+00	7.678571e-01	7.942230e+13	1.066449e+14	5.380594e+13	6.588634e+03	3.314239e+03	2.726295e+03	0	4.718386e-04
4.500000e+08	4.103256e+12	0.000000e+00	7.678571e-01	7.906578e+13	1.073026e+14	5.353339e+13	6.582299e+03	3.317507e+03	2.728983e+03	0	4.709187e-04
4.600000e+08	4.079155e+12	0.000000e+00	7.678571e-01	7.870924e+13	1.079311e+14	5.326281e+13	6.575993e+03	3.320616e+03	2.731541e+03	0	4.699949e-04
4.700000e+08	4.055055e+12	0.000000e+00	7.678571e-01	7.835281e+13	1.085308e+14	5.299416e+13	6.569716e+03	3.323570e+03	2.733971e+03	0	4.690675e-04
4.800000e+08	4.030964e+12	0.000000e+00	7.678571e-01	7.799659e+13	1.091020e+14	5.272744e+13	6.563466e+03	3.326373e+03	2.736276e+03	0	4.681367e-04
4.900000e+08	4.006888e+12	0.000000e+00	7.678571e-01	7.764068e+13	1.096452e+14	5.246263e+13	6.557245e+03	3.329028e+03	2.738460e+03	0	4.672028e-04
5.000000e+08	3.982836e+12	0.000000e+00	7.678571e-01	7.728520e+13	1.101609e+14	5.219971e+13	6.551053e+03	3.331539e+03	2.740526e+03	0	4.662661e-04
5.100000e+08	3.958814e+12	0.000000e+00	7.678571e-01	7.693023e+13	1.106495e+14	5.193867e+13	6.544888e+03	3.333911e+03	2.742477e+03	0	4.653268e-04
5.200000e+08	3.934829e+12	0.000000e+00	7.678571e-01	7.657587e+13	1.111114e+14	5.167949e+13	6.538752e+03	3.336145e+03	2.744315e+03	0	4.643852e-04
5.300000e+08	3.910887e+12	0.000000e+00	7.678571e-01	7.622220e+13	1.115472e+14	5.142217e+13	6.532644e+03	3.338247e+03	2.746044e+03	0	4.634414e-04
5.400000e+08	3.886994e+12	0.000000e+00	7.678571e-01	7.586930e+13	1.119573e+14	5.116667e+13	6.526565e+03	3.340220e+03	2.747667e+03	0	4.624957e-04
5.500000e+08	3.863155e+12	0.000000e+00	7.678571e-01	7.551726e+13	1.123423e+14	5.091299e+13	6.520513e+03	3.342067e+03	2.749186e+03	0	4.615483e-04
5.600000e+08	3.839376e+12	0.000000e+00	7.678571e-01	7.516614e+13	1.127028e+14	5.066112e+13	6.514490e+03	3.343791e+03	2.750604e+03	0	4.605993e-04
5.700000e+08	3.815662e+12	0.000000e+00	7.678571e-01	7.481602e+13	1.130391e+14	5.041103e+13	6.508494e+03	3.345397e+03	2.751925e+03	0	4.596490e-04
5.800000e+08	3.792018e+12	0.000000e+00	7.678571e-01	7.446696e+13	1.133518e+14	5.016272e+13	6.502526e+03	3.346887e+03	2.753151e+03	0	4.586976e-04
5.900000e+08	3.768447e+12	0.000000e+00	7.678571e-01	7.411902e+13	1.136416e+14	4.991617e+13	6.496587e+03	3.348264e+03	2.754284e+03	0	4.577453e-04
6.000000e+08	3.744955e+12	0.000000e+00	7.678571e-01	7.377227e+13	1.139089e+14	4.967136e+13	6.490674e+03	3.349533e+03	2.755327e+03	0	4.567921e-04
6.100000e+08	3.721544e+12	0.000000e+00	7.678571e-01	7.342674e+13	1.141543e+14	4.942829e+13	6.484790e+03	3.350695e+03	2.756284e+03	0	4.558383e-04
6.200000e+08	3.698220e+12	0.000000e+00	7.678571e-01	7.308251e+13	1.143783e+14	4.918693e+13	6.478933e+03	3.351755e+03	2.757155e+03	0	4.548840e-04
6.300000e+08	3.674985e+12	0.000000e+00	7.678571e-01	7.273961e+13	1.145815e+14	4.894728e+13	6.473103e+03	3.352714e+03	2.757945e+03	0	4.539293e-04
6.400000e+08	3.651842e+12	0.000000e+00	7.678571e-01	7.239809e+13	1.147643e+14	4.870932e+13	6.467301e+03	3.353577e+03	2.758654e+03	0	4.529745e-04
6.500000e+08	3.628796e+12	0.000000e+00	7.678571e-01	7.205799e+13	1.149274e+14	4.847303e+13	6.461526e+03	3.354346e+03	2.759287e+03	0	4.520196e-04
6.600000e+08	3.605847e+12	0.000000e+00	7.678571e-01	7.171936e+13	1.150713e+14	4.823841e+13	6.455778e+03	3.355023e+03	2.759844e+03	0	4.510647e-04
6.700000e+08	3.583000e+12	0.000000e+00	7.678571e-01	7.138223e+13	1.151965e+14	4.800543e+13	6.450056e+03	3.355612e+03	2.760328e+03	0	4.501100e-04
6.800000e+08	3.560257e+12	0.000000e+00	7.678571e-01	7.104663e+13	1.153036e+14	4.777409e+13	6.444362e+03	3.356115e+03	2.760742e+03	0	4.491556e-04
6.900000e+08	3.537620e+12	0.000000e+00	7.678571e-01	7.071259e+13	1.153930e+14	4.754438e+13	6.438695e+03	3.356536e+03	2.761088e+03	0	4.482017e-04
7.000000e+08	3.515091e+12	0.000000e+00	7.678571e-01	7.038015e+13	1.154654e+14	4.731628e+13	6.433054e+03	3.356875e+03	2.761367e+03	0	4.472482e-04
7.100000e+08	3.492673e+12	0.000000e+00	7.678571e-01	7.004934e+13	1.155211e+14	4.708977e+13	6.427439e+03	3.357136e+03	2.761582e+03	0	4.462953e-04
7.200000e+08	3.470366e+12	0.000000e+00	7.678571e-01	6.972017e+13	1.155607e+14	4.686484e+13	6.421851e+03	3.357322e+03	2.761735e+03	0	4.453432e-04
7.300000e+08	3.448173e+12	0.000000e+00	7.678571e-01	6.939267e+13	1.155847e+14	4.664149e+13	6.416289e+03	3.357435e+03	2.761828e+03	0	4.443918e-04
7.400000e+08	3.426096e+12	0.000000e+00	7.678571e-01	6.906687e+13	1.155936e+14	4.641970e+13	6.410754e+03	3.357477e+03	2.761862e+03	0	4.434414e-04
7.500000e+08	3.404135e+12	0.000000e+00	7.678571e-01	6.874278e+13	1.155879e+14	4.619945e+13	6.405244e+03	3.357450e+03	2.761840e+03	0	4.424919e-04
7.600000e+08	3.382293e+12	0.000000e+00	7.678571e-01	6.842041e+13	1.155680e+14	4.598074e+13	6.399760e+03	3.357356e+03	2.761763e+03	0	4.415435e-04
7.700000e+08	3.360569e+12	0.000000e+00	7.678571e-01	6.809980e+13	1.155344e+14	4.576355e+13	6.394301e+03	3.357199e+03	2.761634e+03	0	4.405961e-04
7.800000e+08	3.338967e+12	0.000000e+00	7.678571e-01	6.778095e+13	1.154875e+14	4.554787e+13	6.388869e+03	3.356979e+03	2.761453e+03	0	4.396500e-04
7.900000e+08	3.317485e+12	0.000000e+00	7.678571e-01	6.746387e+13	1.154279e+14	4.533368e+13	6.383461e+03	3.356699e+03	2.761223e+03	0	4.387051e-04
8.000000e+08	3.296126e+12	0.000000e+00	7.678571e-01	6.714857e+13	1.153559e+14	4.512099e+13	6.378079e+03	3.356361e+03	2.760945e+03	0	4.377616e-04
8.100000e+08	3.274889e+12	0.000000e+00	7.678571e-01	6.683507e+13	1.152720e+14	4.490976e+13	6.372722e+03	3.355967e+03	2.760620e+03	0	4.368194e-04
8.200000e+08	3.253777e+12	0.000000e+00	7.678571e-01	6.652338e+13	1.151766e+14	4.470000e+13	6.367390e+03	3.355518e+03	2.760251e+03	0	4.358787e-04
8.300000e+08	3.232788e+12	0.000000e+00	7.678571e-01	6.621349e+13	1.150700e+14	4.449169e+13	6.362083e+03	3.355017e+03	2.759839e+03	0	4.349394e-04
8.400000e+08	3.211924e+12	0.000000e+00	7.678571e-01	6.590543e+13	1.149528e+14	4.428482e+13	6.356800e+03	3.354465e+03	2.759385e+03	0	4.340018e-04
8.500000e+08	3.191186e+12	0.000000e+00	7.678571e-01	6.559919e+13	1.148253e+14	4.407937e+13	6.351542e+03	3.353864e+03	2.758891e+03	0	4.330657e-04
8.600000e+08	3.170573e+12	0.000000e+00	7.678571e-01	6.529478e+13	1.146878e+14	4.387534e+13	6.346308e+03	3.353216e+03	2.758357e+03	0	4.321312e-04
8.700000e+08	3.150086e+12	0.000000e+00	7.678571e-01	6.499220e+13	1.145407e+14	4.367272e+13	6.341099e+03	3.352522e+03	2.757787e+03	0	4.311984e-04
8.800000e+08	3.129724e+12	0.000000e+00	7.678571e-01	6.469146e+13	1.143845e+14	4.347149e+13	6.335914e+03	3.351784e+03	2.757179e+03	0	4.302674e-04
8.900000e+08	3.109489e+12	0.000000e+00	7.678571e-01	6.439256e+13	1.142194e+14	4.327164e+13	6.330752e+03	3.351003e+03	2.756537e+03	0	4.293381e-04
9.000000e+08	3.089381e+12	0.000000e+00	7.678571e-01	6.409549e+13	1.140458e+14	4.307316e+13	6.325615e+03	3.350181e+03	2.755861e+03	0	4.284106e-04
9.100000e+08	3.069398e+12	0.000000e+00	7.678571e-01	6.380025e+13	1.138640e+14	4.287604e+13	6.320501e+03	3.349320e+03	2.755152e+03	0	4.274849e-04
9.200000e+08	3.049542e+12	0.000000e+00	7.678571e-01	6.350686e+13	1.136744e+14	4.268028e+13	6.315411e+03	3.348420e+03	2.754412e+03	0	4.265611e-04
9.300000e+08	3.029812e+12	0.000000e+00	7.678571e-01	6.321530e+13	1.134772e+14	4.248585e+13	6.310344e+03	3.347483e+03	2.753641e+03	0	4.256392e-04
9.400000e+08	3.010208e+12	0.000000e+00	7.678571e-01	6.292557e+13	1.132729e+14	4.229275e+13	6.305300e+03	3.346511e+03	2.752841e+03	0	4.247192e-04
9.500000e+08	2.990730e+12	0.000000e+00	7.678571e-01	6.263767e+13	1.130616e+14	4.210097e+13	6.300279e+03	3.345504e+03	2.752013e+03	0	4.238012e-04
9.600000e+08	2.971378e+12	0.000000e+00	7.678571e-01	6.235160e+13	1.128436e+14	4.191050e+13	6.295281e+03	3.344464e+03	2.751158e+03	0	4.228851e-04
9.700000e+08	2.952152e+12	0.000000e+00	7.678571e-01	6.206735e+13	1.126193e+14	4.172132e+13	6.290307e+03	3.343392e+03	2.750276e+03	0	4.219710e-04
9.800000e+08	2.933050e+12	0.000000e+00	7.678571e-01	6.178492e+13	1.123890e+14	4.153343e+13	6.285354e+03	3.342290e+03	2.749369e+03	0	4.210589e-04
9.900000e+08	2.914073e+12	0.000000e+00	7.678571e-01	6.150431e+13	1.121528e+14	4.134682e+13	6.280424e+03	3.341158e+03	2.748438e+03	0	4.201489e-04
1.000000e+09	2.895221e+12	0.000000e+00	7.678571e-01	6.122550e+13	1.119110e+14	4.116148e+13	6.275517e+03	3.339997e+03	2.747484e+03	0	4.192409e-04
1.010000e+09	2.876493e+12	0.000000e+00	7.678571e-01	6.094849e+13	1.116640e+14	4.097739e+13	6.270632e+03	3.338809e+03	2.746506e+03	0	4.183350e-04
1.020000e+09	2.857889e+12	0.000000e+00	7.678571e-01	6.067328e+13	1.114119e+14	4.079455e+13	6.265769e+03	3.337595e+03	2.745508e+03	0	4.174311e-04
1.030000e+09	2.839408e+12	0.000000e+00	7.678571e-01	6.039986e+13	1.111549e+14	4.061295e+13	6.260927e+03	3.336355e+03	2.744488e+03	0	4.165294e-04
1.040000e+09	2.821049e+12	0.000000e+00	7.678571e-01	6.012822e+13	1.108934e+14	4.043257e+13	6.256108e+03	3.335091e+03	2.743448e+03	0	4.156297e-04
1.050000e+09	2.802813e+12	0.000000e+00	7.678571e-01	5.985835e+13	1.106274e+14	4.025341e+13	6.251310e+03	3.333804e+03	2.742389e+03	0	4.147322e-04
1.060000e+09	2.784699e+12	0.000000e+00	7.678571e-01	5.959025e+13	1.103573e+14	4.007546e+13	6.246534e+03	3.332494e+03	2.741311e+03	0	4.138368e-04
1.070000e+09	2.766706e+12	0.000000e+00	7.678571e-01	5.932391e+13	1.100832e+14	3.989871e+13	6.241779e+03	3.331162e+03	2.740215e+03	0	4.129436e-04
1.080000e+09	2.748834e+12	0.000000e+00	7.678571e-01	5.905932e+13	1.098054e+14	3.972315e+13	6.237045e+03	3.329809e+03	2.739103e+03	0	4.120525e-04
1.090000e+09	2.731081e+12	0.000000e+00	7.678571e-01	5.879648e+13	1.095240e+14	3.954877e+13	6.232332e+03	3.328436e+03	2.737973e+03	0	4.111635e-04
1.100000e+09	2.713449e+12	0.000000e+00	7.678571e-01	5.853536e+13	1.092392e+14	3.937556e+13	6.227641e+03	3.327044e+03	2.736828e+03	0	4.102768e-04
1.110000e+09	2.695935e+12	0.000000e+00	7.678571e-01	5.827597e+13	1.089511e+14	3.920351e+13	6.222970e+03	3.325634e+03	2.735668e+03	0	4.093922e-04
1.120000e+09	2.678539e+12	0.000000e+00	7.678571e-01	5.801830e+13	1.086601e+14	3.903262e+13	6.218320e+03	3.324206e+03	2.734494e+03	0	4.085097e-04
1.130000e+09	2.661261e+12	0.000000e+00	7.678571e-01	5.776233e+13	1.083662e+14	3.886286e+13	6.213690e+03	3.322761e+03	2.733305e+03	0	4.076294e-04
1.140000e+09	2.644100e+12	0.000000e+00	7.678571e-01	5.750806e+13	1.080696e+14	3.869425e+13	6.209081e+03	3.321300e+03	2.732103e+03	0	4.067514e-04
1.150000e+09	2.627055e+12	0.000000e+00	7.678571e-01	5.725547e+13	1.077704e+14	3.852676e+13	6.204491e+03	3.319823e+03	2.730888e+03	0	4.058754e-04
1.160000e+09	2.610126e+12	0.000000e+00	7.678571e-01	5.700456e+13	1.074689e+14	3.836038e+13	6.199923e+03	3.318331e+03	2.729661e+03	0	4.050017e-04
1.170000e+09	2.593312e+12	0.000000e+00	7.678571e-01	5.675532e+13	1.071651e+14	3.819512e+13	6.195374e+03	3.316825e+03	2.728422e+03	0	4.041302e-04
1.180000e+09	2.576612e+12	0.000000e+00	7.678571e-01	5.650773e+13	1.068592e+14	3.803095e+13	6.190845e+03	3.315305e+03	2.727172e+03	0	4.032608e-04
1.190000e+09	2.560025e+12	0.000000e+00	7.678571e-01	5.626179e+13	1.065513e+14	3.786787e+13	6.186335e+03	3.313773e+03	2.725911e+03	0	4.023937e-04
1.200000e+09	2.543551e+12	0.000000e+00	7.678571e-01	5.601748e+13	1.062416e+14	3.770588e+13	6.181845e+03	3.312227e+03	2.724640e+03	0	4.015287e-04
1.210000e+09	2.527190e+12	0.000000e+00	7.678571e-01	5.577480e+13	1.059302e+14	3.754496e+13	6.177375e+03	3.310670e+03	2.723359e+03	0	4.006659e-04
1.220000e+09	2.510940e+12	0.000000e+00	7.678571e-01	5.553374e+13	1.056172e+14	3.738511e+13	6.172924e+03	3.309102e+03	2.722069e+03	0	3.998052e-04
1.230000e+09	2.494800e+12	0.000000e+00	7.678571e-01	5.529428e+13	1.053028e+14	3.722632e+13	6.168492e+03	3.307523e+03	2.720770e+03	0	3.989468e-04
1.240000e+09	2.478770e+12	0.000000e+00	7.678571e-01	5.505641e+13	1.049870e+14	3.706857e+13	6.164080e+03	3.305933e+03	2.719462e+03	0	3.980905e-04
1.250000e+09	2.462850e+12	0.000000e+00	7.678571e-01	5.482013e+13	1.046700e+14	3.691187e+13	6.159686e+03	3.304333e+03	2.718146e+03	0	3.972364e-04
1.260000e+09	2.447038e+12	0.000000e+00	7.678571e-01	5.458542e+13	1.043518e+14	3.675620e+13	6.155311e+03	3.302724e+03	2.716823e+03	0	3.963844e-04
1.270000e+09	2.431333e+12	0.000000e+00	7.678571e-01	5.435227e+13	1.040326e+14	3.660155e+13	6.150955e+03	3.301107e+03	2.715492e+03	0	3.955347e-04
1.280000e+09	2.415736e+12	0.000000e+00	7.678571e-01	5.412067e+13	1.037124e+14	3.644793e+13	6.146617e+03	3.299480e+03	2.714154e+03	0	3.946870e-04
1.290000e+09	2.400244e+12	0.000000e+00	7.678571e-01	5.389061e+13	1.033915e+14	3.629531e+13	6.142298e+03	3.297846e+03	2.712810e+03	0	3.938416e-04
1.300000e+09	2.384858e+12	0.000000e+00	7.678571e-01	5.366208e+13	1.030697e+14	3.614369e+13	6.137997e+03	3.296204e+03	2.711459e+03	0	3.929982e-04
1.310000e+09	2.369577e+12	0.000000e+00	7.678571e-01	5.343506e+13	1.027474e+14	3.599307e+13	6.133715e+03	3.294555e+03	2.710103e+03	0	3.921570e-04
1.320000e+09	2.354400e+12	0.000000e+00	7.678571e-01	5.320956e+13	1.024244e+14	3.584343e+13	6.129450e+03	3.292899e+03	2.708741e+03	0	3.913180e-04
1.330000e+09	2.339326e+12	0.000000e+00	7.678571e-01	5.298555e+13	1.021010e+14	3.569478e+13	6.125204e+03	3.291237e+03	2.707373e+03	0	3.904810e-04
1.340000e+09	2.324354e+12	0.000000e+00	7.678571e-01	5.276302e+13	1.017771e+14	3.554709e+13	6.120975e+03	3.289568e+03	2.706001e+03	0	3.896462e-04
1.350000e+09	2.309484e+12	0.000000e+00	7.678571e-01	5.254197e+13	1.014529e+14	3.540037e+13	6.116764e+03	3.287894e+03	2.704624e+03	0	3.888135e-04
1.360000e+09	2.294715e+12	0.000000e+00	7.678571e-01	5.232238e+13	1.011285e+14	3.525460e+13	6.112571e+03	3.286215e+03	2.703242e+03	0	3.879829e-04
