#t		Qconv[W]	Ri[Rp]		R*[Rp]		Qc[W]		Qm[W]		Qr[W]		Tcmb[K]		Tl[K]		Tup[K]		RiFlag		Bs[T]
0.000000e+00	7.481371e+12	0.000000e+00	7.657658e-01	1.358813e+14	5.028577e+13	8.749298e+13	8.131122e+03	3.175319e+03	2.552881e+03	0	5.712915e-04
1.000000e+07	7.482649e+12	0.000000e+00	7.657658e-01	1.358509e+14	5.215654e+13	8.700821e+13	8.123032e+03	3.192272e+03	2.566511e+03	0	5.713240e-04
2.000000e+07	7.482569e+12	0.000000e+00	7.657658e-01	1.358042e+14	5.405289e+13	8.652706e+13	8.114944e+03	3.208988e+03	2.579950e+03	0	5.713220e-04
3.000000e+07	7.481148e+12	0.000000e+00	7.657658e-01	1.357414e+14	5.597313e+13	8.604950e+13	8.106858e+03	3.225465e+03	2.593197e+03	0	5.712858e-04
4.000000e+07	7.478403e+12	0.000000e+00	7.657658e-01	1.356627e+14	5.791550e+13	8.557552e+13	8.098777e+03	3.241697e+03	2.606248e+03	0	5.712159e-04
5.000000e+07	7.474352e+12	0.000000e+00	7.657658e-01	1.355683e+14	5.987818e+13	8.510506e+13	8.090700e+03	3.257683e+03	2.619100e+03	0	5.711128e-04
6.000000e+07	7.469014e+12	0.000000e+00	7.657658e-01	1.354585e+14	6.185932e+13	8.463812e+13	8.082628e+03	3.273419e+03	2.631751e+03	0	5.709768e-04
7.000000e+07	7.462412e+12	0.000000e+00	7.657658e-01	1.353336e+14	6.385700e+13	8.417465e+13	8.074564e+03	3.288902e+03	2.644199e+03	0	5.708085e-04
8.000000e+07	7.454565e+12	0.000000e+00	7.657658e-01	1.351937e+14	6.586925e+13	8.371462e+13	8.066506e+03	3.304129e+03	2.656441e+03	0	5.706084e-04
9.000000e+07	7.445497e+12	0.000000e+00	7.657658e-01	1.350393e+14	6.789408e+13	8.325802e+13	8.058457e+03	3.319099e+03	2.668476e+03	0	5.703769e-04
1.000000e+08	7.435232e+12	0.000000e+00	7.657658e-01	1.348704e+14	6.992948e+13	8.280481e+13	8.050418e+03	3.333808e+03	2.680302e+03	0	5.701146e-04
1.100000e+08	7.423792e+12	0.000000e+00	7.657658e-01	1.346876e+14	7.197341e+13	8.235496e+13	8.042388e+03	3.348254e+03	2.691917e+03	0	5.698221e-04
1.200000e+08	7.411203e+12	0.000000e+00	7.657658e-01	1.344910e+14	7.402379e+13	8.190845e+13	8.034369e+03	3.362437e+03	2.703319e+03	0	5.694998e-04
1.300000e+08	7.397491e+12	0.000000e+00	7.657658e-01	1.342809e+14	7.607858e+13	8.146524e+13	8.026362e+03	3.376354e+03	2.714508e+03	0	5.691484e-04
1.400000e+08	7.382682e+12	0.000000e+00	7.657658e-01	1.340577e+14	7.813571e+13	8.102531e+13	8.018367e+03	3.390004e+03	2.725482e+03	0	5.687683e-04
1.500000e+08	7.366802e+12	0.000000e+00	7.657658e-01	1.338218e+14	8.019310e+13	8.058864e+13	8.010386e+03	3.403385e+03	2.736241e+03	0	5.683602e-04
1.600000e+08	7.349880e+12	0.000000e+00	7.657658e-01	1.335734e+14	8.224871e+13	8.015519e+13	8.002418e+03	3.416498e+03	2.746783e+03	0	5.679247e-04
1.700000e+08	7.331943e+12	0.000000e+00	7.657658e-01	1.333129e+14	8.430052e+13	7.972493e+13	7.994466e+03	3.429341e+03	2.757109e+03	0	5.674623e-04
1.800000e+08	7.313019e+12	0.000000e+00	7.657658e-01	1.330406e+14	8.634648e+13	7.929785e+13	7.986528e+03	3.441914e+03	2.767217e+03	0	5.669737e-04
1.900000e+08	7.293136e+12	0.000000e+00	7.657658e-01	1.327569e+14	8.838464e+13	7.887392e+13	7.978608e+03	3.454217e+03	2.777109e+03	0	5.664594e-04
2.000000e+08	7.272323e+12	0.000000e+00	7.657658e-01	1.324621e+14	9.041302e+13	7.845310e+13	7.970703e+03	3.466250e+03	2.786783e+03	0	5.659201e-04
2.100000e+08	7.250610e+12	0.000000e+00	7.657658e-01	1.321566e+14	9.242975e+13	7.803538e+13	7.962817e+03	3.478013e+03	2.796240e+03	0	5.653563e-04
2.200000e+08	7.228025e+12	0.000000e+00	7.657658e-01	1.318407e+14	9.443294e+13	7.762073e+13	7.954949e+03	3.489506e+03	2.805480e+03	0	5.647686e-04
2.300000e+08	7.204597e+12	0.000000e+00	7.657658e-01	1.315148e+14	9.642077e+13	7.720912e+13	7.947099e+03	3.500731e+03	2.814505e+03	0	5.641578e-04
2.400000e+08	7.180355e+12	0.000000e+00	7.657658e-01	1.311793e+14	9.839150e+13	7.680053e+13	7.939269e+03	3.511688e+03	2.823314e+03	0	5.635243e-04
2.500000e+08	7.155329e+12	0.000000e+00	7.657658e-01	1.308344e+14	1.003434e+14	7.639493e+13	7.931458e+03	3.522379e+03	2.831909e+03	0	5.628689e-04
2.600000e+08	7.129548e+12	0.000000e+00	7.657658e-01	1.304805e+14	1.022748e+14	7.599230e+13	7.923669e+03	3.532804e+03	2.840290e+03	0	5.621920e-04
2.700000e+08	7.103039e+12	0.000000e+00	7.657658e-01	1.301181e+14	1.041842e+14	7.559261e+13	7.915900e+03	3.542965e+03	2.848460e+03	0	5.614944e-04
2.800000e+08	7.075833e+12	0.000000e+00	7.657658e-01	1.297474e+14	1.060701e+14	7.519585e+13	7.908153e+03	3.552864e+03	2.856418e+03	0	5.607766e-04
2.900000e+08	7.047958e+12	0.000000e+00	7.657658e-01	1.293687e+14	1.079310e+14	7.480197e+13	7.900428e+03	3.562503e+03	2.864168e+03	0	5.600392e-04
3.000000e+08	7.019441e+12	0.000000e+00	7.657658e-01	1.289825e+14	1.097655e+14	7.441097e+13	7.892725e+03	3.571883e+03	2.871709e+03	0	5.592829e-04
3.100000e+08	6.990311e+12	0.000000e+00	7.657658e-01	1.285890e+14	1.115723e+14	7.402282e+13	7.885045e+03	3.581008e+03	2.879045e+03	0	5.585082e-04
3.200000e+08	6.960595e+12	0.000000e+00	7.657658e-01	1.281887e+14	1.133503e+14	7.363749e+13	7.877389e+03	3.589879e+03	2.886177e+03	0	5.577156e-04
3.300000e+08	6.930321e+12	0.000000e+00	7.657658e-01	1.277817e+14	1.150983e+14	7.325497e+13	7.869757e+03	3.598498e+03	2.893107e+03	0	5.569059e-04
3.400000e+08	6.899514e+12	0.000000e+00	7.657658e-01	1.273685e+14	1.168152e+14	7.287522e+13	7.862148e+03	3.606869e+03	2.899837e+03	0	5.560795e-04
3.500000e+08	6.868202e+12	0.000000e+00	7.657658e-01	1.269494e+14	1.185000e+14	7.249822e+13	7.854565e+03	3.614994e+03	2.906369e+03	0	5.552370e-04
3.600000e+08	6.836409e+12	0.000000e+00	7.657658e-01	1.265246e+14	1.201519e+14	7.212396e+13	7.847006e+03	3.622877e+03	2.912707e+03	0	5.543789e-04
3.700000e+08	6.804163e+12	0.000000e+00	7.657658e-01	1.260946e+14	1.217699e+14	7.175241e+13	7.839472e+03	3.630519e+03	2.918851e+03	0	5.535059e-04
3.800000e+08	6.771486e+12	0.000000e+00	7.657658e-01	1.256594e+14	1.233533e+14	7.138355e+13	7.831964e+03	3.637925e+03	2.924805e+03	0	5.526184e-04
3.900000e+08	6.738404e+12	0.000000e+00	7.657658e-01	1.252196e+14	1.249015e+14	7.101736e+13	7.824482e+03	3.645097e+03	2.930571e+03	0	5.517170e-04
4.000000e+08	6.704940e+12	0.000000e+00	7.657658e-01	1.247754e+14	1.264139e+14	7.065381e+13	7.817026e+03	3.652039e+03	2.936152e+03	0	5.508022e-04
4.100000e+08	6.671118e+12	0.000000e+00	7.657658e-01	1.243269e+14	1.278898e+14	7.029288e+13	7.809597e+03	3.658754e+03	2.941551e+03	0	5.498745e-04
4.200000e+08	6.636960e+12	0.000000e+00	7.657658e-01	1.238746e+14	1.293289e+14	6.993455e+13	7.802194e+03	3.665245e+03	2.946770e+03	0	5.489344e-04
4.300000e+08	6.602488e+12	0.000000e+00	7.657658e-01	1.234187e+14	1.307308e+14	6.957881e+13	7.794818e+03	3.671517e+03	2.951812e+03	0	5.479823e-04
4.400000e+08	6.567723e+12	0.000000e+00	7.657658e-01	1.229594e+14	1.320951e+14	6.922562e+13	7.787469e+03	3.677572e+03	2.956681e+03	0	5.470189e-04
4.500000e+08	6.532687e+12	0.000000e+00	7.657658e-01	1.224970e+14	1.334216e+14	6.887497e+13	7.780148e+03	3.683415e+03	2.961378e+03	0	5.460444e-04
4.600000e+08	6.497399e+12	0.000000e+00	7.657658e-01	1.220317e+14	1.347100e+14	6.852684e+13	7.772853e+03	3.689048e+03	2.965907e+03	0	5.450594e-04
4.700000e+08	6.461879e+12	0.000000e+00	7.657658e-01	1.215638e+14	1.359603e+14	6.818120e+13	7.765587e+03	3.694477e+03	2.970272e+03	0	5.440644e-04
4.800000e+08	6.426147e+12	0.000000e+00	7.657658e-01	1.210935e+14	1.371724e+14	6.783805e+13	7.758348e+03	3.699704e+03	2.974474e+03	0	5.430597e-04
4.900000e+08	6.390220e+12	0.000000e+00	7.657658e-01	1.206211e+14	1.383462e+14	6.749734e+13	7.751138e+03	3.704733e+03	2.978517e+03	0	5.420458e-04
5.000000e+08	6.354116e+12	0.000000e+00	7.657658e-01	1.201466e+14	1.394819e+14	6.715908e+13	7.743955e+03	3.709568e+03	2.982405e+03	0	5.410230e-04
5.100000e+08	6.317854e+12	0.000000e+00	7.657658e-01	1.196704e+14	1.405795e+14	6.682323e+13	7.736801e+03	3.714213e+03	2.986139e+03	0	5.399919e-04
5.200000e+08	6.281449e+12	0.000000e+00	7.657658e-01	1.191927e+14	1.416391e+14	6.648978e+13	7.729675e+03	3.718672e+03	2.989724e+03	0	5.389527e-04
5.300000e+08	6.244917e+12	0.000000e+00	7.657658e-01	1.187136e+14	1.426609e+14	6.615870e+13	7.722577e+03	3.722948e+03	2.993162e+03	0	5.379058e-04
5.400000e+08	6.208274e+12	0.000000e+00	7.657658e-01	1.182333e+14	1.436452e+14	6.582999e+13	7.715508e+03	3.727046e+03	2.996456e+03	0	5.368517e-04
5.500000e+08	6.171535e+12	0.000000e+00	7.657658e-01	1.177520e+14	1.445922e+14	6.550361e+13	7.708468e+03	3.730969e+03	2.999610e+03	0	5.357906e-04
5.600000e+08	6.134715e+12	0.000000e+00	7.657658e-01	1.172699e+14	1.455024e+14	6.517956e+13	7.701456e+03	3.734720e+03	3.002626e+03	0	5.347229e-04
5.700000e+08	6.097827e+12	0.000000e+00	7.657658e-01	1.167872e+14	1.463759e+14	6.485780e+13	7.694472e+03	3.738305e+03	3.005508e+03	0	5.336490e-04
5.800000e+08	6.060884e+12	0.000000e+00	7.657658e-01	1.163040e+14	1.472132e+14	6.453833e+13	7.687518e+03	3.741725e+03	3.008258e+03	0	5.325692e-04
5.900000e+08	6.023899e+12	0.000000e+00	7.657658e-01	1.158204e+14	1.480147e+14	6.422112e+13	7.680592e+03	3.744986e+03	3.010880e+03	0	5.314837e-04
6.000000e+08	5.986885e+12	0.000000e+00	7.657658e-01	1.153366e+14	1.487808e+14	6.390616e+13	7.673695e+03	3.748091e+03	3.013376e+03	0	5.303929e-04
6.100000e+08	5.949854e+12	0.000000e+00	7.657658e-01	1.148528e+14	1.495121e+14	6.359342e+13	7.666826e+03	3.751043e+03	3.015749e+03	0	5.292970e-04
6.200000e+08	5.912816e+12	0.000000e+00	7.657658e-01	1.143691e+14	1.502090e+14	6.328290e+13	7.659987e+03	3.753847e+03	3.018003e+03	0	5.281964e-04
6.300000e+08	5.875782e+12	0.000000e+00	7.657658e-01	1.138856e+14	1.508720e+14	6.297457e+13	7.653176e+03	3.756505e+03	3.020140e+03	0	5.270914e-04
6.400000e+08	5.838764e+12	0.000000e+00	7.657658e-01	1.134024e+14	1.515017e+14	6.266841e+13	7.646394e+03	3.759021e+03	3.022164e+03	0	5.259821e-04
6.500000e+08	5.801770e+12	0.000000e+00	7.657658e-01	1.129197e+14	1.520986e+14	6.236441e+13	7.639640e+03	3.761399e+03	3.024076e+03	0	5.248689e-04
6.600000e+08	5.764810e+12	0.000000e+00	7.657658e-01	1.124376e+14	1.526633e+14	6.206255e+13	7.632916e+03	3.763643e+03	3.025879e+03	0	5.237520e-04
6.700000e+08	5.727893e+12	0.000000e+00	7.657658e-01	1.119561e+14	1.531964e+14	6.176281e+13	7.626220e+03	3.765755e+03	3.027577e+03	0	5.226316e-04
6.800000e+08	5.691028e+12	0.000000e+00	7.657658e-01	1.114754e+14	1.536984e+14	6.146517e+13	7.619552e+03	3.767739e+03	3.029173e+03	0	5.215080e-04
6.900000e+08	5.654224e+12	0.000000e+00	7.657658e-01	1.109956e+14	1.541700e+14	6.116963e+13	7.612914e+03	3.769599e+03	3.030668e+03	0	5.203813e-04
7.000000e+08	5.617487e+12	0.000000e+00	7.657658e-01	1.105168e+14	1.546118e+14	6.087615e+13	7.606303e+03	3.771337e+03	3.032065e+03	0	5.192518e-04
7.100000e+08	5.580825e+12	0.000000e+00	7.657658e-01	1.100391e+14	1.550244e+14	6.058473e+13	7.599722e+03	3.772957e+03	3.033368e+03	0	5.181198e-04
7.200000e+08	5.544246e+12	0.000000e+00	7.657658e-01	1.095625e+14	1.554085e+14	6.029535e+13	7.593168e+03	3.774462e+03	3.034577e+03	0	5.169853e-04
7.300000e+08	5.507756e+12	0.000000e+00	7.657658e-01	1.090871e+14	1.557646e+14	6.000799e+13	7.586643e+03	3.775855e+03	3.035697e+03	0	5.158486e-04
7.400000e+08	5.471361e+12	0.000000e+00	7.657658e-01	1.086131e+14	1.560934e+14	5.972263e+13	7.580146e+03	3.777139e+03	3.036730e+03	0	5.147099e-04
7.500000e+08	5.435068e+12	0.000000e+00	7.657658e-01	1.081404e+14	1.563956e+14	5.943927e+13	7.573678e+03	3.778317e+03	3.037677e+03	0	5.135693e-04
7.600000e+08	5.398882e+12	0.000000e+00	7.657658e-01	1.076691e+14	1.566717e+14	5.915788e+13	7.567237e+03	3.779392e+03	3.038542e+03	0	5.124270e-04
7.700000e+08	5.362810e+12	0.000000e+00	7.657658e-01	1.071994e+14	1.569225e+14	5.887845e+13	7.560825e+03	3.780368e+03	3.039326e+03	0	5.112832e-04
7.800000e+08	5.326855e+12	0.000000e+00	7.657658e-01	1.067313e+14	1.571485e+14	5.860095e+13	7.554440e+03	3.781245e+03	3.040031e+03	0	5.101380e-04
7.900000e+08	5.291023e+12	0.000000e+00	7.657658e-01	1.062648e+14	1.573503e+14	5.832539e+13	7.548084e+03	3.782029e+03	3.040661e+03	0	5.089915e-04
8.000000e+08	5.255318e+12	0.000000e+00	7.657658e-01	1.058000e+14	1.575287e+14	5.805174e+13	7.541755e+03	3.782720e+03	3.041217e+03	0	5.078441e-04
8.100000e+08	5.219746e+12	0.000000e+00	7.657658e-01	1.053369e+14	1.576842e+14	5.777998e+13	7.535453e+03	3.783323e+03	3.041701e+03	0	5.066956e-04
8.200000e+08	5.184309e+12	0.000000e+00	7.657658e-01	1.048756e+14	1.578174e+14	5.751011e+13	7.529180e+03	3.783838e+03	3.042116e+03	0	5.055464e-04
8.300000e+08	5.149012e+12	0.000000e+00	7.657658e-01	1.044162e+14	1.579290e+14	5.724210e+13	7.522933e+03	3.784270e+03	3.042463e+03	0	5.043964e-04
8.400000e+08	5.113858e+12	0.000000e+00	7.657658e-01	1.039586e+14	1.580195e+14	5.697594e+13	7.516714e+03	3.784620e+03	3.042745e+03	0	5.032459e-04
8.500000e+08	5.078852e+12	0.000000e+00	7.657658e-01	1.035029e+14	1.580896e+14	5.671162e+13	7.510523e+03	3.784891e+03	3.042962e+03	0	5.020950e-04
8.600000e+08	5.043995e+12	0.000000e+00	7.657658e-01	1.030492e+14	1.581398e+14	5.644912e+13	7.504358e+03	3.785085e+03	3.043118e+03	0	5.009437e-04
8.700000e+08	5.009291e+12	0.000000e+00	7.657658e-01	1.025975e+14	1.581707e+14	5.618842e+13	7.498220e+03	3.785205e+03	3.043215e+03	0	4.997921e-04
8.800000e+08	4.974742e+12	0.000000e+00	7.657658e-01	1.021478e+14	1.581829e+14	5.592952e+13	7.492109e+03	3.785252e+03	3.043252e+03	0	4.986405e-04
8.900000e+08	4.940352e+12	0.000000e+00	7.657658e-01	1.017002e+14	1.581770e+14	5.567240e+13	7.486025e+03	3.785229e+03	3.043234e+03	0	4.974888e-04
9.000000e+08	4.906123e+12	0.000000e+00	7.657658e-01	1.012546e+14	1.581535e+14	5.541705e+13	7.479968e+03	3.785138e+03	3.043161e+03	0	4.963372e-04
9.100000e+08	4.872057e+12	0.000000e+00	7.657658e-01	1.008112e+14	1.581130e+14	5.516344e+13	7.473937e+03	3.784982e+03	3.043035e+03	0	4.951857e-04
9.200000e+08	4.838155e+12	0.000000e+00	7.657658e-01	1.003699e+14	1.580559e+14	5.491157e+13	7.467932e+03	3.784761e+03	3.042858e+03	0	4.940345e-04
9.300000e+08	4.804421e+12	0.000000e+00	7.657658e-01	9.993069e+13	1.579829e+14	5.466142e+13	7.461954e+03	3.784479e+03	3.042631e+03	0	4.928836e-04
9.400000e+08	4.770855e+12	0.000000e+00	7.657658e-01	9.949370e+13	1.578944e+14	5.441299e+13	7.456001e+03	3.784136e+03	3.042356e+03	0	4.917331e-04
9.500000e+08	4.737460e+12	0.000000e+00	7.657658e-01	9.905891e+13	1.577909e+14	5.416625e+13	7.450075e+03	3.783736e+03	3.042034e+03	0	4.905830e-04
9.600000e+08	4.704236e+12	0.000000e+00	7.657658e-01	9.862633e+13	1.576730e+14	5.392119e+13	7.444175e+03	3.783279e+03	3.041667e+03	0	4.894335e-04
9.700000e+08	4.671185e+12	0.000000e+00	7.657658e-01	9.819597e+13	1.575411e+14	5.367780e+13	7.438300e+03	3.782768e+03	3.041256e+03	0	4.882846e-04
9.800000e+08	4.638309e+12	0.000000e+00	7.657658e-01	9.776785e+13	1.573957e+14	5.343607e+13	7.432451e+03	3.782205e+03	3.040803e+03	0	4.871364e-04
9.900000e+08	4.605609e+12	0.000000e+00	7.657658e-01	9.734199e+13	1.572373e+14	5.319598e+13	7.426627e+03	3.781590e+03	3.040309e+03	0	4.859889e-04
1.000000e+09	4.573084e+12	0.000000e+00	7.657658e-01	9.691838e+13	1.570662e+14	5.295751e+13	7.420829e+03	3.780926e+03	3.039775e+03	0	4.848422e-04
1.010000e+09	4.540737e+12	0.000000e+00	7.657658e-01	9.649706e+13	1.568831e+14	5.272067e+13	7.415056e+03	3.780214e+03	3.039202e+03	0	4.836964e-04
1.020000e+09	4.508569e+12	0.000000e+00	7.657658e-01	9.607801e+13	1.566882e+14	5.248543e+13	7.409308e+03	3.779457e+03	3.038593e+03	0	4.825514e-04
1.030000e+09	4.476578e+12	0.000000e+00	7.657658e-01	9.566125e+13	1.564821e+14	5.225179e+13	7.403585e+03	3.778654e+03	3.037948e+03	0	4.814074e-04
1.040000e+09	4.444768e+12	0.000000e+00	7.657658e-01	9.524678e+13	1.562650e+14	5.201972e+13	7.397886e+03	3.777808e+03	3.037268e+03	0	4.802644e-04
1.050000e+09	4.413137e+12	0.000000e+00	7.657658e-01	9.483462e+13	1.560375e+14	5.178922e+13	7.392213e+03	3.776921e+03	3.036554e+03	0	4.791224e-04
1.060000e+09	4.381686e+12	0.000000e+00	7.657658e-01	9.442476e+13	1.557999e+14	5.156027e+13	7.386564e+03	3.775993e+03	3.035808e+03	0	4.779815e-04
1.070000e+09	4.350415e+12	0.000000e+00	7.657658e-01	9.401721e+13	1.555526e+14	5.133287e+13	7.380939e+03	3.775026e+03	3.035031e+03	0	4.768417e-04
1.080000e+09	4.319326e+12	0.000000e+00	7.657658e-01	9.361196e+13	1.552960e+14	5.110699e+13	7.375338e+03	3.774021e+03	3.034223e+03	0	4.757031e-04
1.090000e+09	4.288417e+12	0.000000e+00	7.657658e-01	9.320903e+13	1.550304e+14	5.088264e+13	7.369762e+03	3.772980e+03	3.033386e+03	0	4.745657e-04
1.100000e+09	4.257689e+12	0.000000e+00	7.657658e-01	9.280840e+13	1.547562e+14	5.065979e+13	7.364209e+03	3.771904e+03	3.032521e+03	0	4.734295e-04
1.110000e+09	4.227143e+12	0.000000e+00	7.657658e-01	9.241009e+13	1.544737e+14	5.043844e+13	7.358681e+03	3.770794e+03	3.031629e+03	0	4.722946e-04
1.120000e+09	4.196777e+12	0.000000e+00	7.657658e-01	9.201408e+13	1.541833e+14	5.021857e+13	7.353176e+03	3.769651e+03	3.030710e+03	0	4.711610e-04
1.130000e+09	4.166592e+12	0.000000e+00	7.657658e-01	9.162038e+13	1.538853e+14	5.000017e+13	7.347694e+03	3.768477e+03	3.029766e+03	0	4.700287e-04
1.140000e+09	4.136588e+12	0.000000e+00	7.657658e-01	9.122898e+13	1.535800e+14	4.978323e+13	7.342236e+03	3.767271e+03	3.028797e+03	0	4.688977e-04
1.150000e+09	4.106764e+12	0.000000e+00	7.657658e-01	9.083988e+13	1.532676e+14	4.956774e+13	7.336802e+03	3.766037e+03	3.027804e+03	0	4.677681e-04
1.160000e+09	4.077120e+12	0.000000e+00	7.657658e-01	9.045308e+13	1.529486e+14	4.935368e+13	7.331390e+03	3.764774e+03	3.026789e+03	0	4.666399e-04
1.170000e+09	4.047657e+12	0.000000e+00	7.657658e-01	9.006857e+13	1.526232e+14	4.914105e+13	7.326002e+03	3.763484e+03	3.025751e+03	0	4.655131e-04
1.180000e+09	4.018373e+12	0.000000e+00	7.657658e-01	8.968635e+13	1.522916e+14	4.892984e+13	7.320636e+03	3.762167e+03	3.024693e+03	0	4.643878e-04
1.190000e+09	3.989267e+12	0.000000e+00	7.657658e-01	8.930641e+13	1.519542e+14	4.872003e+13	7.315293e+03	3.760825e+03	3.023613e+03	0	4.632638e-04
1.200000e+09	3.960341e+12	0.000000e+00	7.657658e-01	8.892874e+13	1.516112e+14	4.851161e+13	7.309973e+03	3.759458e+03	3.022515e+03	0	4.621414e-04
1.210000e+09	3.931593e+12	0.000000e+00	7.657658e-01	8.855334e+13	1.512628e+14	4.830458e+13	7.304675e+03	3.758067e+03	3.021397e+03	0	4.610205e-04
1.220000e+09	3.903022e+12	0.000000e+00	7.657658e-01	8.818020e+13	1.509094e+14	4.809892e+13	7.299399e+03	3.756654e+03	3.020261e+03	0	4.599010e-04
1.230000e+09	3.874628e+12	0.000000e+00	7.657658e-01	8.780932e+13	1.505511e+14	4.789462e+13	7.294146e+03	3.755219e+03	3.019107e+03	0	4.587831e-04
1.240000e+09	3.846411e+12	0.000000e+00	7.657658e-01	8.744067e+13	1.501881e+14	4.769167e+13	7.288915e+03	3.753763e+03	3.017936e+03	0	4.576666e-04
1.250000e+09	3.818370e+12	0.000000e+00	7.657658e-01	8.707427e+13	1.498208e+14	4.749005e+13	7.283705e+03	3.752286e+03	3.016749e+03	0	4.565518e-04
1.260000e+09	3.790504e+12	0.000000e+00	7.657658e-01	8.671009e+13	1.494494e+14	4.728977e+13	7.278518e+03	3.750790e+03	3.015546e+03	0	4.554384e-04
1.270000e+09	3.762812e+12	0.000000e+00	7.657658e-01	8.634813e+13	1.490739e+14	4.709081e+13	7.273352e+03	3.749276e+03	3.014328e+03	0	4.543266e-04
1.280000e+09	3.735294e+12	0.000000e+00	7.657658e-01	8.598839e+13	1.486948e+14	4.689315e+13	7.268208e+03	3.747743e+03	3.013096e+03	0	4.532164e-04
1.290000e+09	3.707949e+12	0.000000e+00	7.657658e-01	8.563084e+13	1.483120e+14	4.669680e+13	7.263085e+03	3.746193e+03	3.011850e+03	0	4.521077e-04
1.300000e+09	3.680776e+12	0.000000e+00	7.657658e-01	8.527548e+13	1.479259e+14	4.650173e+13	7.257983e+03	3.744626e+03	3.010590e+03	0	4.510006e-04
1.310000e+09	3.653775e+12	0.000000e+00	7.657658e-01	8.492230e+13	1.475367e+14	4.630795e+13	7.252902e+03	3.743043e+03	3.009317e+03	0	4.498951e-04
1.320000e+09	3.626945e+12	0.000000e+00	7.657658e-01	8.457129e+13	1.471444e+14	4.611543e+13	7.247843e+03	3.741445e+03	3.008033e+03	0	4.487912e-04
1.330000e+09	3.600284e+12	0.000000e+00	7.657658e-01	8.422244e+13	1.467493e+14	4.592417e+13	7.242804e+03	3.739832e+03	3.006736e+03	0	4.476888e-04
1.340000e+09	3.573792e+12	0.000000e+00	7.657658e-01	8.387574e+13	1.463516e+14	4.573416e+13	7.237786e+03	3.738205e+03	3.005428e+03	0	4.465881e-04
1.350000e+09	3.547469e+12	0.000000e+00	7.657658e-01	8.353118e+13	1.459513e+14	4.554539e+13	7.232789e+03	3.736565e+03	3.004109e+03	0	4.454889e-04
1.360000e+09	3.521312e+12	0.000000e+00	7.657658e-01	8.318874e+13	1.455488e+14	4.535785e+13	7.227812e+03	3.734911e+03	3.002780e+03	0	4.443913e-04
