#t		Qconv[W]	Ri[Rp]		R*[Rp]		Qc[W]		Qm[W]		Qr[W]		Tcmb[K]		Tl[K]		Tup[K]		RiFlag		Bs[T]
0.000000e+00	5.691881e+14	0.000000e+00	7.657657e-01	6.104519e+15	4.879078e+13	1.106356e+14	1.978787e+04	4.069720e+03	2.639426e+03	0	2.384577e-03
1.000000e+07	5.591363e+14	0.000000e+00	7.657657e-01	5.997572e+15	1.108645e+14	1.100226e+14	1.952814e+04	4.593142e+03	2.978893e+03	0	2.370456e-03
2.000000e+07	5.460864e+14	0.000000e+00	7.657657e-01	5.859508e+15	2.154680e+14	1.094142e+14	1.927286e+04	5.100372e+03	3.307858e+03	0	2.351869e-03
3.000000e+07	5.304083e+14	0.000000e+00	7.657657e-01	5.694185e+15	3.713844e+14	1.088103e+14	1.902335e+04	5.584729e+03	3.621989e+03	0	2.329143e-03
4.000000e+07	5.125982e+14	0.000000e+00	7.657657e-01	5.506772e+15	5.815574e+14	1.082110e+14	1.878078e+04	6.039343e+03	3.916830e+03	0	2.302776e-03
5.000000e+07	4.932498e+14	0.000000e+00	7.657657e-01	5.303446e+15	8.415675e+14	1.076161e+14	1.854609e+04	6.457844e+03	4.188250e+03	0	2.273430e-03
6.000000e+07	4.730013e+14	0.000000e+00	7.657657e-01	5.090848e+15	1.139893e+15	1.070256e+14	1.831996e+04	6.835073e+03	4.432903e+03	0	2.241886e-03
7.000000e+07	4.524716e+14	0.000000e+00	7.657657e-01	4.875413e+15	1.459940e+15	1.064395e+14	1.810280e+04	7.167654e+03	4.648599e+03	0	2.208970e-03
8.000000e+07	4.322016e+14	0.000000e+00	7.657657e-01	4.662763e+15	1.783158e+15	1.058578e+14	1.789473e+04	7.454277e+03	4.834489e+03	0	2.175479e-03
9.000000e+07	4.126138e+14	0.000000e+00	7.657657e-01	4.457291e+15	2.092218e+15	1.052805e+14	1.769564e+04	7.695662e+03	4.991040e+03	0	2.142104e-03
1.000000e+08	3.939987e+14	0.000000e+00	7.657657e-01	4.262009e+15	2.373370e+15	1.047074e+14	1.750524e+04	7.894241e+03	5.119828e+03	0	2.109394e-03
1.100000e+08	3.765220e+14	0.000000e+00	7.657657e-01	4.078638e+15	2.617558e+15	1.041385e+14	1.732311e+04	8.053676e+03	5.223230e+03	0	2.077732e-03
1.200000e+08	3.602474e+14	0.000000e+00	7.657657e-01	3.907834e+15	2.820400e+15	1.035739e+14	1.714874e+04	8.178349e+03	5.304087e+03	0	2.047354e-03
1.300000e+08	3.451638e+14	0.000000e+00	7.657657e-01	3.749477e+15	2.981395e+15	1.030135e+14	1.698160e+04	8.272899e+03	5.365408e+03	0	2.018371e-03
1.400000e+08	3.312123e+14	0.000000e+00	7.657657e-01	3.602949e+15	3.102822e+15	1.024572e+14	1.682118e+04	8.341873e+03	5.410141e+03	0	1.990802e-03
1.500000e+08	3.183074e+14	0.000000e+00	7.657657e-01	3.467359e+15	3.188643e+15	1.019050e+14	1.666696e+04	8.389491e+03	5.441024e+03	0	1.964604e-03
1.600000e+08	3.063530e+14	0.000000e+00	7.657657e-01	3.341701e+15	3.243614e+15	1.013569e+14	1.651850e+04	8.419524e+03	5.460502e+03	0	1.939695e-03
1.700000e+08	2.952523e+14	0.000000e+00	7.657657e-01	3.224967e+15	3.272640e+15	1.008128e+14	1.637537e+04	8.435238e+03	5.470694e+03	0	1.915978e-03
1.800000e+08	2.849141e+14	0.000000e+00	7.657657e-01	3.116204e+15	3.280371e+15	1.002728e+14	1.623720e+04	8.439408e+03	5.473398e+03	0	1.893349e-03
1.900000e+08	2.752556e+14	0.000000e+00	7.657657e-01	3.014549e+15	3.270988e+15	9.973673e+13	1.610364e+04	8.434347e+03	5.470116e+03	0	1.871708e-03
2.000000e+08	2.662033e+14	0.000000e+00	7.657657e-01	2.919236e+15	3.248107e+15	9.920460e+13	1.597440e+04	8.421963e+03	5.462084e+03	0	1.850961e-03
2.100000e+08	2.576933e+14	0.000000e+00	7.657657e-01	2.829598e+15	3.214779e+15	9.867639e+13	1.584921e+04	8.403815e+03	5.450314e+03	0	1.831023e-03
2.200000e+08	2.496702e+14	0.000000e+00	7.657657e-01	2.745055e+15	3.173524e+15	9.815206e+13	1.572783e+04	8.381168e+03	5.435627e+03	0	1.811819e-03
2.300000e+08	2.420862e+14	0.000000e+00	7.657657e-01	2.665111e+15	3.126396e+15	9.763158e+13	1.561004e+04	8.355043e+03	5.418683e+03	0	1.793285e-03
2.400000e+08	2.349002e+14	0.000000e+00	7.657657e-01	2.589337e+15	3.075039e+15	9.711491e+13	1.549565e+04	8.326260e+03	5.400016e+03	0	1.775363e-03
2.500000e+08	2.280769e+14	0.000000e+00	7.657657e-01	2.517361e+15	3.020773e+15	9.660203e+13	1.538449e+04	8.295478e+03	5.380052e+03	0	1.758004e-03
2.600000e+08	2.215854e+14	0.000000e+00	7.657657e-01	2.448864e+15	2.964634e+15	9.609290e+13	1.527639e+04	8.263224e+03	5.359133e+03	0	1.741164e-03
2.700000e+08	2.153991e+14	0.000000e+00	7.657657e-01	2.383566e+15	2.907434e+15	9.558749e+13	1.517121e+04	8.229919e+03	5.337533e+03	0	1.724808e-03
2.800000e+08	2.094945e+14	0.000000e+00	7.657657e-01	2.321223e+15	2.849810e+15	9.508577e+13	1.506881e+04	8.195898e+03	5.315469e+03	0	1.708901e-03
2.900000e+08	2.038512e+14	0.000000e+00	7.657657e-01	2.261620e+15	2.792246e+15	9.458772e+13	1.496906e+04	8.161428e+03	5.293113e+03	0	1.693416e-03
3.000000e+08	1.984508e+14	0.000000e+00	7.657657e-01	2.204566e+15	2.735116e+15	9.409329e+13	1.487186e+04	8.126723e+03	5.270605e+03	0	1.678329e-03
3.100000e+08	1.932772e+14	0.000000e+00	7.657657e-01	2.149893e+15	2.678703e+15	9.360247e+13	1.477708e+04	8.091950e+03	5.248053e+03	0	1.663615e-03
3.200000e+08	1.883158e+14	0.000000e+00	7.657657e-01	2.097446e+15	2.623215e+15	9.311522e+13	1.468464e+04	8.057242e+03	5.225544e+03	0	1.649257e-03
3.300000e+08	1.835534e+14	0.000000e+00	7.657657e-01	2.047091e+15	2.568804e+15	9.263151e+13	1.459443e+04	8.022705e+03	5.203144e+03	0	1.635235e-03
3.400000e+08	1.789783e+14	0.000000e+00	7.657657e-01	1.998702e+15	2.515581e+15	9.215132e+13	1.450638e+04	7.988420e+03	5.180909e+03	0	1.621534e-03
3.500000e+08	1.745797e+14	0.000000e+00	7.657657e-01	1.952166e+15	2.463615e+15	9.167461e+13	1.442038e+04	7.954450e+03	5.158878e+03	0	1.608140e-03
3.600000e+08	1.703475e+14	0.000000e+00	7.657657e-01	1.907379e+15	2.412955e+15	9.120135e+13	1.433638e+04	7.920846e+03	5.137083e+03	0	1.595039e-03
3.700000e+08	1.662729e+14	0.000000e+00	7.657657e-01	1.864248e+15	2.363624e+15	9.073153e+13	1.425428e+04	7.887643e+03	5.115550e+03	0	1.582219e-03
3.800000e+08	1.623474e+14	0.000000e+00	7.657657e-01	1.822684e+15	2.315633e+15	9.026510e+13	1.417403e+04	7.854870e+03	5.094294e+03	0	1.569668e-03
3.900000e+08	1.585632e+14	0.000000e+00	7.657657e-01	1.782607e+15	2.268976e+15	8.980204e+13	1.409556e+04	7.822547e+03	5.073331e+03	0	1.557376e-03
4.000000e+08	1.549133e+14	0.000000e+00	7.657657e-01	1.743941e+15	2.223641e+15	8.934233e+13	1.401880e+04	7.790687e+03	5.052668e+03	0	1.545334e-03
4.100000e+08	1.513910e+14	0.000000e+00	7.657657e-01	1.706617e+15	2.179605e+15	8.888593e+13	1.394369e+04	7.759299e+03	5.032312e+03	0	1.533532e-03
4.200000e+08	1.479901e+14	0.000000e+00	7.657657e-01	1.670570e+15	2.136844e+15	8.843282e+13	1.387017e+04	7.728389e+03	5.012265e+03	0	1.521961e-03
4.300000e+08	1.447048e+14	0.000000e+00	7.657657e-01	1.635739e+15	2.095327e+15	8.798298e+13	1.379820e+04	7.697958e+03	4.992529e+03	0	1.510615e-03
4.400000e+08	1.415297e+14	0.000000e+00	7.657657e-01	1.602067e+15	2.055022e+15	8.753637e+13	1.372772e+04	7.668006e+03	4.973103e+03	0	1.499484e-03
4.500000e+08	1.384597e+14	0.000000e+00	7.657657e-01	1.569501e+15	2.015895e+15	8.709297e+13	1.365868e+04	7.638530e+03	4.953986e+03	0	1.488563e-03
4.600000e+08	1.354900e+14	0.000000e+00	7.657657e-01	1.537992e+15	1.977912e+15	8.665276e+13	1.359103e+04	7.609525e+03	4.935175e+03	0	1.477844e-03
4.700000e+08	1.326162e+14	0.000000e+00	7.657657e-01	1.507492e+15	1.941035e+15	8.621570e+13	1.352473e+04	7.580986e+03	4.916667e+03	0	1.467320e-03
4.800000e+08	1.298341e+14	0.000000e+00	7.657657e-01	1.477956e+15	1.905229e+15	8.578177e+13	1.345973e+04	7.552907e+03	4.898456e+03	0	1.456987e-03
4.900000e+08	1.271396e+14	0.000000e+00	7.657657e-01	1.449344e+15	1.870459e+15	8.535095e+13	1.339601e+04	7.525281e+03	4.880539e+03	0	1.446837e-03
5.000000e+08	1.245290e+14	0.000000e+00	7.657657e-01	1.421616e+15	1.836688e+15	8.492321e+13	1.333350e+04	7.498099e+03	4.862910e+03	0	1.436866e-03
5.100000e+08	1.219988e+14	0.000000e+00	7.657657e-01	1.394734e+15	1.803884e+15	8.449853e+13	1.327219e+04	7.471354e+03	4.845564e+03	0	1.427067e-03
5.200000e+08	1.195456e+14	0.000000e+00	7.657657e-01	1.368663e+15	1.772013e+15	8.407688e+13	1.321202e+04	7.445036e+03	4.828496e+03	0	1.417437e-03
5.300000e+08	1.171662e+14	0.000000e+00	7.657657e-01	1.343371e+15	1.741041e+15	8.365823e+13	1.315298e+04	7.419138e+03	4.811700e+03	0	1.407970e-03
5.400000e+08	1.148576e+14	0.000000e+00	7.657657e-01	1.318825e+15	1.710936e+15	8.324257e+13	1.309502e+04	7.393651e+03	4.795170e+03	0	1.398662e-03
5.500000e+08	1.126171e+14	0.000000e+00	7.657657e-01	1.294995e+15	1.681669e+15	8.282986e+13	1.303811e+04	7.368566e+03	4.778901e+03	0	1.389507e-03
5.600000e+08	1.104418e+14	0.000000e+00	7.657657e-01	1.271854e+15	1.653210e+15	8.242009e+13	1.298222e+04	7.343874e+03	4.762887e+03	0	1.380502e-03
5.700000e+08	1.083292e+14	0.000000e+00	7.657657e-01	1.249374e+15	1.625530e+15	8.201323e+13	1.292732e+04	7.319567e+03	4.747123e+03	0	1.371643e-03
5.800000e+08	1.062769e+14	0.000000e+00	7.657657e-01	1.227529e+15	1.598600e+15	8.160925e+13	1.287339e+04	7.295636e+03	4.731602e+03	0	1.362926e-03
5.900000e+08	1.042825e+14	0.000000e+00	7.657657e-01	1.206296e+15	1.572396e+15	8.120814e+13	1.282040e+04	7.272072e+03	4.716320e+03	0	1.354347e-03
6.000000e+08	1.023439e+14	0.000000e+00	7.657657e-01	1.185650e+15	1.546891e+15	8.080987e+13	1.276832e+04	7.248868e+03	4.701270e+03	0	1.345902e-03
6.100000e+08	1.004589e+14	0.000000e+00	7.657657e-01	1.165571e+15	1.522061e+15	8.041442e+13	1.271712e+04	7.226014e+03	4.686449e+03	0	1.337587e-03
6.200000e+08	9.862549e+13	0.000000e+00	7.657657e-01	1.146036e+15	1.497882e+15	8.002175e+13	1.266678e+04	7.203504e+03	4.671850e+03	0	1.329400e-03
6.300000e+08	9.684184e+13	0.000000e+00	7.657657e-01	1.127026e+15	1.474332e+15	7.963187e+13	1.261729e+04	7.181329e+03	4.657468e+03	0	1.321337e-03
6.400000e+08	9.510611e+13	0.000000e+00	7.657657e-01	1.108522e+15	1.451388e+15	7.924473e+13	1.256861e+04	7.159481e+03	4.643299e+03	0	1.313395e-03
6.500000e+08	9.341654e+13	0.000000e+00	7.657657e-01	1.090505e+15	1.429031e+15	7.886031e+13	1.252072e+04	7.137954e+03	4.629337e+03	0	1.305571e-03
6.600000e+08	9.177149e+13	0.000000e+00	7.657657e-01	1.072958e+15	1.407239e+15	7.847861e+13	1.247361e+04	7.116739e+03	4.615578e+03	0	1.297862e-03
6.700000e+08	9.016937e+13	0.000000e+00	7.657657e-01	1.055865e+15	1.385994e+15	7.809958e+13	1.242726e+04	7.095830e+03	4.602017e+03	0	1.290265e-03
6.800000e+08	8.860867e+13	0.000000e+00	7.657657e-01	1.039209e+15	1.365278e+15	7.772322e+13	1.238163e+04	7.075220e+03	4.588651e+03	0	1.282778e-03
6.900000e+08	8.708795e+13	0.000000e+00	7.657657e-01	1.022975e+15	1.345072e+15	7.734950e+13	1.233672e+04	7.054902e+03	4.575473e+03	0	1.275397e-03
7.000000e+08	8.560583e+13	0.000000e+00	7.657657e-01	1.007150e+15	1.325360e+15	7.697840e+13	1.229252e+04	7.034869e+03	4.562481e+03	0	1.268120e-03
7.100000e+08	8.416098e+13	0.000000e+00	7.657657e-01	9.917177e+14	1.306126e+15	7.660990e+13	1.224899e+04	7.015115e+03	4.549670e+03	0	1.260945e-03
7.200000e+08	8.275215e+13	0.000000e+00	7.657657e-01	9.766664e+14	1.287353e+15	7.624397e+13	1.220612e+04	6.995634e+03	4.537035e+03	0	1.253870e-03
7.300000e+08	8.137811e+13	0.000000e+00	7.657657e-01	9.619829e+14	1.269026e+15	7.588060e+13	1.216390e+04	6.976420e+03	4.524574e+03	0	1.246891e-03
7.400000e+08	8.003771e+13	0.000000e+00	7.657657e-01	9.476551e+14	1.251132e+15	7.551977e+13	1.212231e+04	6.957467e+03	4.512282e+03	0	1.240007e-03
7.500000e+08	7.872984e+13	0.000000e+00	7.657657e-01	9.336712e+14	1.233657e+15	7.516145e+13	1.208134e+04	6.938769e+03	4.500155e+03	0	1.233216e-03
7.600000e+08	7.745343e+13	0.000000e+00	7.657657e-01	9.200200e+14	1.216586e+15	7.480563e+13	1.204097e+04	6.920321e+03	4.488190e+03	0	1.226515e-03
7.700000e+08	7.620746e+13	0.000000e+00	7.657657e-01	9.066908e+14	1.199908e+15	7.445228e+13	1.200119e+04	6.902117e+03	4.476384e+03	0	1.219903e-03
7.800000e+08	7.499095e+13	0.000000e+00	7.657657e-01	8.936733e+14	1.183610e+15	7.410139e+13	1.196198e+04	6.884152e+03	4.464733e+03	0	1.213377e-03
7.900000e+08	7.380296e+13	0.000000e+00	7.657657e-01	8.809575e+14	1.167680e+15	7.375294e+13	1.192333e+04	6.866421e+03	4.453233e+03	0	1.206935e-03
8.000000e+08	7.264259e+13	0.000000e+00	7.657657e-01	8.685339e+14	1.152107e+15	7.340691e+13	1.188523e+04	6.848919e+03	4.441882e+03	0	1.200576e-03
8.100000e+08	7.150897e+13	0.000000e+00	7.657657e-01	8.563935e+14	1.136880e+15	7.306327e+13	1.184766e+04	6.831641e+03	4.430677e+03	0	1.194298e-03
8.200000e+08	7.040126e+13	0.000000e+00	7.657657e-01	8.445274e+14	1.121988e+15	7.272201e+13	1.181062e+04	6.814582e+03	4.419613e+03	0	1.188100e-03
8.300000e+08	6.931867e+13	0.000000e+00	7.657657e-01	8.329272e+14	1.107421e+15	7.238311e+13	1.177408e+04	6.797738e+03	4.408689e+03	0	1.181978e-03
8.400000e+08	6.826043e+13	0.000000e+00	7.657657e-01	8.215848e+14	1.093170e+15	7.204655e+13	1.173805e+04	6.781105e+03	4.397902e+03	0	1.175932e-03
8.500000e+08	6.722579e+13	0.000000e+00	7.657657e-01	8.104924e+14	1.079226e+15	7.171231e+13	1.170250e+04	6.764678e+03	4.387248e+03	0	1.169961e-03
8.600000e+08	6.621405e+13	0.000000e+00	7.657657e-01	7.996425e+14	1.065578e+15	7.138038e+13	1.166743e+04	6.748453e+03	4.376725e+03	0	1.164062e-03
8.700000e+08	6.522452e+13	0.000000e+00	7.657657e-01	7.890279e+14	1.052219e+15	7.105073e+13	1.163283e+04	6.732425e+03	4.366330e+03	0	1.158234e-03
8.800000e+08	6.425654e+13	0.000000e+00	7.657657e-01	7.786417e+14	1.039139e+15	7.072335e+13	1.159869e+04	6.716592e+03	4.356061e+03	0	1.152476e-03
8.900000e+08	6.330948e+13	0.000000e+00	7.657657e-01	7.684770e+14	1.026332e+15	7.039822e+13	1.156499e+04	6.700948e+03	4.345916e+03	0	1.146786e-03
9.000000e+08	6.238271e+13	0.000000e+00	7.657657e-01	7.585276e+14	1.013789e+15	7.007531e+13	1.153173e+04	6.685491e+03	4.335891e+03	0	1.141162e-03
9.100000e+08	6.147567e+13	0.000000e+00	7.657657e-01	7.487872e+14	1.001503e+15	6.975463e+13	1.149890e+04	6.670216e+03	4.325984e+03	0	1.135605e-03
9.200000e+08	6.058777e+13	0.000000e+00	7.657657e-01	7.392498e+14	9.894667e+14	6.943614e+13	1.146649e+04	6.655120e+03	4.316194e+03	0	1.130111e-03
9.300000e+08	5.971848e+13	0.000000e+00	7.657657e-01	7.299097e+14	9.776724e+14	6.911983e+13	1.143449e+04	6.640200e+03	4.306517e+03	0	1.124680e-03
9.400000e+08	5.886726e+13	0.000000e+00	7.657657e-01	7.207612e+14	9.661141e+14	6.880568e+13	1.140289e+04	6.625452e+03	4.296953e+03	0	1.119311e-03
9.500000e+08	5.803360e+13	0.000000e+00	7.657657e-01	7.117991e+14	9.547849e+14	6.849367e+13	1.137169e+04	6.610873e+03	4.287497e+03	0	1.114002e-03
9.600000e+08	5.721702e+13	0.000000e+00	7.657657e-01	7.030181e+14	9.436790e+14	6.818379e+13	1.134087e+04	6.596459e+03	4.278149e+03	0	1.108752e-03
9.700000e+08	5.641704e+13	0.000000e+00	7.657657e-01	6.944132e+14	9.327897e+14	6.787602e+13	1.131043e+04	6.582208e+03	4.268907e+03	0	1.103560e-03
9.800000e+08	5.563321e+13	0.000000e+00	7.657657e-01	6.859797e+14	9.221117e+14	6.757035e+13	1.128036e+04	6.568117e+03	4.259768e+03	0	1.098426e-03
9.900000e+08	5.486508e+13	0.000000e+00	7.657657e-01	6.777128e+14	9.116393e+14	6.726675e+13	1.125066e+04	6.554182e+03	4.250730e+03	0	1.093347e-03
1.000000e+09	5.411222e+13	0.000000e+00	7.657657e-01	6.696082e+14	9.013666e+14	6.696522e+13	1.122131e+04	6.540400e+03	4.241792e+03	0	1.088323e-03
1.010000e+09	5.337423e+13	0.000000e+00	7.657657e-01	6.616613e+14	8.912887e+14	6.666573e+13	1.119231e+04	6.526770e+03	4.232952e+03	0	1.083353e-03
1.020000e+09	5.265071e+13	0.000000e+00	7.657657e-01	6.538681e+14	8.814003e+14	6.636827e+13	1.116366e+04	6.513287e+03	4.224208e+03	0	1.078435e-03
1.030000e+09	5.194127e+13	0.000000e+00	7.657657e-01	6.462245e+14	8.716969e+14	6.607282e+13	1.113534e+04	6.499950e+03	4.215558e+03	0	1.073570e-03
1.040000e+09	5.124555e+13	0.000000e+00	7.657657e-01	6.387265e+14	8.621731e+14	6.577937e+13	1.110735e+04	6.486756e+03	4.207001e+03	0	1.068755e-03
1.050000e+09	5.056317e+13	0.000000e+00	7.657657e-01	6.313704e+14	8.528247e+14	6.548790e+13	1.107968e+04	6.473701e+03	4.198534e+03	0	1.063990e-03
1.060000e+09	4.989380e+13	0.000000e+00	7.657657e-01	6.241525e+14	8.436473e+14	6.519839e+13	1.105233e+04	6.460785e+03	4.190157e+03	0	1.059274e-03
1.070000e+09	4.923710e+13	0.000000e+00	7.657657e-01	6.170692e+14	8.346362e+14	6.491084e+13	1.102530e+04	6.448004e+03	4.181868e+03	0	1.054606e-03
1.080000e+09	4.859275e+13	0.000000e+00	7.657657e-01	6.101171e+14	8.257874e+14	6.462522e+13	1.099856e+04	6.435355e+03	4.173665e+03	0	1.049985e-03
1.090000e+09	4.796042e+13	0.000000e+00	7.657657e-01	6.032929e+14	8.170970e+14	6.434152e+13	1.097213e+04	6.422838e+03	4.165547e+03	0	1.045411e-03
1.100000e+09	4.733982e+13	0.000000e+00	7.657657e-01	5.965934e+14	8.085608e+14	6.405973e+13	1.094599e+04	6.410448e+03	4.157511e+03	0	1.040882e-03
1.110000e+09	4.673065e+13	0.000000e+00	7.657657e-01	5.900155e+14	8.001753e+14	6.377982e+13	1.092015e+04	6.398185e+03	4.149558e+03	0	1.036398e-03
1.120000e+09	4.613263e+13	0.000000e+00	7.657657e-01	5.835560e+14	7.919366e+14	6.350179e+13	1.089458e+04	6.386046e+03	4.141685e+03	0	1.031958e-03
1.130000e+09	4.554547e+13	0.000000e+00	7.657657e-01	5.772122e+14	7.838414e+14	6.322563e+13	1.086930e+04	6.374029e+03	4.133891e+03	0	1.027561e-03
1.140000e+09	4.496891e+13	0.000000e+00	7.657657e-01	5.709812e+14	7.758857e+14	6.295130e+13	1.084428e+04	6.362131e+03	4.126175e+03	0	1.023207e-03
1.150000e+09	4.440270e+13	0.000000e+00	7.657657e-01	5.648602e+14	7.680667e+14	6.267881e+13	1.081954e+04	6.350352e+03	4.118536e+03	0	1.018894e-03
1.160000e+09	4.384657e+13	0.000000e+00	7.657657e-01	5.588466e+14	7.603809e+14	6.240814e+13	1.079506e+04	6.338688e+03	4.110971e+03	0	1.014623e-03
1.170000e+09	4.330028e+13	0.000000e+00	7.657657e-01	5.529377e+14	7.528250e+14	6.213927e+13	1.077084e+04	6.327138e+03	4.103480e+03	0	1.010391e-03
1.180000e+09	4.276361e+13	0.000000e+00	7.657657e-01	5.471312e+14	7.453965e+14	6.187219e+13	1.074688e+04	6.315700e+03	4.096062e+03	0	1.006200e-03
1.190000e+09	4.223631e+13	0.000000e+00	7.657657e-01	5.414245e+14	7.380918e+14	6.160688e+13	1.072317e+04	6.304373e+03	4.088716e+03	0	1.002047e-03
1.200000e+09	4.171817e+13	0.000000e+00	7.657657e-01	5.358154e+14	7.309083e+14	6.134334e+13	1.069970e+04	6.293154e+03	4.081440e+03	0	9.979324e-04
1.210000e+09	4.120897e+13	0.000000e+00	7.657657e-01	5.303015e+14	7.238432e+14	6.108154e+13	1.067647e+04	6.282042e+03	4.074233e+03	0	9.938556e-04
1.220000e+09	4.070850e+13	0.000000e+00	7.657657e-01	5.248806e+14	7.168938e+14	6.082148e+13	1.065349e+04	6.271034e+03	4.067094e+03	0	9.898158e-04
1.230000e+09	4.021656e+13	0.000000e+00	7.657657e-01	5.195505e+14	7.100576e+14	6.056314e+13	1.063073e+04	6.260131e+03	4.060022e+03	0	9.858125e-04
1.240000e+09	3.973295e+13	0.000000e+00	7.657657e-01	5.143092e+14	7.033317e+14	6.030651e+13	1.060821e+04	6.249328e+03	4.053017e+03	0	9.818451e-04
1.250000e+09	3.925748e+13	0.000000e+00	7.657657e-01	5.091547e+14	6.967138e+14	6.005157e+13	1.058592e+04	6.238626e+03	4.046076e+03	0	9.779128e-04
1.260000e+09	3.878996e+13	0.000000e+00	7.657657e-01	5.040849e+14	6.902016e+14	5.979831e+13	1.056384e+04	6.228023e+03	4.039199e+03	0	9.740153e-04
1.270000e+09	3.833021e+13	0.000000e+00	7.657657e-01	4.990981e+14	6.837926e+14	5.954672e+13	1.054199e+04	6.217516e+03	4.032385e+03	0	9.701519e-04
1.280000e+09	3.787806e+13	0.000000e+00	7.657657e-01	4.941922e+14	6.774845e+14	5.929678e+13	1.052035e+04	6.207105e+03	4.025633e+03	0	9.663221e-04
1.290000e+09	3.743333e+13	0.000000e+00	7.657657e-01	4.893655e+14	6.712751e+14	5.904849e+13	1.049892e+04	6.196789e+03	4.018942e+03	0	9.625254e-04
1.300000e+09	3.699586e+13	0.000000e+00	7.657657e-01	4.846163e+14	6.651623e+14	5.880183e+13	1.047770e+04	6.186564e+03	4.012311e+03	0	9.587611e-04
1.310000e+09	3.656550e+13	0.000000e+00	7.657657e-01	4.799428e+14	6.591443e+14	5.855678e+13	1.045669e+04	6.176431e+03	4.005739e+03	0	9.550289e-04
1.320000e+09	3.614207e+13	0.000000e+00	7.657657e-01	4.753434e+14	6.532185e+14	5.831334e+13	1.043588e+04	6.166388e+03	3.999225e+03	0	9.513282e-04
1.330000e+09	3.572544e+13	0.000000e+00	7.657657e-01	4.708164e+14	6.473832e+14	5.807149e+13	1.041527e+04	6.156433e+03	3.992769e+03	0	9.476585e-04
1.340000e+09	3.531545e+13	0.000000e+00	7.657657e-01	4.663604e+14	6.416366e+14	5.783122e+13	1.039485e+04	6.146566e+03	3.986370e+03	0	9.440194e-04
1.350000e+09	3.491195e+13	0.000000e+00	7.657657e-01	4.619737e+14	6.359766e+14	5.759252e+13	1.037463e+04	6.136784e+03	3.980026e+03	0	9.404104e-04
1.360000e+09	3.451482e+13	0.000000e+00	7.657657e-01	4.576549e+14	6.304015e+14	5.735538e+13	1.035459e+04	6.127087e+03	3.973737e+03	0	9.368309e-04
