#t		Qconv[W]	Ri[Rp]		R*[Rp]		Qc[W]		Qm[W]		Qr[W]		Tcmb[K]		Tl[K]		Tup[K]		RiFlag		Bs[T]
0.000000e+00	1.587011e+13	0.000000e+00	7.545453e-01	3.060292e+14	4.433779e+13	1.389062e+14	1.109632e+04	3.603093e+03	2.754389e+03	0	7.279078e-04
1.000000e+07	1.593201e+13	0.000000e+00	7.545453e-01	3.064720e+14	4.665801e+13	1.381365e+14	1.108532e+04	3.628450e+03	2.773773e+03	0	7.288531e-04
2.000000e+07	1.599049e+13	0.000000e+00	7.545453e-01	3.068818e+14	4.905470e+13	1.373726e+14	1.107430e+04	3.653637e+03	2.793027e+03	0	7.297438e-04
3.000000e+07	1.604553e+13	0.000000e+00	7.545453e-01	3.072582e+14	5.152780e+13	1.366144e+14	1.106327e+04	3.678646e+03	2.812146e+03	0	7.305801e-04
4.000000e+07	1.609712e+13	0.000000e+00	7.545453e-01	3.076012e+14	5.407704e+13	1.358619e+14	1.105223e+04	3.703472e+03	2.831124e+03	0	7.313621e-04
5.000000e+07	1.614523e+13	0.000000e+00	7.545453e-01	3.079107e+14	5.670203e+13	1.351150e+14	1.104117e+04	3.728108e+03	2.849957e+03	0	7.320900e-04
6.000000e+07	1.618986e+13	0.000000e+00	7.545453e-01	3.081866e+14	5.940217e+13	1.343737e+14	1.103010e+04	3.752547e+03	2.868639e+03	0	7.327639e-04
7.000000e+07	1.623099e+13	0.000000e+00	7.545453e-01	3.084288e+14	6.217675e+13	1.336379e+14	1.101902e+04	3.776782e+03	2.887166e+03	0	7.333841e-04
8.000000e+07	1.626864e+13	0.000000e+00	7.545453e-01	3.086372e+14	6.502482e+13	1.329075e+14	1.100793e+04	3.800808e+03	2.905533e+03	0	7.339506e-04
9.000000e+07	1.630278e+13	0.000000e+00	7.545453e-01	3.088119e+14	6.794533e+13	1.321826e+14	1.099684e+04	3.824618e+03	2.923734e+03	0	7.344637e-04
1.000000e+08	1.633343e+13	0.000000e+00	7.545453e-01	3.089530e+14	7.093699e+13	1.314631e+14	1.098574e+04	3.848204e+03	2.941765e+03	0	7.349236e-04
1.100000e+08	1.636058e+13	0.000000e+00	7.545453e-01	3.090603e+14	7.399837e+13	1.307489e+14	1.097463e+04	3.871562e+03	2.959621e+03	0	7.353307e-04
1.200000e+08	1.638425e+13	0.000000e+00	7.545453e-01	3.091342e+14	7.712790e+13	1.300400e+14	1.096352e+04	3.894685e+03	2.977297e+03	0	7.356851e-04
1.300000e+08	1.640444e+13	0.000000e+00	7.545453e-01	3.091745e+14	8.032376e+13	1.293363e+14	1.095241e+04	3.917567e+03	2.994789e+03	0	7.359872e-04
1.400000e+08	1.642117e+13	0.000000e+00	7.545453e-01	3.091816e+14	8.358403e+13	1.286379e+14	1.094129e+04	3.940201e+03	3.012092e+03	0	7.362373e-04
1.500000e+08	1.643445e+13	0.000000e+00	7.545453e-01	3.091555e+14	8.690661e+13	1.279446e+14	1.093018e+04	3.962583e+03	3.029202e+03	0	7.364357e-04
1.600000e+08	1.644431e+13	0.000000e+00	7.545453e-01	3.090965e+14	9.028922e+13	1.272565e+14	1.091907e+04	3.984706e+03	3.046114e+03	0	7.365829e-04
1.700000e+08	1.645076e+13	0.000000e+00	7.545453e-01	3.090048e+14	9.372944e+13	1.265734e+14	1.090795e+04	4.006565e+03	3.062824e+03	0	7.366792e-04
1.800000e+08	1.645382e+13	0.000000e+00	7.545453e-01	3.088806e+14	9.722470e+13	1.258953e+14	1.089685e+04	4.028154e+03	3.079328e+03	0	7.367250e-04
1.900000e+08	1.645354e+13	0.000000e+00	7.545453e-01	3.087243e+14	1.007723e+14	1.252223e+14	1.088574e+04	4.049469e+03	3.095622e+03	0	7.367207e-04
2.000000e+08	1.644994e+13	0.000000e+00	7.545453e-01	3.085362e+14	1.043694e+14	1.245542e+14	1.087464e+04	4.070505e+03	3.111703e+03	0	7.366669e-04
2.100000e+08	1.644305e+13	0.000000e+00	7.545453e-01	3.083165e+14	1.080129e+14	1.238910e+14	1.086355e+04	4.091256e+03	3.127566e+03	0	7.365641e-04
2.200000e+08	1.643291e+13	0.000000e+00	7.545453e-01	3.080658e+14	1.116999e+14	1.232327e+14	1.085247e+04	4.111718e+03	3.143208e+03	0	7.364126e-04
2.300000e+08	1.641956e+13	0.000000e+00	7.545453e-01	3.077843e+14	1.154270e+14	1.225792e+14	1.084140e+04	4.131887e+03	3.158626e+03	0	7.362132e-04
2.400000e+08	1.640304e+13	0.000000e+00	7.545453e-01	3.074725e+14	1.191910e+14	1.219305e+14	1.083033e+04	4.151759e+03	3.173817e+03	0	7.359662e-04
2.500000e+08	1.638340e+13	0.000000e+00	7.545453e-01	3.071308e+14	1.229885e+14	1.212866e+14	1.081928e+04	4.171329e+03	3.188778e+03	0	7.356724e-04
2.600000e+08	1.636068e+13	0.000000e+00	7.545453e-01	3.067597e+14	1.268159e+14	1.206474e+14	1.080824e+04	4.190595e+03	3.203506e+03	0	7.353322e-04
2.700000e+08	1.633494e+13	0.000000e+00	7.545453e-01	3.063598e+14	1.306698e+14	1.200128e+14	1.079721e+04	4.209553e+03	3.217998e+03	0	7.349463e-04
2.800000e+08	1.630623e+13	0.000000e+00	7.545453e-01	3.059314e+14	1.345464e+14	1.193829e+14	1.078620e+04	4.228200e+03	3.232253e+03	0	7.345154e-04
2.900000e+08	1.627459e+13	0.000000e+00	7.545453e-01	3.054752e+14	1.384422e+14	1.187576e+14	1.077520e+04	4.246532e+03	3.246267e+03	0	7.340401e-04
3.000000e+08	1.624009e+13	0.000000e+00	7.545453e-01	3.049917e+14	1.423533e+14	1.181368e+14	1.076422e+04	4.264548e+03	3.260039e+03	0	7.335210e-04
3.100000e+08	1.620278e+13	0.000000e+00	7.545453e-01	3.044814e+14	1.462762e+14	1.175206e+14	1.075325e+04	4.282245e+03	3.273568e+03	0	7.329588e-04
3.200000e+08	1.616272e+13	0.000000e+00	7.545453e-01	3.039450e+14	1.502070e+14	1.169088e+14	1.074231e+04	4.299621e+03	3.286851e+03	0	7.323543e-04
3.300000e+08	1.611997e+13	0.000000e+00	7.545453e-01	3.033829e+14	1.541420e+14	1.163015e+14	1.073138e+04	4.316674e+03	3.299887e+03	0	7.317081e-04
3.400000e+08	1.607460e+13	0.000000e+00	7.545453e-01	3.027960e+14	1.580774e+14	1.156986e+14	1.072048e+04	4.333403e+03	3.312676e+03	0	7.310210e-04
3.500000e+08	1.602667e+13	0.000000e+00	7.545453e-01	3.021847e+14	1.620096e+14	1.151001e+14	1.070959e+04	4.349807e+03	3.325215e+03	0	7.302936e-04
3.600000e+08	1.597624e+13	0.000000e+00	7.545453e-01	3.015497e+14	1.659347e+14	1.145059e+14	1.069873e+04	4.365884e+03	3.337506e+03	0	7.295268e-04
3.700000e+08	1.592338e+13	0.000000e+00	7.545453e-01	3.008917e+14	1.698492e+14	1.139160e+14	1.068789e+04	4.381634e+03	3.349546e+03	0	7.287213e-04
3.800000e+08	1.586815e+13	0.000000e+00	7.545453e-01	3.002112e+14	1.737494e+14	1.133304e+14	1.067707e+04	4.397057e+03	3.361336e+03	0	7.278779e-04
3.900000e+08	1.581063e+13	0.000000e+00	7.545453e-01	2.995090e+14	1.776318e+14	1.127490e+14	1.066628e+04	4.412152e+03	3.372875e+03	0	7.269973e-04
4.000000e+08	1.575087e+13	0.000000e+00	7.545453e-01	2.987857e+14	1.814930e+14	1.121718e+14	1.065551e+04	4.426919e+03	3.384164e+03	0	7.260802e-04
4.100000e+08	1.568895e+13	0.000000e+00	7.545453e-01	2.980420e+14	1.853294e+14	1.115988e+14	1.064477e+04	4.441360e+03	3.395203e+03	0	7.251276e-04
4.200000e+08	1.562494e+13	0.000000e+00	7.545453e-01	2.972785e+14	1.891378e+14	1.110299e+14	1.063406e+04	4.455474e+03	3.405993e+03	0	7.241401e-04
4.300000e+08	1.555891e+13	0.000000e+00	7.545453e-01	2.964960e+14	1.929150e+14	1.104651e+14	1.062337e+04	4.469262e+03	3.416533e+03	0	7.231185e-04
4.400000e+08	1.549092e+13	0.000000e+00	7.545453e-01	2.956950e+14	1.966578e+14	1.099044e+14	1.061271e+04	4.482726e+03	3.426826e+03	0	7.220637e-04
4.500000e+08	1.542104e+13	0.000000e+00	7.545453e-01	2.948763e+14	2.003632e+14	1.093477e+14	1.060208e+04	4.495867e+03	3.436872e+03	0	7.209763e-04
4.600000e+08	1.534934e+13	0.000000e+00	7.545453e-01	2.940406e+14	2.040283e+14	1.087950e+14	1.059148e+04	4.508687e+03	3.446672e+03	0	7.198572e-04
4.700000e+08	1.527590e+13	0.000000e+00	7.545453e-01	2.931884e+14	2.076503e+14	1.082463e+14	1.058091e+04	4.521187e+03	3.456227e+03	0	7.187072e-04
4.800000e+08	1.520077e+13	0.000000e+00	7.545453e-01	2.923204e+14	2.112265e+14	1.077015e+14	1.057037e+04	4.533369e+03	3.465540e+03	0	7.175270e-04
4.900000e+08	1.512402e+13	0.000000e+00	7.545453e-01	2.914374e+14	2.147545e+14	1.071605e+14	1.055986e+04	4.545236e+03	3.474612e+03	0	7.163174e-04
5.000000e+08	1.504573e+13	0.000000e+00	7.545453e-01	2.905399e+14	2.182317e+14	1.066235e+14	1.054938e+04	4.556791e+03	3.483444e+03	0	7.150792e-04
5.100000e+08	1.496595e+13	0.000000e+00	7.545453e-01	2.896286e+14	2.216560e+14	1.060903e+14	1.053894e+04	4.568034e+03	3.492040e+03	0	7.138131e-04
5.200000e+08	1.488476e+13	0.000000e+00	7.545453e-01	2.887042e+14	2.250251e+14	1.055609e+14	1.052852e+04	4.578971e+03	3.500400e+03	0	7.125199e-04
5.300000e+08	1.480221e+13	0.000000e+00	7.545453e-01	2.877672e+14	2.283370e+14	1.050353e+14	1.051814e+04	4.589602e+03	3.508527e+03	0	7.112003e-04
5.400000e+08	1.471837e+13	0.000000e+00	7.545453e-01	2.868182e+14	2.315900e+14	1.045134e+14	1.050780e+04	4.599933e+03	3.516424e+03	0	7.098551e-04
5.500000e+08	1.463331e+13	0.000000e+00	7.545453e-01	2.858580e+14	2.347821e+14	1.039952e+14	1.049749e+04	4.609965e+03	3.524094e+03	0	7.084850e-04
5.600000e+08	1.454708e+13	0.000000e+00	7.545453e-01	2.848870e+14	2.379120e+14	1.034808e+14	1.048721e+04	4.619702e+03	3.531537e+03	0	7.070906e-04
5.700000e+08	1.445975e+13	0.000000e+00	7.545453e-01	2.839059e+14	2.409780e+14	1.029699e+14	1.047697e+04	4.629149e+03	3.538759e+03	0	7.056728e-04
5.800000e+08	1.437137e+13	0.000000e+00	7.545453e-01	2.829153e+14	2.439788e+14	1.024627e+14	1.046676e+04	4.638308e+03	3.545760e+03	0	7.042322e-04
5.900000e+08	1.428201e+13	0.000000e+00	7.545453e-01	2.819156e+14	2.469134e+14	1.019591e+14	1.045659e+04	4.647183e+03	3.552545e+03	0	7.027694e-04
6.000000e+08	1.419171e+13	0.000000e+00	7.545453e-01	2.809075e+14	2.497805e+14	1.014591e+14	1.044645e+04	4.655779e+03	3.559116e+03	0	7.012853e-04
6.100000e+08	1.410054e+13	0.000000e+00	7.545453e-01	2.798915e+14	2.525793e+14	1.009626e+14	1.043635e+04	4.664099e+03	3.565476e+03	0	6.997803e-04
6.200000e+08	1.400856e+13	0.000000e+00	7.545453e-01	2.788681e+14	2.553090e+14	1.004696e+14	1.042629e+04	4.672147e+03	3.571629e+03	0	6.982553e-04
6.300000e+08	1.391580e+13	0.000000e+00	7.545453e-01	2.778378e+14	2.579689e+14	9.998007e+13	1.041627e+04	4.679927e+03	3.577577e+03	0	6.967107e-04
6.400000e+08	1.382233e+13	0.000000e+00	7.545453e-01	2.768012e+14	2.605584e+14	9.949401e+13	1.040628e+04	4.687445e+03	3.583323e+03	0	6.951473e-04
6.500000e+08	1.372819e+13	0.000000e+00	7.545453e-01	2.757587e+14	2.630772e+14	9.901137e+13	1.039632e+04	4.694704e+03	3.588872e+03	0	6.935656e-04
6.600000e+08	1.363344e+13	0.000000e+00	7.545453e-01	2.747108e+14	2.655247e+14	9.853212e+13	1.038641e+04	4.701707e+03	3.594226e+03	0	6.919662e-04
6.700000e+08	1.353811e+13	0.000000e+00	7.545453e-01	2.736580e+14	2.679009e+14	9.805625e+13	1.037653e+04	4.708461e+03	3.599389e+03	0	6.903497e-04
6.800000e+08	1.344227e+13	0.000000e+00	7.545453e-01	2.726006e+14	2.702057e+14	9.758372e+13	1.036669e+04	4.714969e+03	3.604364e+03	0	6.887168e-04
6.900000e+08	1.334595e+13	0.000000e+00	7.545453e-01	2.715392e+14	2.724389e+14	9.711450e+13	1.035689e+04	4.721236e+03	3.609155e+03	0	6.870678e-04
7.000000e+08	1.324920e+13	0.000000e+00	7.545453e-01	2.704742e+14	2.746007e+14	9.664857e+13	1.034713e+04	4.727266e+03	3.613765e+03	0	6.854034e-04
7.100000e+08	1.315205e+13	0.000000e+00	7.545453e-01	2.694059e+14	2.766914e+14	9.618590e+13	1.033740e+04	4.733064e+03	3.618197e+03	0	6.837242e-04
7.200000e+08	1.305456e+13	0.000000e+00	7.545453e-01	2.683348e+14	2.787111e+14	9.572647e+13	1.032772e+04	4.738634e+03	3.622455e+03	0	6.820305e-04
7.300000e+08	1.295675e+13	0.000000e+00	7.545453e-01	2.672613e+14	2.806601e+14	9.527025e+13	1.031807e+04	4.743980e+03	3.626542e+03	0	6.803230e-04
7.400000e+08	1.285867e+13	0.000000e+00	7.545453e-01	2.661856e+14	2.825390e+14	9.481722e+13	1.030846e+04	4.749108e+03	3.630462e+03	0	6.786020e-04
7.500000e+08	1.276036e+13	0.000000e+00	7.545453e-01	2.651082e+14	2.843481e+14	9.436734e+13	1.029889e+04	4.754022e+03	3.634218e+03	0	6.768681e-04
7.600000e+08	1.266184e+13	0.000000e+00	7.545453e-01	2.640295e+14	2.860882e+14	9.392060e+13	1.028936e+04	4.758726e+03	3.637814e+03	0	6.751217e-04
7.700000e+08	1.256316e+13	0.000000e+00	7.545453e-01	2.629497e+14	2.877597e+14	9.347696e+13	1.027986e+04	4.763225e+03	3.641253e+03	0	6.733633e-04
7.800000e+08	1.246435e+13	0.000000e+00	7.545453e-01	2.618691e+14	2.893635e+14	9.303641e+13	1.027041e+04	4.767523e+03	3.644539e+03	0	6.715932e-04
7.900000e+08	1.236544e+13	0.000000e+00	7.545453e-01	2.607881e+14	2.909002e+14	9.259892e+13	1.026099e+04	4.771625e+03	3.647675e+03	0	6.698120e-04
8.000000e+08	1.226645e+13	0.000000e+00	7.545453e-01	2.597070e+14	2.923706e+14	9.216446e+13	1.025162e+04	4.775534e+03	3.650663e+03	0	6.680200e-04
8.100000e+08	1.216743e+13	0.000000e+00	7.545453e-01	2.586260e+14	2.937756e+14	9.173301e+13	1.024228e+04	4.779257e+03	3.653509e+03	0	6.662175e-04
8.200000e+08	1.206839e+13	0.000000e+00	7.545453e-01	2.575454e+14	2.951162e+14	9.130455e+13	1.023298e+04	4.782796e+03	3.656214e+03	0	6.644051e-04
8.300000e+08	1.196937e+13	0.000000e+00	7.545453e-01	2.564656e+14	2.963931e+14	9.087905e+13	1.022372e+04	4.786156e+03	3.658783e+03	0	6.625829e-04
8.400000e+08	1.187039e+13	0.000000e+00	7.545453e-01	2.553866e+14	2.976075e+14	9.045649e+13	1.021450e+04	4.789341e+03	3.661218e+03	0	6.607515e-04
8.500000e+08	1.177148e+13	0.000000e+00	7.545453e-01	2.543089e+14	2.987603e+14	9.003685e+13	1.020531e+04	4.792356e+03	3.663523e+03	0	6.589111e-04
8.600000e+08	1.167266e+13	0.000000e+00	7.545453e-01	2.532325e+14	2.998524e+14	8.962009e+13	1.019617e+04	4.795204e+03	3.665700e+03	0	6.570620e-04
8.700000e+08	1.157395e+13	0.000000e+00	7.545453e-01	2.521577e+14	3.008852e+14	8.920621e+13	1.018706e+04	4.797891e+03	3.667754e+03	0	6.552046e-04
8.800000e+08	1.147537e+13	0.000000e+00	7.545453e-01	2.510848e+14	3.018595e+14	8.879517e+13	1.017799e+04	4.800418e+03	3.669686e+03	0	6.533392e-04
8.900000e+08	1.137696e+13	0.000000e+00	7.545453e-01	2.500140e+14	3.027764e+14	8.838696e+13	1.016897e+04	4.802792e+03	3.671501e+03	0	6.514661e-04
9.000000e+08	1.127871e+13	0.000000e+00	7.545453e-01	2.489453e+14	3.036371e+14	8.798155e+13	1.015998e+04	4.805015e+03	3.673200e+03	0	6.495855e-04
9.100000e+08	1.118067e+13	0.000000e+00	7.545453e-01	2.478791e+14	3.044428e+14	8.757892e+13	1.015102e+04	4.807092e+03	3.674788e+03	0	6.476977e-04
9.200000e+08	1.108283e+13	0.000000e+00	7.545453e-01	2.468154e+14	3.051946e+14	8.717905e+13	1.014211e+04	4.809026e+03	3.676266e+03	0	6.458030e-04
9.300000e+08	1.098523e+13	0.000000e+00	7.545453e-01	2.457545e+14	3.058935e+14	8.678191e+13	1.013323e+04	4.810821e+03	3.677638e+03	0	6.439016e-04
9.400000e+08	1.088788e+13	0.000000e+00	7.545453e-01	2.446965e+14	3.065409e+14	8.638748e+13	1.012440e+04	4.812481e+03	3.678907e+03	0	6.419938e-04
9.500000e+08	1.079079e+13	0.000000e+00	7.545453e-01	2.436415e+14	3.071376e+14	8.599575e+13	1.011560e+04	4.814009e+03	3.680075e+03	0	6.400798e-04
9.600000e+08	1.069398e+13	0.000000e+00	7.545453e-01	2.425898e+14	3.076852e+14	8.560669e+13	1.010684e+04	4.815409e+03	3.681145e+03	0	6.381599e-04
9.700000e+08	1.059746e+13	0.000000e+00	7.545453e-01	2.415414e+14	3.081846e+14	8.522028e+13	1.009811e+04	4.816684e+03	3.682120e+03	0	6.362342e-04
9.800000e+08	1.050124e+13	0.000000e+00	7.545453e-01	2.404965e+14	3.086369e+14	8.483650e+13	1.008943e+04	4.817837e+03	3.683002e+03	0	6.343029e-04
9.900000e+08	1.040535e+13	0.000000e+00	7.545453e-01	2.394551e+14	3.090435e+14	8.445532e+13	1.008078e+04	4.818873e+03	3.683794e+03	0	6.323662e-04
1.000000e+09	1.030979e+13	0.000000e+00	7.545453e-01	2.384174e+14	3.094053e+14	8.407674e+13	1.007217e+04	4.819794e+03	3.684498e+03	0	6.304244e-04
1.010000e+09	1.021457e+13	0.000000e+00	7.545453e-01	2.373836e+14	3.097236e+14	8.370072e+13	1.006359e+04	4.820604e+03	3.685117e+03	0	6.284775e-04
1.020000e+09	1.011970e+13	0.000000e+00	7.545453e-01	2.363537e+14	3.099995e+14	8.332725e+13	1.005506e+04	4.821305e+03	3.685653e+03	0	6.265258e-04
1.030000e+09	1.002520e+13	0.000000e+00	7.545453e-01	2.353278e+14	3.102340e+14	8.295630e+13	1.004656e+04	4.821901e+03	3.686108e+03	0	6.245695e-04
1.040000e+09	9.931070e+12	0.000000e+00	7.545453e-01	2.343059e+14	3.104284e+14	8.258787e+13	1.003809e+04	4.822394e+03	3.686486e+03	0	6.226086e-04
1.050000e+09	9.837324e+12	0.000000e+00	7.545453e-01	2.332883e+14	3.105837e+14	8.222192e+13	1.002967e+04	4.822789e+03	3.686787e+03	0	6.206433e-04
1.060000e+09	9.743969e+12	0.000000e+00	7.545453e-01	2.322749e+14	3.107011e+14	8.185844e+13	1.002128e+04	4.823086e+03	3.687015e+03	0	6.186738e-04
1.070000e+09	9.651014e+12	0.000000e+00	7.545453e-01	2.312659e+14	3.107816e+14	8.149740e+13	1.001292e+04	4.823290e+03	3.687170e+03	0	6.167002e-04
1.080000e+09	9.558465e+12	0.000000e+00	7.545453e-01	2.302613e+14	3.108262e+14	8.113880e+13	1.000461e+04	4.823403e+03	3.687257e+03	0	6.147226e-04
1.090000e+09	9.466331e+12	0.000000e+00	7.545453e-01	2.292612e+14	3.108359e+14	8.078261e+13	9.996325e+03	4.823428e+03	3.687276e+03	0	6.127411e-04
1.100000e+09	9.374617e+12	0.000000e+00	7.545453e-01	2.282656e+14	3.108119e+14	8.042881e+13	9.988080e+03	4.823367e+03	3.687229e+03	0	6.107558e-04
1.110000e+09	9.283330e+12	0.000000e+00	7.545453e-01	2.272746e+14	3.107552e+14	8.007738e+13	9.979871e+03	4.823223e+03	3.687119e+03	0	6.087669e-04
1.120000e+09	9.192476e+12	0.000000e+00	7.545453e-01	2.262882e+14	3.106666e+14	7.972831e+13	9.971697e+03	4.822999e+03	3.686948e+03	0	6.067744e-04
1.130000e+09	9.102059e+12	0.000000e+00	7.545453e-01	2.253066e+14	3.105473e+14	7.938157e+13	9.963558e+03	4.822696e+03	3.686716e+03	0	6.047785e-04
1.140000e+09	9.012086e+12	0.000000e+00	7.545453e-01	2.243297e+14	3.103982e+14	7.903715e+13	9.955455e+03	4.822317e+03	3.686427e+03	0	6.027791e-04
1.150000e+09	8.922559e+12	0.000000e+00	7.545453e-01	2.233575e+14	3.102201e+14	7.869503e+13	9.947387e+03	4.821865e+03	3.686081e+03	0	6.007765e-04
1.160000e+09	8.833485e+12	0.000000e+00	7.545453e-01	2.223902e+14	3.100140e+14	7.835520e+13	9.939354e+03	4.821342e+03	3.685681e+03	0	5.987706e-04
1.170000e+09	8.744865e+12	0.000000e+00	7.545453e-01	2.214278e+14	3.097810e+14	7.801762e+13	9.931356e+03	4.820750e+03	3.685228e+03	0	5.967615e-04
1.180000e+09	8.656705e+12	0.000000e+00	7.545453e-01	2.204703e+14	3.095218e+14	7.768229e+13	9.923392e+03	4.820091e+03	3.684724e+03	0	5.947493e-04
1.190000e+09	8.569007e+12	0.000000e+00	7.545453e-01	2.195176e+14	3.092372e+14	7.734920e+13	9.915462e+03	4.819367e+03	3.684171e+03	0	5.927341e-04
1.200000e+09	8.481774e+12	0.000000e+00	7.545453e-01	2.185699e+14	3.089283e+14	7.701831e+13	9.907567e+03	4.818580e+03	3.683570e+03	0	5.907159e-04
1.210000e+09	8.395008e+12	0.000000e+00	7.545453e-01	2.176272e+14	3.085956e+14	7.668962e+13	9.899706e+03	4.817732e+03	3.682922e+03	0	5.886947e-04
1.220000e+09	8.308713e+12	0.000000e+00	7.545453e-01	2.166895e+14	3.082403e+14	7.636310e+13	9.891878e+03	4.816826e+03	3.682229e+03	0	5.866706e-04
1.230000e+09	8.222890e+12	0.000000e+00	7.545453e-01	2.157568e+14	3.078628e+14	7.603875e+13	9.884085e+03	4.815863e+03	3.681492e+03	0	5.846437e-04
1.240000e+09	8.137541e+12	0.000000e+00	7.545453e-01	2.148290e+14	3.074642e+14	7.571654e+13	9.876324e+03	4.814844e+03	3.680714e+03	0	5.826139e-04
1.250000e+09	8.052667e+12	0.000000e+00	7.545453e-01	2.139064e+14	3.070451e+14	7.539645e+13	9.868598e+03	4.813772e+03	3.679894e+03	0	5.805813e-04
1.260000e+09	7.968270e+12	0.000000e+00	7.545453e-01	2.129887e+14	3.066062e+14	7.507848e+13	9.860904e+03	4.812649e+03	3.679035e+03	0	5.785458e-04
1.270000e+09	7.884351e+12	0.000000e+00	7.545453e-01	2.120761e+14	3.061485e+14	7.476260e+13	9.853243e+03	4.811475e+03	3.678138e+03	0	5.765077e-04
1.280000e+09	7.800911e+12	0.000000e+00	7.545453e-01	2.111686e+14	3.056722e+14	7.444880e+13	9.845615e+03	4.810253e+03	3.677204e+03	0	5.744667e-04
1.290000e+09	7.717951e+12	0.000000e+00	7.545453e-01	2.102661e+14	3.051785e+14	7.413706e+13	9.838020e+03	4.808985e+03	3.676235e+03	0	5.724230e-04
1.300000e+09	7.635470e+12	0.000000e+00	7.545453e-01	2.093687e+14	3.046678e+14	7.382737e+13	9.830457e+03	4.807671e+03	3.675230e+03	0	5.703766e-04
1.310000e+09	7.553470e+12	0.000000e+00	7.545453e-01	2.084764e+14	3.041407e+14	7.351971e+13	9.822926e+03	4.806314e+03	3.674193e+03	0	5.683274e-04
1.320000e+09	7.471951e+12	0.000000e+00	7.545453e-01	2.075891e+14	3.035980e+14	7.321406e+13	9.815427e+03	4.804914e+03	3.673123e+03	0	5.662755e-04
1.330000e+09	7.390912e+12	0.000000e+00	7.545453e-01	2.067069e+14	3.030401e+14	7.291041e+13	9.807960e+03	4.803474e+03	3.672022e+03	0	5.642208e-04
1.340000e+09	7.310353e+12	0.000000e+00	7.545453e-01	2.058297e+14	3.024679e+14	7.260874e+13	9.800525e+03	4.801994e+03	3.670891e+03	0	5.621634e-04
1.350000e+09	7.230275e+12	0.000000e+00	7.545453e-01	2.049576e+14	3.018818e+14	7.230905e+13	9.793121e+03	4.800476e+03	3.669730e+03	0	5.601032e-04
1.360000e+09	7.150676e+12	0.000000e+00	7.545453e-01	2.040905e+14	3.012824e+14	7.201131e+13	9.785749e+03	4.798922e+03	3.668542e+03	0	5.580402e-04
