#t		Qconv[W]	Ri[Rp]		R*[Rp]		Qc[W]		Qm[W]		Qr[W]		Tcmb[K]		Tl[K]		Tup[K]		RiFlag		Bs[T]
0.000000e+00	2.086948e+13	0.000000e+00	7.614681e-01	7.153381e+14	3.453159e+13	2.045460e+14	1.512936e+04	4.063220e+03	2.944722e+03	0	7.812154e-04
1.000000e+07	2.125501e+13	0.000000e+00	7.614681e-01	7.178027e+14	3.719362e+13	2.034127e+14	1.511537e+04	4.102238e+03	2.972999e+03	0	7.859966e-04
2.000000e+07	2.163228e+13	0.000000e+00	7.614681e-01	7.202018e+14	4.000979e+13	2.022878e+14	1.510133e+04	4.141193e+03	3.001231e+03	0	7.906198e-04
3.000000e+07	2.200109e+13	0.000000e+00	7.614681e-01	7.225338e+14	4.298511e+13	2.011714e+14	1.508725e+04	4.180078e+03	3.029412e+03	0	7.950876e-04
4.000000e+07	2.236125e+13	0.000000e+00	7.614681e-01	7.247973e+14	4.612447e+13	2.000632e+14	1.507312e+04	4.218881e+03	3.057534e+03	0	7.994026e-04
5.000000e+07	2.271254e+13	0.000000e+00	7.614681e-01	7.269907e+14	4.943260e+13	1.989634e+14	1.505894e+04	4.257593e+03	3.085589e+03	0	8.035671e-04
6.000000e+07	2.305478e+13	0.000000e+00	7.614681e-01	7.291127e+14	5.291408e+13	1.978717e+14	1.504472e+04	4.296203e+03	3.113571e+03	0	8.075831e-04
7.000000e+07	2.338778e+13	0.000000e+00	7.614681e-01	7.311618e+14	5.657328e+13	1.967882e+14	1.503047e+04	4.334702e+03	3.141472e+03	0	8.114527e-04
8.000000e+07	2.371135e+13	0.000000e+00	7.614681e-01	7.331366e+14	6.041436e+13	1.957127e+14	1.501617e+04	4.373078e+03	3.169284e+03	0	8.151778e-04
9.000000e+07	2.402531e+13	0.000000e+00	7.614681e-01	7.350358e+14	6.444119e+13	1.946453e+14	1.500183e+04	4.411320e+03	3.196999e+03	0	8.187599e-04
1.000000e+08	2.432947e+13	0.000000e+00	7.614681e-01	7.368580e+14	6.865742e+13	1.935857e+14	1.498745e+04	4.449416e+03	3.224609e+03	0	8.222006e-04
1.100000e+08	2.462368e+13	0.000000e+00	7.614681e-01	7.386020e+14	7.306637e+13	1.925340e+14	1.497304e+04	4.487357e+03	3.252105e+03	0	8.255015e-04
1.200000e+08	2.490776e+13	0.000000e+00	7.614681e-01	7.402666e+14	7.767100e+13	1.914902e+14	1.495860e+04	4.525129e+03	3.279479e+03	0	8.286640e-04
1.300000e+08	2.518156e+13	0.000000e+00	7.614681e-01	7.418506e+14	8.247398e+13	1.904540e+14	1.494412e+04	4.562720e+03	3.306723e+03	0	8.316893e-04
1.400000e+08	2.544493e+13	0.000000e+00	7.614681e-01	7.433529e+14	8.747751e+13	1.894255e+14	1.492962e+04	4.600120e+03	3.333828e+03	0	8.345787e-04
1.500000e+08	2.569771e+13	0.000000e+00	7.614681e-01	7.447724e+14	9.268347e+13	1.884046e+14	1.491508e+04	4.637315e+03	3.360784e+03	0	8.373334e-04
1.600000e+08	2.593979e+13	0.000000e+00	7.614681e-01	7.461082e+14	9.809326e+13	1.873913e+14	1.490051e+04	4.674294e+03	3.387584e+03	0	8.399544e-04
1.700000e+08	2.617104e+13	0.000000e+00	7.614681e-01	7.473595e+14	1.037078e+14	1.863854e+14	1.488592e+04	4.711044e+03	3.414217e+03	0	8.424430e-04
1.800000e+08	2.639133e+13	0.000000e+00	7.614681e-01	7.485252e+14	1.095276e+14	1.853870e+14	1.487131e+04	4.747552e+03	3.440675e+03	0	8.448002e-04
1.900000e+08	2.660057e+13	0.000000e+00	7.614681e-01	7.496048e+14	1.155527e+14	1.843959e+14	1.485667e+04	4.783806e+03	3.466950e+03	0	8.470269e-04
2.000000e+08	2.679867e+13	0.000000e+00	7.614681e-01	7.505975e+14	1.217824e+14	1.834121e+14	1.484201e+04	4.819793e+03	3.493031e+03	0	8.491243e-04
2.100000e+08	2.698553e+13	0.000000e+00	7.614681e-01	7.515027e+14	1.282158e+14	1.824355e+14	1.482733e+04	4.855502e+03	3.518910e+03	0	8.510933e-04
2.200000e+08	2.716108e+13	0.000000e+00	7.614681e-01	7.523201e+14	1.348512e+14	1.814661e+14	1.481264e+04	4.890919e+03	3.544577e+03	0	8.529349e-04
2.300000e+08	2.732527e+13	0.000000e+00	7.614681e-01	7.530490e+14	1.416865e+14	1.805038e+14	1.479792e+04	4.926032e+03	3.570025e+03	0	8.546502e-04
2.400000e+08	2.747805e+13	0.000000e+00	7.614681e-01	7.536894e+14	1.487191e+14	1.795486e+14	1.478320e+04	4.960828e+03	3.595242e+03	0	8.562400e-04
2.500000e+08	2.761938e+13	0.000000e+00	7.614681e-01	7.542408e+14	1.559455e+14	1.786004e+14	1.476846e+04	4.995296e+03	3.620222e+03	0	8.577055e-04
2.600000e+08	2.774924e+13	0.000000e+00	7.614681e-01	7.547033e+14	1.633619e+14	1.776591e+14	1.475371e+04	5.029423e+03	3.644955e+03	0	8.590476e-04
2.700000e+08	2.786761e+13	0.000000e+00	7.614681e-01	7.550768e+14	1.709640e+14	1.767247e+14	1.473895e+04	5.063198e+03	3.669432e+03	0	8.602674e-04
2.800000e+08	2.797451e+13	0.000000e+00	7.614681e-01	7.553614e+14	1.787469e+14	1.757971e+14	1.472419e+04	5.096608e+03	3.693645e+03	0	8.613660e-04
2.900000e+08	2.806994e+13	0.000000e+00	7.614681e-01	7.555572e+14	1.867049e+14	1.748763e+14	1.470941e+04	5.129642e+03	3.717586e+03	0	8.623443e-04
3.000000e+08	2.815394e+13	0.000000e+00	7.614681e-01	7.556646e+14	1.948319e+14	1.739621e+14	1.469464e+04	5.162289e+03	3.741247e+03	0	8.632036e-04
3.100000e+08	2.822654e+13	0.000000e+00	7.614681e-01	7.556840e+14	2.031215e+14	1.730547e+14	1.467986e+04	5.194539e+03	3.764618e+03	0	8.639450e-04
3.200000e+08	2.828780e+13	0.000000e+00	7.614681e-01	7.556157e+14	2.115664e+14	1.721539e+14	1.466508e+04	5.226379e+03	3.787694e+03	0	8.645696e-04
3.300000e+08	2.833779e+13	0.000000e+00	7.614681e-01	7.554605e+14	2.201591e+14	1.712596e+14	1.465031e+04	5.257801e+03	3.810466e+03	0	8.650786e-04
3.400000e+08	2.837659e+13	0.000000e+00	7.614681e-01	7.552190e+14	2.288915e+14	1.703718e+14	1.463554e+04	5.288794e+03	3.832927e+03	0	8.654732e-04
3.500000e+08	2.840429e+13	0.000000e+00	7.614681e-01	7.548919e+14	2.377551e+14	1.694904e+14	1.462077e+04	5.319348e+03	3.855071e+03	0	8.657547e-04
3.600000e+08	2.842099e+13	0.000000e+00	7.614681e-01	7.544802e+14	2.467409e+14	1.686154e+14	1.460601e+04	5.349455e+03	3.876890e+03	0	8.659244e-04
3.700000e+08	2.842682e+13	0.000000e+00	7.614681e-01	7.539847e+14	2.558396e+14	1.677468e+14	1.459125e+04	5.379106e+03	3.898379e+03	0	8.659836e-04
3.800000e+08	2.842190e+13	0.000000e+00	7.614681e-01	7.534067e+14	2.650415e+14	1.668845e+14	1.457651e+04	5.408293e+03	3.919532e+03	0	8.659336e-04
3.900000e+08	2.840637e+13	0.000000e+00	7.614681e-01	7.527471e+14	2.743367e+14	1.660284e+14	1.456177e+04	5.437008e+03	3.940342e+03	0	8.657759e-04
4.000000e+08	2.838038e+13	0.000000e+00	7.614681e-01	7.520072e+14	2.837148e+14	1.651784e+14	1.454705e+04	5.465243e+03	3.960805e+03	0	8.655118e-04
4.100000e+08	2.834410e+13	0.000000e+00	7.614681e-01	7.511883e+14	2.931654e+14	1.643346e+14	1.453235e+04	5.492993e+03	3.980916e+03	0	8.651427e-04
4.200000e+08	2.829769e+13	0.000000e+00	7.614681e-01	7.502919e+14	3.026776e+14	1.634969e+14	1.451766e+04	5.520251e+03	4.000671e+03	0	8.646703e-04
4.300000e+08	2.824133e+13	0.000000e+00	7.614681e-01	7.493192e+14	3.122407e+14	1.626652e+14	1.450299e+04	5.547011e+03	4.020064e+03	0	8.640958e-04
4.400000e+08	2.817521e+13	0.000000e+00	7.614681e-01	7.482719e+14	3.218436e+14	1.618395e+14	1.448833e+04	5.573268e+03	4.039093e+03	0	8.634210e-04
4.500000e+08	2.809952e+13	0.000000e+00	7.614681e-01	7.471515e+14	3.314752e+14	1.610198e+14	1.447370e+04	5.599018e+03	4.057755e+03	0	8.626472e-04
4.600000e+08	2.801448e+13	0.000000e+00	7.614681e-01	7.459596e+14	3.411243e+14	1.602059e+14	1.445909e+04	5.624256e+03	4.076046e+03	0	8.617761e-04
4.700000e+08	2.792029e+13	0.000000e+00	7.614681e-01	7.446980e+14	3.507800e+14	1.593978e+14	1.444450e+04	5.648980e+03	4.093964e+03	0	8.608092e-04
4.800000e+08	2.781717e+13	0.000000e+00	7.614681e-01	7.433682e+14	3.604310e+14	1.585956e+14	1.442994e+04	5.673186e+03	4.111506e+03	0	8.597481e-04
4.900000e+08	2.770534e+13	0.000000e+00	7.614681e-01	7.419722e+14	3.700664e+14	1.577991e+14	1.441540e+04	5.696872e+03	4.128672e+03	0	8.585944e-04
5.000000e+08	2.758503e+13	0.000000e+00	7.614681e-01	7.405117e+14	3.796753e+14	1.570083e+14	1.440089e+04	5.720036e+03	4.145460e+03	0	8.573498e-04
5.100000e+08	2.745647e+13	0.000000e+00	7.614681e-01	7.389885e+14	3.892468e+14	1.562231e+14	1.438641e+04	5.742678e+03	4.161869e+03	0	8.560158e-04
5.200000e+08	2.731990e+13	0.000000e+00	7.614681e-01	7.374045e+14	3.987706e+14	1.554435e+14	1.437196e+04	5.764795e+03	4.177899e+03	0	8.545941e-04
5.300000e+08	2.717555e+13	0.000000e+00	7.614681e-01	7.357616e+14	4.082364e+14	1.546695e+14	1.435754e+04	5.786390e+03	4.193549e+03	0	8.530863e-04
5.400000e+08	2.702366e+13	0.000000e+00	7.614681e-01	7.340617e+14	4.176340e+14	1.539010e+14	1.434315e+04	5.807461e+03	4.208819e+03	0	8.514940e-04
5.500000e+08	2.686448e+13	0.000000e+00	7.614681e-01	7.323067e+14	4.269538e+14	1.531380e+14	1.432880e+04	5.828010e+03	4.223712e+03	0	8.498189e-04
5.600000e+08	2.669825e+13	0.000000e+00	7.614681e-01	7.304985e+14	4.361862e+14	1.523804e+14	1.431447e+04	5.848038e+03	4.238227e+03	0	8.480624e-04
5.700000e+08	2.652522e+13	0.000000e+00	7.614681e-01	7.286391e+14	4.453221e+14	1.516282e+14	1.430019e+04	5.867547e+03	4.252365e+03	0	8.462263e-04
5.800000e+08	2.634562e+13	0.000000e+00	7.614681e-01	7.267303e+14	4.543529e+14	1.508813e+14	1.428594e+04	5.886540e+03	4.266130e+03	0	8.443122e-04
5.900000e+08	2.615972e+13	0.000000e+00	7.614681e-01	7.247742e+14	4.632700e+14	1.501397e+14	1.427173e+04	5.905019e+03	4.279522e+03	0	8.423215e-04
6.000000e+08	2.596774e+13	0.000000e+00	7.614681e-01	7.227725e+14	4.720659e+14	1.494034e+14	1.425755e+04	5.922989e+03	4.292545e+03	0	8.402559e-04
6.100000e+08	2.576992e+13	0.000000e+00	7.614681e-01	7.207273e+14	4.807325e+14	1.486723e+14	1.424342e+04	5.940451e+03	4.305201e+03	0	8.381169e-04
6.200000e+08	2.556652e+13	0.000000e+00	7.614681e-01	7.186403e+14	4.892630e+14	1.479463e+14	1.422932e+04	5.957412e+03	4.317493e+03	0	8.359060e-04
6.300000e+08	2.535777e+13	0.000000e+00	7.614681e-01	7.165135e+14	4.976505e+14	1.472255e+14	1.421527e+04	5.973874e+03	4.329424e+03	0	8.336247e-04
6.400000e+08	2.514389e+13	0.000000e+00	7.614681e-01	7.143488e+14	5.058891e+14	1.465097e+14	1.420126e+04	5.989844e+03	4.340997e+03	0	8.312744e-04
6.500000e+08	2.492514e+13	0.000000e+00	7.614681e-01	7.121478e+14	5.139726e+14	1.457990e+14	1.418729e+04	6.005327e+03	4.352218e+03	0	8.288566e-04
6.600000e+08	2.470172e+13	0.000000e+00	7.614681e-01	7.099124e+14	5.218960e+14	1.450933e+14	1.417336e+04	6.020327e+03	4.363089e+03	0	8.263727e-04
6.700000e+08	2.447387e+13	0.000000e+00	7.614681e-01	7.076445e+14	5.296541e+14	1.443926e+14	1.415948e+04	6.034851e+03	4.373615e+03	0	8.238240e-04
6.800000e+08	2.424182e+13	0.000000e+00	7.614681e-01	7.053456e+14	5.372428e+14	1.436967e+14	1.414564e+04	6.048906e+03	4.383801e+03	0	8.212120e-04
6.900000e+08	2.400577e+13	0.000000e+00	7.614681e-01	7.030175e+14	5.446578e+14	1.430058e+14	1.413184e+04	6.062497e+03	4.393650e+03	0	8.185378e-04
7.000000e+08	2.376594e+13	0.000000e+00	7.614681e-01	7.006620e+14	5.518957e+14	1.423197e+14	1.411809e+04	6.075631e+03	4.403169e+03	0	8.158028e-04
7.100000e+08	2.352253e+13	0.000000e+00	7.614681e-01	6.982805e+14	5.589533e+14	1.416384e+14	1.410439e+04	6.088315e+03	4.412362e+03	0	8.130082e-04
7.200000e+08	2.327576e+13	0.000000e+00	7.614681e-01	6.958747e+14	5.658280e+14	1.409618e+14	1.409073e+04	6.100557e+03	4.421233e+03	0	8.101551e-04
7.300000e+08	2.302582e+13	0.000000e+00	7.614681e-01	6.934461e+14	5.725173e+14	1.402900e+14	1.407712e+04	6.112362e+03	4.429789e+03	0	8.072448e-04
7.400000e+08	2.277290e+13	0.000000e+00	7.614681e-01	6.909963e+14	5.790195e+14	1.396229e+14	1.406356e+04	6.123740e+03	4.438035e+03	0	8.042783e-04
7.500000e+08	2.251720e+13	0.000000e+00	7.614681e-01	6.885268e+14	5.853332e+14	1.389605e+14	1.405005e+04	6.134697e+03	4.445976e+03	0	8.012567e-04
7.600000e+08	2.225889e+13	0.000000e+00	7.614681e-01	6.860388e+14	5.914569e+14	1.383026e+14	1.403658e+04	6.145242e+03	4.453618e+03	0	7.981810e-04
7.700000e+08	2.199815e+13	0.000000e+00	7.614681e-01	6.835340e+14	5.973903e+14	1.376493e+14	1.402317e+04	6.155381e+03	4.460966e+03	0	7.950521e-04
7.800000e+08	2.173516e+13	0.000000e+00	7.614681e-01	6.810135e+14	6.031327e+14	1.370006e+14	1.400980e+04	6.165123e+03	4.468026e+03	0	7.918711e-04
7.900000e+08	2.147008e+13	0.000000e+00	7.614681e-01	6.784787e+14	6.086840e+14	1.363564e+14	1.399648e+04	6.174476e+03	4.474805e+03	0	7.886388e-04
8.000000e+08	2.120308e+13	0.000000e+00	7.614681e-01	6.759309e+14	6.140446e+14	1.357166e+14	1.398321e+04	6.183447e+03	4.481307e+03	0	7.853560e-04
8.100000e+08	2.093431e+13	0.000000e+00	7.614681e-01	6.733712e+14	6.192151e+14	1.350813e+14	1.396999e+04	6.192046e+03	4.487538e+03	0	7.820235e-04
8.200000e+08	2.066393e+13	0.000000e+00	7.614681e-01	6.708009e+14	6.241960e+14	1.344504e+14	1.395682e+04	6.200279e+03	4.493505e+03	0	7.786421e-04
8.300000e+08	2.039208e+13	0.000000e+00	7.614681e-01	6.682212e+14	6.289889e+14	1.338238e+14	1.394370e+04	6.208155e+03	4.499213e+03	0	7.752125e-04
8.400000e+08	2.011891e+13	0.000000e+00	7.614681e-01	6.656330e+14	6.335947e+14	1.332015e+14	1.393063e+04	6.215682e+03	4.504668e+03	0	7.717353e-04
8.500000e+08	1.984454e+13	0.000000e+00	7.614681e-01	6.630375e+14	6.380151e+14	1.325836e+14	1.391761e+04	6.222868e+03	4.509876e+03	0	7.682111e-04
8.600000e+08	1.956912e+13	0.000000e+00	7.614681e-01	6.604356e+14	6.422519e+14	1.319699e+14	1.390464e+04	6.229721e+03	4.514842e+03	0	7.646406e-04
8.700000e+08	1.929277e+13	0.000000e+00	7.614681e-01	6.578285e+14	6.463072e+14	1.313604e+14	1.389172e+04	6.236249e+03	4.519573e+03	0	7.610241e-04
8.800000e+08	1.901560e+13	0.000000e+00	7.614681e-01	6.552169e+14	6.501830e+14	1.307552e+14	1.387886e+04	6.242460e+03	4.524074e+03	0	7.573621e-04
8.900000e+08	1.873775e+13	0.000000e+00	7.614681e-01	6.526019e+14	6.538818e+14	1.301541e+14	1.386604e+04	6.248362e+03	4.528352e+03	0	7.536551e-04
9.000000e+08	1.845931e+13	0.000000e+00	7.614681e-01	6.499843e+14	6.574061e+14	1.295571e+14	1.385328e+04	6.253962e+03	4.532410e+03	0	7.499035e-04
9.100000e+08	1.818040e+13	0.000000e+00	7.614681e-01	6.473648e+14	6.607585e+14	1.289642e+14	1.384056e+04	6.259268e+03	4.536256e+03	0	7.461074e-04
9.200000e+08	1.790112e+13	0.000000e+00	7.614681e-01	6.447444e+14	6.639418e+14	1.283753e+14	1.382790e+04	6.264289e+03	4.539894e+03	0	7.422672e-04
9.300000e+08	1.762156e+13	0.000000e+00	7.614681e-01	6.421238e+14	6.669590e+14	1.277905e+14	1.381529e+04	6.269031e+03	4.543331e+03	0	7.383830e-04
9.400000e+08	1.734184e+13	0.000000e+00	7.614681e-01	6.395037e+14	6.698129e+14	1.272097e+14	1.380273e+04	6.273501e+03	4.546571e+03	0	7.344551e-04
9.500000e+08	1.706203e+13	0.000000e+00	7.614681e-01	6.368848e+14	6.725065e+14	1.266329e+14	1.379022e+04	6.277708e+03	4.549620e+03	0	7.304835e-04
9.600000e+08	1.678222e+13	0.000000e+00	7.614681e-01	6.342678e+14	6.750434e+14	1.260600e+14	1.377777e+04	6.281659e+03	4.552483e+03	0	7.264683e-04
9.700000e+08	1.650249e+13	0.000000e+00	7.614681e-01	6.316534e+14	6.774263e+14	1.254910e+14	1.376536e+04	6.285360e+03	4.555165e+03	0	7.224094e-04
9.800000e+08	1.622293e+13	0.000000e+00	7.614681e-01	6.290420e+14	6.796590e+14	1.249258e+14	1.375300e+04	6.288818e+03	4.557672e+03	0	7.183068e-04
9.900000e+08	1.594360e+13	0.000000e+00	7.614681e-01	6.264344e+14	6.817445e+14	1.243645e+14	1.374070e+04	6.292042e+03	4.560008e+03	0	7.141603e-04
1.000000e+09	1.566459e+13	0.000000e+00	7.614681e-01	6.238311e+14	6.836861e+14	1.238070e+14	1.372845e+04	6.295036e+03	4.562178e+03	0	7.099698e-04
1.010000e+09	1.538596e+13	0.000000e+00	7.614681e-01	6.212325e+14	6.854873e+14	1.232533e+14	1.371624e+04	6.297808e+03	4.564187e+03	0	7.057351e-04
1.020000e+09	1.510777e+13	0.000000e+00	7.614681e-01	6.186392e+14	6.871515e+14	1.227034e+14	1.370409e+04	6.300364e+03	4.566039e+03	0	7.014558e-04
1.030000e+09	1.483008e+13	0.000000e+00	7.614681e-01	6.160517e+14	6.886822e+14	1.221572e+14	1.369199e+04	6.302712e+03	4.567741e+03	0	6.971316e-04
1.040000e+09	1.455297e+13	0.000000e+00	7.614681e-01	6.134704e+14	6.900825e+14	1.216146e+14	1.367994e+04	6.304856e+03	4.569295e+03	0	6.927620e-04
1.050000e+09	1.427647e+13	0.000000e+00	7.614681e-01	6.108957e+14	6.913563e+14	1.210757e+14	1.366794e+04	6.306803e+03	4.570706e+03	0	6.883466e-04
1.060000e+09	1.400065e+13	0.000000e+00	7.614681e-01	6.083281e+14	6.925065e+14	1.205405e+14	1.365599e+04	6.308560e+03	4.571979e+03	0	6.838848e-04
1.070000e+09	1.372555e+13	0.000000e+00	7.614681e-01	6.057680e+14	6.935367e+14	1.200089e+14	1.364409e+04	6.310131e+03	4.573117e+03	0	6.793759e-04
1.080000e+09	1.345123e+13	0.000000e+00	7.614681e-01	6.032156e+14	6.944501e+14	1.194808e+14	1.363224e+04	6.311523e+03	4.574126e+03	0	6.748193e-04
1.090000e+09	1.317772e+13	0.000000e+00	7.614681e-01	6.006713e+14	6.952505e+14	1.189563e+14	1.362044e+04	6.312741e+03	4.575009e+03	0	6.702142e-04
1.100000e+09	1.290507e+13	0.000000e+00	7.614681e-01	5.981356e+14	6.959406e+14	1.184353e+14	1.360869e+04	6.313790e+03	4.575770e+03	0	6.655597e-04
1.110000e+09	1.263332e+13	0.000000e+00	7.614681e-01	5.956086e+14	6.965241e+14	1.179178e+14	1.359699e+04	6.314677e+03	4.576412e+03	0	6.608549e-04
1.120000e+09	1.236252e+13	0.000000e+00	7.614681e-01	5.930906e+14	6.970039e+14	1.174038e+14	1.358534e+04	6.315406e+03	4.576940e+03	0	6.560987e-04
1.130000e+09	1.209268e+13	0.000000e+00	7.614681e-01	5.905820e+14	6.973833e+14	1.168932e+14	1.357374e+04	6.315982e+03	4.577358e+03	0	6.512900e-04
1.140000e+09	1.182386e+13	0.000000e+00	7.614681e-01	5.880830e+14	6.976653e+14	1.163860e+14	1.356218e+04	6.316410e+03	4.577668e+03	0	6.464277e-04
1.150000e+09	1.155607e+13	0.000000e+00	7.614681e-01	5.855937e+14	6.978532e+14	1.158822e+14	1.355068e+04	6.316695e+03	4.577875e+03	0	6.415103e-04
1.160000e+09	1.128936e+13	0.000000e+00	7.614681e-01	5.831145e+14	6.979499e+14	1.153818e+14	1.353923e+04	6.316842e+03	4.577981e+03	0	6.365365e-04
1.170000e+09	1.102374e+13	0.000000e+00	7.614681e-01	5.806456e+14	6.979585e+14	1.148847e+14	1.352782e+04	6.316855e+03	4.577990e+03	0	6.315046e-04
1.180000e+09	1.075925e+13	0.000000e+00	7.614681e-01	5.781871e+14	6.978816e+14	1.143909e+14	1.351646e+04	6.316738e+03	4.577906e+03	0	6.264131e-04
1.190000e+09	1.049590e+13	0.000000e+00	7.614681e-01	5.757393e+14	6.977225e+14	1.139004e+14	1.350515e+04	6.316497e+03	4.577731e+03	0	6.212601e-04
1.200000e+09	1.023373e+13	0.000000e+00	7.614681e-01	5.733022e+14	6.974835e+14	1.134132e+14	1.349388e+04	6.316134e+03	4.577468e+03	0	6.160437e-04
1.210000e+09	9.972750e+12	0.000000e+00	7.614681e-01	5.708761e+14	6.971678e+14	1.129292e+14	1.348267e+04	6.315655e+03	4.577121e+03	0	6.107618e-04
1.220000e+09	9.712983e+12	0.000000e+00	7.614681e-01	5.684612e+14	6.967780e+14	1.124484e+14	1.347150e+04	6.315063e+03	4.576692e+03	0	6.054121e-04
1.230000e+09	9.454449e+12	0.000000e+00	7.614681e-01	5.660574e+14	6.963164e+14	1.119707e+14	1.346038e+04	6.314362e+03	4.576184e+03	0	5.999922e-04
1.240000e+09	9.197163e+12	0.000000e+00	7.614681e-01	5.636650e+14	6.957859e+14	1.114963e+14	1.344931e+04	6.313555e+03	4.575599e+03	0	5.944995e-04
1.250000e+09	8.941143e+12	0.000000e+00	7.614681e-01	5.612841e+14	6.951890e+14	1.110249e+14	1.343828e+04	6.312647e+03	4.574941e+03	0	5.889312e-04
1.260000e+09	8.686401e+12	0.000000e+00	7.614681e-01	5.589148e+14	6.945279e+14	1.105567e+14	1.342730e+04	6.311641e+03	4.574212e+03	0	5.832842e-04
1.270000e+09	8.432952e+12	0.000000e+00	7.614681e-01	5.565572e+14	6.938053e+14	1.100915e+14	1.341636e+04	6.310540e+03	4.573414e+03	0	5.775551e-04
1.280000e+09	8.180809e+12	0.000000e+00	7.614681e-01	5.542113e+14	6.930231e+14	1.096294e+14	1.340548e+04	6.309348e+03	4.572550e+03	0	5.717405e-04
1.290000e+09	7.929982e+12	0.000000e+00	7.614681e-01	5.518772e+14	6.921840e+14	1.091704e+14	1.339463e+04	6.308067e+03	4.571622e+03	0	5.658365e-04
1.300000e+09	7.680481e+12	0.000000e+00	7.614681e-01	5.495551e+14	6.912899e+14	1.087144e+14	1.338384e+04	6.306702e+03	4.570632e+03	0	5.598389e-04
1.310000e+09	7.432317e+12	0.000000e+00	7.614681e-01	5.472450e+14	6.903432e+14	1.082613e+14	1.337308e+04	6.305255e+03	4.569583e+03	0	5.537431e-04
1.320000e+09	7.185496e+12	0.000000e+00	7.614681e-01	5.449469e+14	6.893458e+14	1.078112e+14	1.336238e+04	6.303728e+03	4.568477e+03	0	5.475442e-04
1.330000e+09	6.940027e+12	0.000000e+00	7.614681e-01	5.426608e+14	6.882997e+14	1.073641e+14	1.335172e+04	6.302126e+03	4.567316e+03	0	5.412368e-04
1.340000e+09	6.695916e+12	0.000000e+00	7.614681e-01	5.403869e+14	6.872069e+14	1.069199e+14	1.334110e+04	6.300450e+03	4.566101e+03	0	5.348150e-04
1.350000e+09	6.453169e+12	0.000000e+00	7.614681e-01	5.381252e+14	6.860696e+14	1.064786e+14	1.333053e+04	6.298703e+03	4.564835e+03	0	5.282724e-04
1.360000e+09	6.211791e+12	0.000000e+00	7.614681e-01	5.358756e+14	6.848891e+14	1.060401e+14	1.332000e+04	6.296888e+03	4.563520e+03	0	5.216019e-04
