#t		Qconv[W]	Ri[Rp]		R*[Rp]		Qc[W]		Qm[W]		Qr[W]		Tcmb[K]		Tl[K]		Tup[K]		RiFlag		Bs[T]
0.000000e+00	2.221952e+15	0.000000e+00	7.614679e-01	1.809914e+16	3.204548e+13	2.120573e+14	3.158889e+04	4.942478e+03	2.965286e+03	0	3.691425e-03
1.000000e+07	2.219276e+15	0.000000e+00	7.614679e-01	1.806572e+16	1.035648e+14	2.108823e+14	3.126398e+04	5.782831e+03	3.469464e+03	0	3.689943e-03
2.000000e+07	2.202921e+15	0.000000e+00	7.614679e-01	1.792878e+16	2.593880e+14	2.097162e+14	3.093961e+04	6.616521e+03	3.969644e+03	0	3.680856e-03
3.000000e+07	2.173250e+15	0.000000e+00	7.614679e-01	1.769113e+16	5.420139e+14	2.085587e+14	3.061763e+04	7.433924e+03	4.460053e+03	0	3.664255e-03
4.000000e+07	2.131216e+15	0.000000e+00	7.614679e-01	1.736008e+16	9.882632e+14	2.074099e+14	3.029985e+04	8.223681e+03	4.933875e+03	0	3.640478e-03
5.000000e+07	2.078417e+15	0.000000e+00	7.614679e-01	1.694776e+16	1.618505e+15	2.062697e+14	2.998794e+04	8.973414e+03	5.383684e+03	0	3.610162e-03
6.000000e+07	2.017029e+15	0.000000e+00	7.614679e-01	1.647074e+16	2.428608e+15	2.051379e+14	2.968336e+04	9.670910e+03	5.802154e+03	0	3.574264e-03
7.000000e+07	1.949620e+15	0.000000e+00	7.614679e-01	1.594847e+16	3.387745e+15	2.040146e+14	2.938726e+04	1.030553e+04	6.182897e+03	0	3.533994e-03
8.000000e+07	1.878860e+15	0.000000e+00	7.614679e-01	1.540121e+16	4.443281e+15	2.028996e+14	2.910047e+04	1.086946e+04	6.521234e+03	0	3.490712e-03
9.000000e+07	1.807220e+15	0.000000e+00	7.614679e-01	1.484770e+16	5.531198e+15	2.017930e+14	2.882344e+04	1.135857e+04	6.814681e+03	0	3.445770e-03
1.000000e+08	1.736741e+15	0.000000e+00	7.614679e-01	1.430337e+16	6.588279e+15	2.006945e+14	2.855629e+04	1.177256e+04	7.063055e+03	0	3.400381e-03
1.100000e+08	1.668906e+15	0.000000e+00	7.614679e-01	1.377944e+16	7.562165e+15	1.996042e+14	2.829886e+04	1.211451e+04	7.268212e+03	0	3.355520e-03
1.200000e+08	1.604642e+15	0.000000e+00	7.614679e-01	1.328293e+16	8.416877e+15	1.985220e+14	2.805079e+04	1.239008e+04	7.433546e+03	0	3.311885e-03
1.300000e+08	1.544401e+15	0.000000e+00	7.614679e-01	1.281723e+16	9.133684e+15	1.974478e+14	2.781159e+04	1.260652e+04	7.563399e+03	0	3.269911e-03
1.400000e+08	1.488274e+15	0.000000e+00	7.614679e-01	1.238301e+16	9.708587e+15	1.963815e+14	2.758072e+04	1.277172e+04	7.662514e+03	0	3.229809e-03
1.500000e+08	1.436116e+15	0.000000e+00	7.614679e-01	1.197915e+16	1.014830e+16	1.953232e+14	2.735761e+04	1.289355e+04	7.735604e+03	0	3.191628e-03
1.600000e+08	1.387647e+15	0.000000e+00	7.614679e-01	1.160350e+16	1.046609e+16	1.942726e+14	2.714172e+04	1.297933e+04	7.787070e+03	0	3.155311e-03
1.700000e+08	1.342527e+15	0.000000e+00	7.614679e-01	1.125348e+16	1.067830e+16	1.932298e+14	2.693256e+04	1.303561e+04	7.820839e+03	0	3.120735e-03
1.800000e+08	1.300404e+15	0.000000e+00	7.614679e-01	1.092641e+16	1.080194e+16	1.921947e+14	2.672966e+04	1.306805e+04	7.840299e+03	0	3.087749e-03
1.900000e+08	1.260945e+15	0.000000e+00	7.614679e-01	1.061973e+16	1.085309e+16	1.911672e+14	2.653262e+04	1.308140e+04	7.848306e+03	0	3.056197e-03
2.000000e+08	1.223848e+15	0.000000e+00	7.614679e-01	1.033115e+16	1.084617e+16	1.901473e+14	2.634106e+04	1.307959e+04	7.847224e+03	0	3.025926e-03
2.100000e+08	1.188846e+15	0.000000e+00	7.614679e-01	1.005865e+16	1.079354e+16	1.891348e+14	2.615468e+04	1.306586e+04	7.838983e+03	0	2.996800e-03
2.200000e+08	1.155713e+15	0.000000e+00	7.614679e-01	9.800481e+15	1.070555e+16	1.881298e+14	2.597317e+04	1.304279e+04	7.825142e+03	0	2.968697e-03
2.300000e+08	1.124251e+15	0.000000e+00	7.614679e-01	9.555160e+15	1.059068e+16	1.871322e+14	2.579629e+04	1.301247e+04	7.806955e+03	0	2.941510e-03
2.400000e+08	1.094297e+15	0.000000e+00	7.614679e-01	9.321424e+15	1.045579e+16	1.861419e+14	2.562380e+04	1.297658e+04	7.785420e+03	0	2.915150e-03
2.500000e+08	1.065708e+15	0.000000e+00	7.614679e-01	9.098202e+15	1.030633e+16	1.851589e+14	2.545551e+04	1.293643e+04	7.761335e+03	0	2.889540e-03
2.600000e+08	1.038368e+15	0.000000e+00	7.614679e-01	8.884583e+15	1.014663e+16	1.841830e+14	2.529121e+04	1.289309e+04	7.735330e+03	0	2.864615e-03
2.700000e+08	1.012172e+15	0.000000e+00	7.614679e-01	8.679787e+15	9.980079e+15	1.832143e+14	2.513075e+04	1.284738e+04	7.707906e+03	0	2.840320e-03
2.800000e+08	9.870333e+14	0.000000e+00	7.614679e-01	8.483144e+15	9.809324e+15	1.822526e+14	2.497395e+04	1.279996e+04	7.679458e+03	0	2.816608e-03
2.900000e+08	9.628764e+14	0.000000e+00	7.614679e-01	8.294074e+15	9.636404e+15	1.812980e+14	2.482069e+04	1.275136e+04	7.650297e+03	0	2.793440e-03
3.000000e+08	9.396348e+14	0.000000e+00	7.614679e-01	8.112069e+15	9.462916e+15	1.803503e+14	2.467082e+04	1.270198e+04	7.620672e+03	0	2.770781e-03
3.100000e+08	9.172502e+14	0.000000e+00	7.614679e-01	7.936685e+15	9.290046e+15	1.794096e+14	2.452421e+04	1.265215e+04	7.590776e+03	0	2.748602e-03
3.200000e+08	8.956709e+14	0.000000e+00	7.614679e-01	7.767523e+15	9.118714e+15	1.784756e+14	2.438075e+04	1.260212e+04	7.560762e+03	0	2.726876e-03
3.300000e+08	8.748507e+14	0.000000e+00	7.614679e-01	7.604231e+15	8.949607e+15	1.775485e+14	2.424033e+04	1.255210e+04	7.530750e+03	0	2.705581e-03
3.400000e+08	8.547479e+14	0.000000e+00	7.614679e-01	7.446489e+15	8.783219e+15	1.766281e+14	2.410284e+04	1.250223e+04	7.500833e+03	0	2.684697e-03
3.500000e+08	8.353250e+14	0.000000e+00	7.614679e-01	7.294008e+15	8.619924e+15	1.757144e+14	2.396818e+04	1.245265e+04	7.471085e+03	0	2.664205e-03
3.600000e+08	8.165475e+14	0.000000e+00	7.614679e-01	7.146523e+15	8.459960e+15	1.748073e+14	2.383627e+04	1.240345e+04	7.441563e+03	0	2.644091e-03
3.700000e+08	7.983837e+14	0.000000e+00	7.614679e-01	7.003792e+15	8.303514e+15	1.739068e+14	2.370700e+04	1.235469e+04	7.412311e+03	0	2.624338e-03
3.800000e+08	7.808047e+14	0.000000e+00	7.614679e-01	6.865591e+15	8.150676e+15	1.730128e+14	2.358030e+04	1.230643e+04	7.383360e+03	0	2.604934e-03
3.900000e+08	7.637834e+14	0.000000e+00	7.614679e-01	6.731712e+15	8.001505e+15	1.721252e+14	2.345608e+04	1.225872e+04	7.354737e+03	0	2.585866e-03
4.000000e+08	7.472949e+14	0.000000e+00	7.614679e-01	6.601963e+15	7.856010e+15	1.712441e+14	2.333427e+04	1.221159e+04	7.326459e+03	0	2.567122e-03
4.100000e+08	7.313156e+14	0.000000e+00	7.614679e-01	6.476164e+15	7.714187e+15	1.703693e+14	2.321479e+04	1.216505e+04	7.298539e+03	0	2.548693e-03
4.200000e+08	7.158237e+14	0.000000e+00	7.614679e-01	6.354146e+15	7.575986e+15	1.695008e+14	2.309757e+04	1.211913e+04	7.270986e+03	0	2.530567e-03
4.300000e+08	7.007987e+14	0.000000e+00	7.614679e-01	6.235752e+15	7.441352e+15	1.686386e+14	2.298255e+04	1.207383e+04	7.243805e+03	0	2.512737e-03
4.400000e+08	6.862212e+14	0.000000e+00	7.614679e-01	6.120831e+15	7.310221e+15	1.677826e+14	2.286966e+04	1.202915e+04	7.216999e+03	0	2.495192e-03
4.500000e+08	6.720730e+14	0.000000e+00	7.614679e-01	6.009243e+15	7.182517e+15	1.669327e+14	2.275884e+04	1.198509e+04	7.190568e+03	0	2.477924e-03
4.600000e+08	6.583369e+14	0.000000e+00	7.614679e-01	5.900857e+15	7.058157e+15	1.660889e+14	2.265002e+04	1.194166e+04	7.164511e+03	0	2.460926e-03
4.700000e+08	6.449966e+14	0.000000e+00	7.614679e-01	5.795545e+15	6.937054e+15	1.652512e+14	2.254316e+04	1.189885e+04	7.138825e+03	0	2.444190e-03
4.800000e+08	6.320367e+14	0.000000e+00	7.614679e-01	5.693190e+15	6.819111e+15	1.644195e+14	2.243819e+04	1.185665e+04	7.113508e+03	0	2.427709e-03
4.900000e+08	6.194426e+14	0.000000e+00	7.614679e-01	5.593679e+15	6.704249e+15	1.635937e+14	2.233507e+04	1.181506e+04	7.088555e+03	0	2.411476e-03
5.000000e+08	6.072004e+14	0.000000e+00	7.614679e-01	5.496904e+15	6.592372e+15	1.627739e+14	2.223373e+04	1.177406e+04	7.063960e+03	0	2.395484e-03
5.100000e+08	5.952969e+14	0.000000e+00	7.614679e-01	5.402763e+15	6.483386e+15	1.619599e+14	2.213414e+04	1.173366e+04	7.039719e+03	0	2.379727e-03
5.200000e+08	5.837195e+14	0.000000e+00	7.614679e-01	5.311159e+15	6.377208e+15	1.611517e+14	2.203625e+04	1.169383e+04	7.015825e+03	0	2.364198e-03
5.300000e+08	5.724562e+14	0.000000e+00	7.614679e-01	5.222000e+15	6.273748e+15	1.603493e+14	2.194001e+04	1.165458e+04	6.992273e+03	0	2.348893e-03
5.400000e+08	5.614957e+14	0.000000e+00	7.614679e-01	5.135199e+15	6.172918e+15	1.595525e+14	2.184537e+04	1.161588e+04	6.969057e+03	0	2.333806e-03
5.500000e+08	5.508270e+14	0.000000e+00	7.614679e-01	5.050669e+15	6.074642e+15	1.587615e+14	2.175230e+04	1.157773e+04	6.946170e+03	0	2.318930e-03
5.600000e+08	5.404398e+14	0.000000e+00	7.614679e-01	4.968333e+15	5.978829e+15	1.579761e+14	2.166075e+04	1.154012e+04	6.923606e+03	0	2.304261e-03
5.700000e+08	5.303242e+14	0.000000e+00	7.614679e-01	4.888112e+15	5.885407e+15	1.571962e+14	2.157068e+04	1.150304e+04	6.901359e+03	0	2.289794e-03
5.800000e+08	5.204708e+14	0.000000e+00	7.614679e-01	4.809934e+15	5.794295e+15	1.564219e+14	2.148207e+04	1.146648e+04	6.879422e+03	0	2.275523e-03
5.900000e+08	5.108703e+14	0.000000e+00	7.614679e-01	4.733729e+15	5.705423e+15	1.556531e+14	2.139486e+04	1.143042e+04	6.857789e+03	0	2.261445e-03
6.000000e+08	5.015143e+14	0.000000e+00	7.614679e-01	4.659429e+15	5.618720e+15	1.548897e+14	2.130902e+04	1.139486e+04	6.836454e+03	0	2.247555e-03
6.100000e+08	4.923944e+14	0.000000e+00	7.614679e-01	4.586971e+15	5.534115e+15	1.541318e+14	2.122453e+04	1.135979e+04	6.815411e+03	0	2.233848e-03
6.200000e+08	4.835026e+14	0.000000e+00	7.614679e-01	4.516293e+15	5.451542e+15	1.533791e+14	2.114134e+04	1.132519e+04	6.794654e+03	0	2.220319e-03
6.300000e+08	4.748314e+14	0.000000e+00	7.614679e-01	4.447336e+15	5.370936e+15	1.526318e+14	2.105943e+04	1.129106e+04	6.774177e+03	0	2.206966e-03
6.400000e+08	4.663734e+14	0.000000e+00	7.614679e-01	4.380044e+15	5.292235e+15	1.518898e+14	2.097876e+04	1.125738e+04	6.753974e+03	0	2.193784e-03
6.500000e+08	4.581217e+14	0.000000e+00	7.614679e-01	4.314362e+15	5.215381e+15	1.511530e+14	2.089931e+04	1.122416e+04	6.734039e+03	0	2.180768e-03
6.600000e+08	4.500697e+14	0.000000e+00	7.614679e-01	4.250240e+15	5.140315e+15	1.504214e+14	2.082104e+04	1.119137e+04	6.714368e+03	0	2.167916e-03
6.700000e+08	4.422107e+14	0.000000e+00	7.614679e-01	4.187626e+15	5.066983e+15	1.496949e+14	2.074393e+04	1.115901e+04	6.694954e+03	0	2.155223e-03
6.800000e+08	4.345388e+14	0.000000e+00	7.614679e-01	4.126474e+15	4.995330e+15	1.489735e+14	2.066795e+04	1.112707e+04	6.675793e+03	0	2.142687e-03
6.900000e+08	4.270479e+14	0.000000e+00	7.614679e-01	4.066736e+15	4.925305e+15	1.482572e+14	2.059308e+04	1.109555e+04	6.656878e+03	0	2.130303e-03
7.000000e+08	4.197324e+14	0.000000e+00	7.614679e-01	4.008371e+15	4.856860e+15	1.475459e+14	2.051928e+04	1.106443e+04	6.638206e+03	0	2.118069e-03
7.100000e+08	4.125867e+14	0.000000e+00	7.614679e-01	3.951333e+15	4.789945e+15	1.468396e+14	2.044654e+04	1.103370e+04	6.619771e+03	0	2.105980e-03
7.200000e+08	4.056058e+14	0.000000e+00	7.614679e-01	3.895584e+15	4.724517e+15	1.461382e+14	2.037483e+04	1.100336e+04	6.601568e+03	0	2.094035e-03
7.300000e+08	3.987844e+14	0.000000e+00	7.614679e-01	3.841084e+15	4.660528e+15	1.454417e+14	2.030412e+04	1.097340e+04	6.583594e+03	0	2.082229e-03
7.400000e+08	3.921177e+14	0.000000e+00	7.614679e-01	3.787795e+15	4.597938e+15	1.447501e+14	2.023440e+04	1.094381e+04	6.565842e+03	0	2.070561e-03
7.500000e+08	3.856011e+14	0.000000e+00	7.614679e-01	3.735681e+15	4.536705e+15	1.440633e+14	2.016564e+04	1.091459e+04	6.548309e+03	0	2.059027e-03
7.600000e+08	3.792301e+14	0.000000e+00	7.614679e-01	3.684707e+15	4.476788e+15	1.433813e+14	2.009782e+04	1.088572e+04	6.530990e+03	0	2.047624e-03
7.700000e+08	3.730002e+14	0.000000e+00	7.614679e-01	3.634839e+15	4.418152e+15	1.427040e+14	2.003093e+04	1.085720e+04	6.513882e+03	0	2.036349e-03
7.800000e+08	3.669075e+14	0.000000e+00	7.614679e-01	3.586045e+15	4.360757e+15	1.420315e+14	1.996493e+04	1.082903e+04	6.496979e+03	0	2.025201e-03
7.900000e+08	3.609477e+14	0.000000e+00	7.614679e-01	3.538293e+15	4.304568e+15	1.413636e+14	1.989982e+04	1.080120e+04	6.480279e+03	0	2.014175e-03
8.000000e+08	3.551171e+14	0.000000e+00	7.614679e-01	3.491555e+15	4.249553e+15	1.407003e+14	1.983557e+04	1.077369e+04	6.463777e+03	0	2.003271e-03
8.100000e+08	3.494120e+14	0.000000e+00	7.614679e-01	3.445800e+15	4.195675e+15	1.400417e+14	1.977216e+04	1.074651e+04	6.447469e+03	0	1.992485e-03
8.200000e+08	3.438286e+14	0.000000e+00	7.614679e-01	3.401000e+15	4.142904e+15	1.393876e+14	1.970958e+04	1.071965e+04	6.431352e+03	0	1.981815e-03
8.300000e+08	3.383636e+14	0.000000e+00	7.614679e-01	3.357130e+15	4.091212e+15	1.387380e+14	1.964782e+04	1.069309e+04	6.415422e+03	0	1.971259e-03
8.400000e+08	3.330137e+14	0.000000e+00	7.614679e-01	3.314162e+15	4.040564e+15	1.380929e+14	1.958684e+04	1.066685e+04	6.399675e+03	0	1.960815e-03
8.500000e+08	3.277755e+14	0.000000e+00	7.614679e-01	3.272072e+15	3.990933e+15	1.374523e+14	1.952664e+04	1.064090e+04	6.384108e+03	0	1.950479e-03
8.600000e+08	3.226460e+14	0.000000e+00	7.614679e-01	3.230836e+15	3.942295e+15	1.368161e+14	1.946721e+04	1.061525e+04	6.368718e+03	0	1.940251e-03
8.700000e+08	3.176222e+14	0.000000e+00	7.614679e-01	3.190429e+15	3.894618e+15	1.361842e+14	1.940852e+04	1.058989e+04	6.353502e+03	0	1.930128e-03
8.800000e+08	3.127011e+14	0.000000e+00	7.614679e-01	3.150830e+15	3.847878e+15	1.355567e+14	1.935056e+04	1.056481e+04	6.338455e+03	0	1.920108e-03
8.900000e+08	3.078800e+14	0.000000e+00	7.614679e-01	3.112017e+15	3.802052e+15	1.349335e+14	1.929331e+04	1.054001e+04	6.323576e+03	0	1.910189e-03
9.000000e+08	3.031561e+14	0.000000e+00	7.614679e-01	3.073968e+15	3.757114e+15	1.343146e+14	1.923677e+04	1.051548e+04	6.308861e+03	0	1.900369e-03
9.100000e+08	2.985268e+14	0.000000e+00	7.614679e-01	3.036663e+15	3.713039e+15	1.337000e+14	1.918092e+04	1.049122e+04	6.294307e+03	0	1.890646e-03
9.200000e+08	2.939897e+14	0.000000e+00	7.614679e-01	3.000083e+15	3.669809e+15	1.330895e+14	1.912574e+04	1.046723e+04	6.279911e+03	0	1.881019e-03
9.300000e+08	2.895422e+14	0.000000e+00	7.614679e-01	2.964208e+15	3.627396e+15	1.324832e+14	1.907123e+04	1.044349e+04	6.265670e+03	0	1.871486e-03
9.400000e+08	2.851820e+14	0.000000e+00	7.614679e-01	2.929021e+15	3.585781e+15	1.318811e+14	1.901736e+04	1.042001e+04	6.251582e+03	0	1.862044e-03
9.500000e+08	2.809068e+14	0.000000e+00	7.614679e-01	2.894502e+15	3.544947e+15	1.312831e+14	1.896413e+04	1.039678e+04	6.237645e+03	0	1.852692e-03
9.600000e+08	2.767143e+14	0.000000e+00	7.614679e-01	2.860636e+15	3.504871e+15	1.306891e+14	1.891152e+04	1.037379e+04	6.223854e+03	0	1.843429e-03
9.700000e+08	2.726026e+14	0.000000e+00	7.614679e-01	2.827405e+15	3.465533e+15	1.300992e+14	1.885953e+04	1.035105e+04	6.210208e+03	0	1.834253e-03
9.800000e+08	2.685694e+14	0.000000e+00	7.614679e-01	2.794793e+15	3.426916e+15	1.295133e+14	1.880814e+04	1.032854e+04	6.196705e+03	0	1.825162e-03
9.900000e+08	2.646127e+14	0.000000e+00	7.614679e-01	2.762785e+15	3.389003e+15	1.289314e+14	1.875734e+04	1.030627e+04	6.183342e+03	0	1.816154e-03
1.000000e+09	2.607307e+14	0.000000e+00	7.614679e-01	2.731365e+15	3.351775e+15	1.283534e+14	1.870712e+04	1.028422e+04	6.170116e+03	0	1.807229e-03
1.010000e+09	2.569215e+14	0.000000e+00	7.614679e-01	2.700518e+15	3.315215e+15	1.277794e+14	1.865747e+04	1.026240e+04	6.157025e+03	0	1.798385e-03
1.020000e+09	2.531831e+14	0.000000e+00	7.614679e-01	2.670232e+15	3.279306e+15	1.272093e+14	1.860837e+04	1.024080e+04	6.144067e+03	0	1.789620e-03
1.030000e+09	2.495140e+14	0.000000e+00	7.614679e-01	2.640490e+15	3.244033e+15	1.266430e+14	1.855983e+04	1.021942e+04	6.131239e+03	0	1.780933e-03
1.040000e+09	2.459123e+14	0.000000e+00	7.614679e-01	2.611282e+15	3.209381e+15	1.260805e+14	1.851182e+04	1.019826e+04	6.118540e+03	0	1.772322e-03
1.050000e+09	2.423763e+14	0.000000e+00	7.614679e-01	2.582593e+15	3.175335e+15	1.255218e+14	1.846435e+04	1.017730e+04	6.105968e+03	0	1.763786e-03
1.060000e+09	2.389046e+14	0.000000e+00	7.614679e-01	2.554411e+15	3.141881e+15	1.249669e+14	1.841739e+04	1.015655e+04	6.093520e+03	0	1.755324e-03
1.070000e+09	2.354955e+14	0.000000e+00	7.614679e-01	2.526723e+15	3.109003e+15	1.244158e+14	1.837094e+04	1.013601e+04	6.081194e+03	0	1.746935e-03
1.080000e+09	2.321475e+14	0.000000e+00	7.614679e-01	2.499519e+15	3.076689e+15	1.238683e+14	1.832500e+04	1.011567e+04	6.068988e+03	0	1.738617e-03
1.090000e+09	2.288592e+14	0.000000e+00	7.614679e-01	2.472786e+15	3.044926e+15	1.233246e+14	1.827954e+04	1.009552e+04	6.056901e+03	0	1.730369e-03
1.100000e+09	2.256291e+14	0.000000e+00	7.614679e-01	2.446514e+15	3.013700e+15	1.227844e+14	1.823458e+04	1.007557e+04	6.044930e+03	0	1.722189e-03
1.110000e+09	2.224559e+14	0.000000e+00	7.614679e-01	2.420691e+15	2.982999e+15	1.222479e+14	1.819008e+04	1.005580e+04	6.033074e+03	0	1.714078e-03
1.120000e+09	2.193382e+14	0.000000e+00	7.614679e-01	2.395308e+15	2.952813e+15	1.217150e+14	1.814606e+04	1.003623e+04	6.021330e+03	0	1.706032e-03
1.130000e+09	2.162747e+14	0.000000e+00	7.614679e-01	2.370353e+15	2.923125e+15	1.211857e+14	1.810249e+04	1.001684e+04	6.009698e+03	0	1.698053e-03
1.140000e+09	2.132642e+14	0.000000e+00	7.614679e-01	2.345818e+15	2.893929e+15	1.206599e+14	1.805938e+04	9.997635e+03	5.998175e+03	0	1.690137e-03
1.150000e+09	2.103054e+14	0.000000e+00	7.614679e-01	2.321692e+15	2.865211e+15	1.201376e+14	1.801672e+04	9.978608e+03	5.986759e+03	0	1.682284e-03
1.160000e+09	2.073972e+14	0.000000e+00	7.614679e-01	2.297967e+15	2.836962e+15	1.196188e+14	1.797448e+04	9.959757e+03	5.975450e+03	0	1.674494e-03
1.170000e+09	2.045383e+14	0.000000e+00	7.614679e-01	2.274633e+15	2.809169e+15	1.191035e+14	1.793268e+04	9.941080e+03	5.964244e+03	0	1.666764e-03
1.180000e+09	2.017277e+14	0.000000e+00	7.614679e-01	2.251682e+15	2.781825e+15	1.185916e+14	1.789131e+04	9.922574e+03	5.953142e+03	0	1.659094e-03
1.190000e+09	1.989643e+14	0.000000e+00	7.614679e-01	2.229105e+15	2.754917e+15	1.180830e+14	1.785035e+04	9.904237e+03	5.942140e+03	0	1.651484e-03
1.200000e+09	1.962471e+14	0.000000e+00	7.614679e-01	2.206893e+15	2.728438e+15	1.175779e+14	1.780979e+04	9.886066e+03	5.931238e+03	0	1.643931e-03
1.210000e+09	1.935749e+14	0.000000e+00	7.614679e-01	2.185039e+15	2.702378e+15	1.170761e+14	1.776964e+04	9.868058e+03	5.920434e+03	0	1.636435e-03
1.220000e+09	1.909468e+14	0.000000e+00	7.614679e-01	2.163535e+15	2.676727e+15	1.165776e+14	1.772989e+04	9.850212e+03	5.909727e+03	0	1.628996e-03
1.230000e+09	1.883618e+14	0.000000e+00	7.614679e-01	2.142373e+15	2.651477e+15	1.160825e+14	1.769053e+04	9.832524e+03	5.899115e+03	0	1.621612e-03
1.240000e+09	1.858190e+14	0.000000e+00	7.614679e-01	2.121545e+15	2.626618e+15	1.155906e+14	1.765155e+04	9.814992e+03	5.888597e+03	0	1.614281e-03
1.250000e+09	1.833175e+14	0.000000e+00	7.614679e-01	2.101046e+15	2.602144e+15	1.151019e+14	1.761295e+04	9.797615e+03	5.878171e+03	0	1.607005e-03
1.260000e+09	1.808563e+14	0.000000e+00	7.614679e-01	2.080867e+15	2.578045e+15	1.146165e+14	1.757472e+04	9.780389e+03	5.867836e+03	0	1.599780e-03
1.270000e+09	1.784345e+14	0.000000e+00	7.614679e-01	2.061001e+15	2.554314e+15	1.141343e+14	1.753685e+04	9.763314e+03	5.857592e+03	0	1.592608e-03
1.280000e+09	1.760515e+14	0.000000e+00	7.614679e-01	2.041443e+15	2.530943e+15	1.136552e+14	1.749935e+04	9.746385e+03	5.847435e+03	0	1.585486e-03
1.290000e+09	1.737062e+14	0.000000e+00	7.614679e-01	2.022185e+15	2.507925e+15	1.131793e+14	1.746220e+04	9.729602e+03	5.837366e+03	0	1.578414e-03
1.300000e+09	1.713980e+14	0.000000e+00	7.614679e-01	2.003221e+15	2.485252e+15	1.127065e+14	1.742540e+04	9.712962e+03	5.827383e+03	0	1.571392e-03
1.310000e+09	1.691259e+14	0.000000e+00	7.614679e-01	1.984546e+15	2.462916e+15	1.122368e+14	1.738894e+04	9.696463e+03	5.817484e+03	0	1.564417e-03
1.320000e+09	1.668894e+14	0.000000e+00	7.614679e-01	1.966153e+15	2.440912e+15	1.117702e+14	1.735283e+04	9.680104e+03	5.807669e+03	0	1.557491e-03
1.330000e+09	1.646875e+14	0.000000e+00	7.614679e-01	1.948036e+15	2.419233e+15	1.113067e+14	1.731704e+04	9.663882e+03	5.797937e+03	0	1.550611e-03
1.340000e+09	1.625197e+14	0.000000e+00	7.614679e-01	1.930190e+15	2.397871e+15	1.108462e+14	1.728159e+04	9.647795e+03	5.788285e+03	0	1.543777e-03
1.350000e+09	1.603852e+14	0.000000e+00	7.614679e-01	1.912610e+15	2.376820e+15	1.103886e+14	1.724646e+04	9.631842e+03	5.778714e+03	0	1.536989e-03
1.360000e+09	1.582833e+14	0.000000e+00	7.614679e-01	1.895289e+15	2.356076e+15	1.099341e+14	1.721164e+04	9.616020e+03	5.769221e+03	0	1.530245e-03
